DTS Sentinel unit serial number:	SN413079Multiplexer serial number:	ORYXHardware model number:	OX4-SRSoftware version number:	ORYX F/W v4.00 Oryx Data Collector v3.7.2.0data status	okinstallation	princeton_trtdifferential loss correction	single-endedforward channel	channel 1reverse channel	N/Adate	2019/09/19time	15:30:35forward acquisition time	60.00reverse acquisition time	0.00gamma	496.2192k internal	0.2311k external	0.2311temperature offset calibration	1.0022default loss term (dB/km)	0.3790temperature slope calibration	1.0000multiplexer offset coefficient	1.0000multiplexer slope coefficient	1.0000fibre end	0.00T internal ref (°C)	34.06T ext. ref 1 (°C)	1.15T ext. ref 2 (°C)	31.40length (m)	temperature (°C)	Stokes	anti-Stokes-747.200	800.000	-0.064	0.273
-746.185	-26.811	-0.320	0.190
-745.171	-76.827	0.340	0.121
-744.156	-28.583	0.102	0.060
-743.142	-132.817	-0.289	-0.037
-742.127	583.181	-0.195	0.485
-741.112	800.000	0.021	-0.080
-740.098	-200.000	-0.018	0.192
-739.083	-90.180	0.080	0.024
-738.069	-200.000	0.048	0.239
-737.054	-109.899	-0.135	-0.029
-736.039	-4.926	-0.296	0.207
-735.025	-44.341	0.403	0.205
-734.010	-200.000	-0.042	-0.386
-732.996	1.590	-0.191	-0.139
-731.981	-75.791	0.077	0.028
-730.966	-97.281	0.180	-0.048
-729.952	261.273	0.081	-0.143
-728.937	-68.005	0.103	-0.041
-727.923	-200.000	0.034	-0.166
-726.908	-33.724	0.226	0.127
-725.894	-104.109	-0.117	-0.028
-724.879	30.838	0.249	-0.217
-723.864	-200.000	-0.086	0.427
-722.850	-56.888	-0.292	0.131
-721.835	68.446	0.224	0.233
-720.821	-200.000	0.058	-0.385
-719.806	-58.930	-0.067	-0.029
-718.791	-91.020	0.021	-0.006
-717.777	383.069	-0.095	-0.199
-716.762	800.000	-0.085	-0.370
-715.748	-51.435	-0.077	0.037
-714.733	-135.772	-0.414	-0.050
-713.718	-200.000	-0.013	0.179
-712.704	-146.073	0.156	0.014
-711.689	-88.693	-0.471	-0.142
-710.675	174.628	-0.225	-0.329
-709.660	21.717	0.130	0.107
-708.645	179.855	0.097	0.144
-707.631	105.844	0.189	-0.227
-706.616	-200.000	-0.005	-0.181
-705.602	737.588	0.193	0.524
-704.587	-123.231	-0.093	0.015
-703.572	-131.737	0.280	0.037
-702.558	-127.294	0.145	-0.021
-701.543	-30.335	0.195	-0.112
-700.529	473.049	-0.118	0.270
-699.514	-41.882	-0.114	0.059
-698.499	-37.660	-0.241	0.130
-697.485	4.168	0.235	0.175
-696.470	43.281	-0.145	-0.134
-695.456	-148.776	-0.038	0.003
-694.441	-100.861	-0.273	0.068
-693.426	291.979	-0.050	0.091
-692.412	328.227	0.180	-0.350
-691.397	800.000	0.041	-0.149
-690.383	302.705	-0.114	-0.215
-689.368	-125.637	0.194	0.030
-688.354	-54.505	0.049	0.022
-687.339	800.000	0.061	-0.181
-686.324	266.435	0.042	0.075
-685.310	800.000	0.028	-0.099
-684.295	42.755	0.063	0.058
-683.281	-25.444	0.114	0.068
-682.266	5.148	0.189	0.141
-681.251	-200.000	-0.025	0.205
-680.237	-200.000	0.048	-0.355
-679.222	173.850	0.070	-0.102
-678.208	800.000	-0.044	0.144
-677.193	-102.238	-0.083	-0.020
-676.178	-200.000	0.020	-0.179
-675.164	103.293	-0.068	-0.081
-674.149	-115.430	0.165	-0.032
-673.135	107.046	0.063	-0.076
-672.120	17.575	-0.428	-0.344
-671.105	152.100	-0.072	0.099
-670.091	-200.000	-0.052	0.289
-669.076	-9.509	-0.067	0.045
-668.062	-200.000	-0.029	-0.152
-667.047	-200.000	-0.011	-0.558
-666.032	-200.000	-0.010	-0.072
-665.018	56.195	-0.160	-0.157
-664.003	115.410	-0.216	-0.267
-662.989	-200.000	0.024	-0.262
-661.974	-81.129	0.389	-0.130
-660.959	800.000	-0.007	-0.019
-659.945	192.537	-0.099	0.152
-658.930	-200.000	0.030	0.224
-657.916	-48.846	0.181	0.088
-656.901	125.911	-0.352	-0.450
-655.886	310.613	0.086	-0.162
-654.872	540.514	0.104	-0.250
-653.857	456.797	0.106	-0.238
-652.843	-51.874	-0.239	-0.113
-651.828	379.739	0.068	-0.141
-650.814	178.672	-0.020	0.030
-649.799	-90.943	-0.104	0.030
-648.784	146.980	0.163	-0.221
-647.770	-22.110	-0.188	-0.115
-646.755	76.683	0.173	-0.185
-645.741	-135.511	-0.106	-0.013
-644.726	50.493	0.138	-0.132
-643.711	89.548	-0.120	-0.135
-642.697	-10.901	-0.117	-0.078
-641.682	-200.000	-0.036	-0.267
-640.668	-165.854	0.151	0.007
-639.653	-200.000	0.107	0.494
-638.638	-200.000	-0.004	0.053
-637.624	387.307	0.053	-0.111
-636.609	458.863	0.050	-0.111
-635.595	-60.304	0.210	-0.090
-634.580	-200.000	-0.011	-0.061
-633.565	-37.371	0.142	0.076
-632.551	157.229	-0.100	-0.140
-631.536	-74.691	0.358	0.130
-630.522	-37.953	-0.164	-0.088
-629.507	-140.702	0.234	0.024
-628.492	1.888	-0.143	0.104
-627.478	-5.200	0.125	0.087
-626.463	800.000	-0.036	0.141
-625.449	-94.659	-0.360	0.099
-624.434	30.828	-0.058	-0.050
-623.419	-194.496	0.346	0.003
-622.405	-200.000	-0.038	0.177
-621.390	800.000	-0.048	0.136
-620.376	550.344	0.028	-0.067
-619.361	142.001	-0.102	-0.137
-618.346	-151.487	-0.123	0.009
-617.332	270.440	0.154	-0.274
-616.317	800.000	0.112	0.396
-615.303	-103.648	-0.394	0.093
-614.288	114.822	-0.328	0.405
-613.273	-78.163	-0.202	0.070
-612.259	800.000	-0.116	0.418
-611.244	3.681	-0.108	0.079
-610.230	306.703	-0.223	-0.419
-609.215	37.973	0.209	0.188
-608.201	-200.000	-0.008	0.140
-607.186	-22.203	-0.555	0.340
-606.171	-77.761	0.200	-0.070
-605.157	-36.691	-0.314	0.170
-604.142	-200.000	0.008	-0.079
-603.128	-26.163	-0.220	-0.131
-602.113	153.826	0.098	0.136
-601.098	-4.259	-0.127	0.088
-600.084	47.900	0.136	0.128
-599.069	-53.911	-0.354	-0.163
-598.055	30.972	-0.152	0.132
-597.040	-52.730	0.435	-0.202
-596.025	105.354	0.059	0.071
-595.011	-80.004	0.187	-0.063
-593.996	800.000	0.049	-0.186
-592.982	77.759	0.241	-0.259
-591.967	-93.842	0.053	-0.015
-590.952	-20.825	-0.229	-0.142
-589.938	-118.539	0.229	0.041
-588.923	-70.598	-0.222	0.085
-587.909	-200.000	0.010	-0.124
-586.894	-181.153	-0.257	0.005
-585.879	71.764	-0.313	-0.328
-584.865	-68.218	-0.166	0.065
-583.850	-76.654	0.075	0.027
-582.836	-49.669	0.085	0.041
-581.821	-58.197	0.201	-0.088
-580.806	-200.000	0.004	0.126
-579.792	-81.708	-0.078	-0.026
-578.777	-99.807	-0.446	0.113
-577.763	91.902	-0.280	0.317
-576.748	77.223	-0.296	0.317
-575.733	-138.269	-0.331	0.037
-574.719	-36.360	-0.183	0.100
-573.704	-84.931	0.143	-0.045
-572.690	-9.500	0.137	-0.092
-571.675	133.673	-0.087	-0.113
-570.661	-146.455	0.262	-0.023
-569.646	-83.483	0.380	-0.123
-568.631	159.678	-0.162	0.228
-567.617	-80.234	-0.239	-0.081
-566.602	-142.360	0.343	-0.034
-565.588	247.479	-0.057	-0.096
-564.573	170.975	0.239	-0.345
-563.558	132.229	-0.111	-0.144
-562.544	-200.000	-0.013	0.080
-561.529	-97.516	-0.377	-0.099
-560.515	800.000	-0.032	0.092
-559.500	0.699	0.032	-0.023
-558.485	-79.269	-0.302	0.103
-557.471	-158.046	-0.126	0.007
-556.456	-141.077	-0.222	0.023
-555.442	-169.260	0.292	0.011
-554.427	-200.000	0.009	-0.142
-553.412	800.000	-0.073	-0.277
-552.398	16.277	-0.226	0.180
-551.383	-51.406	-0.194	-0.091
-550.369	-200.000	-0.028	-0.413
-549.354	274.997	-0.017	0.031
-548.339	-73.864	-0.251	-0.092
-547.325	-136.763	-0.211	-0.024
-546.310	37.195	0.116	-0.103
-545.296	35.499	-0.252	-0.223
-544.281	-142.119	0.076	-0.008
-543.266	-87.015	0.120	0.037
-542.252	69.306	0.258	-0.268
-541.237	-123.995	-0.200	0.032
-540.223	800.000	0.073	0.237
-539.208	-200.000	-0.012	0.270
-538.193	-200.000	-0.208	0.000
-537.179	800.000	-0.109	0.432
-536.164	-136.628	0.055	-0.006
-535.150	-1.568	0.071	-0.050
-534.135	454.696	-0.045	-0.100
-533.121	-200.000	0.033	0.184
-532.106	-200.000	0.017	-0.111
-531.091	-96.068	-0.198	-0.053
-530.077	-200.000	0.016	-0.486
-529.062	-73.072	0.328	0.121
-528.048	-200.000	0.013	0.171
-527.033	-167.596	-0.119	0.005
-526.018	-200.000	-0.006	-0.247
-525.004	179.820	0.066	-0.098
-523.989	800.000	-0.098	-0.380
-522.975	-179.873	0.228	0.005
-521.960	-200.000	0.008	0.060
-520.945	-47.017	-0.092	-0.045
-519.931	-142.319	0.066	-0.007
-518.916	131.034	0.101	-0.131
-517.902	651.040	0.038	-0.098
-516.887	777.455	0.031	-0.086
-515.872	-40.429	0.164	-0.086
-514.858	95.981	0.165	0.190
-513.843	-127.206	-0.425	-0.062
-512.829	117.485	0.188	-0.233
-511.814	-121.826	-0.139	0.023
-510.799	-28.335	-0.195	0.113
-509.785	800.000	-0.084	-0.283
-508.770	-166.885	0.209	0.009
-507.756	473.313	-0.100	-0.227
-506.741	-16.559	-0.140	0.089
-505.726	492.192	-0.122	-0.282
-504.712	-124.065	0.098	-0.015
-503.697	-27.468	0.104	0.061
-502.683	-132.626	0.130	0.017
-501.668	8.397	-0.037	-0.028
-500.653	45.315	0.095	-0.089
-499.639	800.000	0.033	0.132
-498.624	35.722	0.197	-0.174
-497.610	52.582	-0.214	0.206
-496.595	220.826	0.186	-0.300
-495.581	-83.372	-0.172	0.055
-494.566	-184.266	-0.163	0.003
-493.551	43.209	-0.248	0.228
-492.537	-16.738	0.155	0.099
-491.522	295.199	0.155	-0.285
-490.508	800.000	-0.088	0.277
-489.493	72.757	0.126	-0.133
-488.478	-69.032	-0.244	-0.094
-487.464	-136.105	0.266	0.031
-486.449	-78.235	0.179	0.062
-485.435	98.962	-0.132	-0.153
-484.420	-28.936	0.083	0.048
-483.405	-125.292	0.266	0.041
-482.391	768.598	-0.149	0.408
-481.376	-108.918	0.070	0.015
-480.362	515.619	-0.168	-0.393
-479.347	800.000	0.096	-0.381
-478.332	-127.150	0.174	-0.026
-477.318	-59.543	0.188	0.081
-476.303	800.000	-0.055	0.168
-475.289	77.205	0.123	0.132
-474.274	-29.674	0.101	-0.058
-473.259	77.229	0.090	0.096
-472.245	-57.043	0.080	0.035
-471.230	-146.927	0.258	0.022
-470.216	-16.388	-0.049	0.031
-469.201	109.956	0.191	-0.230
-468.186	-56.663	0.342	-0.152
-467.172	-200.000	0.043	-0.260
-466.157	-44.189	0.430	-0.217
-465.143	9.648	0.120	0.091
-464.128	625.777	0.185	0.469
-463.113	436.159	0.158	-0.345
-462.099	800.000	0.029	-0.099
-461.084	1.621	-0.350	0.253
-460.070	-200.000	0.053	0.242
-459.055	800.000	0.092	-0.258
-458.040	-127.227	-0.324	-0.048
-457.026	-200.000	-0.053	-0.306
-456.011	-0.882	0.121	0.086
-454.997	152.556	-0.100	-0.137
-453.982	800.000	0.049	0.167
-452.968	542.624	0.071	-0.169
-451.953	-198.720	-0.270	0.002
-450.938	116.322	-0.148	0.182
-449.924	800.000	-0.065	0.244
-448.909	-58.444	0.189	-0.082
-447.895	-200.000	0.016	0.088
-446.880	24.491	-0.110	0.091
-445.865	-200.000	0.028	-0.179
-444.851	-200.000	0.028	0.182
-443.836	2.884	-0.371	-0.270
-442.822	800.000	0.079	-0.244
-441.807	565.252	0.069	-0.169
-440.792	-51.498	-0.224	0.105
-439.778	-116.586	0.332	0.061
-438.763	612.035	-0.031	0.078
-437.749	-200.000	-0.012	0.058
-436.734	82.460	0.102	-0.111
-435.719	800.000	0.050	-0.176
-434.705	4.613	0.217	0.160
-433.690	-113.359	0.111	0.022
-432.676	157.322	0.234	0.324
-431.661	-58.435	-0.152	-0.066
-430.646	-200.000	-0.025	-0.134
-429.632	-200.000	0.048	0.383
-428.617	-122.387	0.077	-0.013
-427.603	-148.617	-0.449	-0.037
-426.588	-92.569	-0.042	0.012
-425.573	-31.894	-0.112	0.063
-424.559	4.310	0.091	0.067
-423.544	31.842	-0.172	0.148
-422.530	-200.000	-0.011	-0.257
-421.515	48.889	-0.053	0.050
-420.500	-23.820	-0.114	0.069
-419.486	-132.998	-0.162	-0.021
-418.471	7.426	0.331	0.248
-417.457	800.000	0.088	-0.289
-416.442	-4.587	0.312	-0.216
-415.428	800.000	0.091	0.333
-414.413	-111.400	0.252	0.052
-413.398	-48.193	0.178	0.086
-412.384	-200.000	-0.016	-0.263
-411.369	-143.639	0.015	-0.001
-410.355	80.701	0.033	-0.035
-409.340	43.971	-0.182	0.167
-408.325	-103.923	0.211	-0.049
-407.311	-200.000	0.005	0.296
-406.296	118.997	-0.255	0.316
-405.282	800.000	-0.119	-0.336
-404.267	144.716	0.217	-0.291
-403.252	235.076	-0.079	-0.131
-402.238	28.348	0.183	0.155
-401.223	241.894	0.103	0.172
-400.209	-79.052	-0.094	-0.032
-399.194	-200.000	0.040	-0.235
-398.179	138.211	-0.146	0.192
-397.165	21.164	-0.034	0.028
-396.150	-128.983	-0.235	0.033
-395.136	-104.516	0.320	-0.074
-394.121	116.256	0.069	-0.084
-393.106	181.531	0.057	-0.084
-392.092	-77.868	-0.075	-0.026
-391.077	7.717	-0.262	-0.196
-390.063	64.450	0.088	0.089
-389.048	4.938	0.022	0.016
-388.033	41.892	-0.173	0.157
-387.019	393.505	0.082	0.171
-386.004	47.010	-0.053	0.049
-384.990	-200.000	0.005	-0.323
-383.975	800.000	-0.048	-0.190
-382.960	30.629	-0.019	0.016
-381.946	418.096	0.066	-0.142
-380.931	800.000	-0.080	-0.270
-379.917	523.306	-0.064	-0.150
-378.902	-200.000	0.037	-0.199
-377.888	-135.341	0.185	0.022
-376.873	-4.122	-0.265	-0.184
-375.858	800.000	0.003	0.011
-374.844	15.674	0.149	-0.117
-373.829	-120.862	-0.279	0.047
-372.815	800.000	-0.012	-0.051
-371.800	-53.972	-0.085	0.039
-370.785	800.000	-0.064	-0.233
-369.771	56.983	0.153	0.149
-368.756	-200.000	-0.030	-0.153
-367.742	47.706	0.159	-0.148
-366.727	-139.061	-0.065	0.007
-365.712	209.528	0.075	-0.117
-364.698	522.963	0.207	-0.486
-363.683	-10.890	-0.231	0.153
-362.669	362.316	-0.175	-0.350
-361.654	-90.624	0.160	0.046
-360.639	-200.000	-0.015	-0.131
-359.625	-162.377	0.255	-0.013
-358.610	-38.434	0.108	-0.057
-357.596	141.872	-0.077	-0.102
-356.581	47.624	0.134	-0.125
-355.566	-79.850	-0.341	0.115
-354.552	800.000	0.010	0.032
-353.537	332.308	-0.146	0.282
-352.523	-200.000	0.006	0.067
-351.508	294.749	0.060	-0.110
-350.493	800.000	-0.044	-0.127
-349.479	-91.248	-0.272	-0.078
-348.464	-83.174	-0.124	-0.040
-347.450	-175.666	0.197	0.005
-346.435	56.904	0.087	0.084
-345.420	-71.137	0.225	-0.084
-344.406	-140.693	0.275	0.028
-343.391	-200.000	0.006	0.202
-342.377	-14.845	-0.201	0.129
-341.362	-117.304	-0.185	-0.033
-340.348	2.126	-0.276	-0.199
-339.333	-142.225	-0.212	-0.021
-338.318	800.000	0.069	-0.195
-337.304	-200.000	-0.007	0.193
-336.289	800.000	0.047	0.206
-335.275	5.427	0.135	-0.100
-334.260	-79.892	-0.205	0.069
-333.245	70.277	-0.212	0.219
-332.231	800.000	0.010	0.039
-331.216	72.316	-0.232	0.242
-330.202	-113.832	-0.159	0.031
-329.187	700.383	0.020	0.054
-328.172	-200.000	0.030	0.137
-327.158	-113.675	-0.148	0.029
-326.143	-108.404	0.325	0.070
-325.129	149.334	0.042	0.057
-324.114	-200.000	-0.019	-0.173
-323.099	-200.000	-0.060	0.336
-322.085	-200.000	-0.012	-0.179
-321.070	190.965	-0.061	0.092
-320.056	-103.215	0.124	0.029
-319.041	12.287	-0.248	-0.190
-318.026	-200.000	-0.052	0.302
-317.012	-111.369	0.340	0.069
-315.997	800.000	-0.128	-0.353
-314.983	-17.564	0.214	-0.135
-313.968	-121.861	-0.346	-0.057
-312.953	181.365	-0.210	0.309
-311.939	-125.841	0.169	-0.025
-310.924	-7.063	0.104	-0.071
-309.910	212.899	0.058	-0.092
-308.895	-118.003	-0.190	0.034
-307.880	-149.543	-0.294	0.023
-306.866	800.000	0.022	0.083
-305.851	-200.000	0.008	0.154
-304.837	356.523	0.128	0.255
-303.822	-63.359	0.203	-0.083
-302.807	-200.000	-0.003	0.303
-301.793	-34.458	0.037	-0.020
-300.778	-42.053	0.147	-0.075
-299.764	70.582	0.039	-0.040
-298.749	-94.594	-0.192	0.052
-297.735	-67.556	0.268	0.105
-296.720	800.000	0.011	-0.036
-295.705	-200.000	0.017	0.178
-294.691	-147.041	-0.121	0.010
-293.676	83.408	-0.155	-0.169
-292.662	800.000	-0.091	-0.373
-291.647	-122.205	0.197	0.032
-290.632	-96.824	0.238	0.062
-289.618	122.559	-0.192	-0.240
-288.603	761.505	-0.026	-0.070
-287.589	-138.148	-0.117	0.013
-286.574	-166.564	0.378	0.016
-285.559	-200.000	0.037	0.168
-284.545	36.325	0.108	0.095
-283.530	-173.767	0.457	0.014
-282.516	204.785	-0.156	-0.241
-281.501	-62.148	-0.076	-0.031
-280.486	-200.000	0.012	0.115
-279.472	43.924	0.237	0.216
-278.457	-200.000	0.007	-0.162
-277.443	-82.035	0.184	0.060
-276.428	210.529	-0.197	-0.309
-275.413	67.579	0.206	0.210
-274.399	79.303	0.429	0.459
-273.384	-26.545	0.084	-0.049
-272.370	24.795	-0.119	-0.099
-271.355	-200.000	-0.046	-0.275
-270.340	-200.000	0.002	-0.176
-269.326	-18.601	0.075	0.047
-268.311	101.982	-0.196	0.229
-267.297	212.979	0.021	-0.032
-266.282	-44.656	0.304	-0.151
-265.267	-96.881	0.062	0.016
-264.253	-63.086	-0.392	-0.161
-263.238	206.611	-0.224	-0.348
-262.224	-193.217	-0.215	0.002
-261.209	-73.827	0.135	0.049
-260.195	290.818	0.061	0.110
-259.180	-8.040	0.438	-0.294
-258.165	-139.190	-0.272	0.029
-257.151	-95.109	-0.283	0.076
-256.136	63.491	0.159	0.159
-255.122	-91.248	-0.218	0.062
-254.107	-102.277	0.244	-0.058
-253.092	-200.000	-0.030	0.136
-252.078	800.000	0.026	0.073
-251.063	65.352	-0.160	0.162
-250.049	-158.195	-0.141	-0.008
-249.034	-70.414	0.167	0.063
-248.019	619.804	0.045	0.111
-247.005	-178.933	0.263	-0.006
-245.990	-173.247	0.070	-0.002
-244.976	-200.000	-0.012	-0.112
-243.961	-153.178	-0.165	-0.011
-242.946	-109.015	-0.284	-0.060
-241.932	-115.883	0.179	0.033
-240.917	-82.006	-0.182	0.059
-239.903	1.334	-0.057	0.041
-238.888	-22.586	-0.241	0.145
-237.873	-94.283	0.260	-0.071
-236.859	-200.000	-0.000	-0.363
-235.844	68.701	-0.087	0.089
-234.830	16.774	-0.072	-0.056
-233.815	800.000	-0.017	-0.070
-232.800	-133.096	-0.091	-0.011
-231.786	406.928	0.131	0.276
-230.771	800.000	-0.026	0.111
-229.757	86.196	0.155	-0.170
-228.742	-200.000	0.010	0.237
-227.727	800.000	0.056	0.208
-226.713	-64.081	0.192	0.078
-225.698	-188.575	-0.153	0.002
-224.684	-101.546	0.562	-0.136
-223.669	622.361	-0.169	0.423
-222.655	-200.000	0.009	0.164
-221.640	800.000	0.072	-0.240
-220.625	-200.000	-0.033	0.177
-219.611	608.063	0.026	0.065
-218.596	38.048	-0.279	0.247
-217.582	-200.000	0.000	0.083
-216.567	288.228	0.191	0.345
-215.552	-95.231	0.157	-0.042
-214.538	-41.042	0.135	0.070
-213.523	-200.000	-0.022	0.182
-212.509	-162.381	-0.244	0.012
-211.494	-42.840	-0.253	-0.128
-210.479	-135.563	0.311	0.037
-209.465	-61.986	0.167	0.069
-208.450	800.000	0.061	-0.243
-207.436	800.000	-0.058	-0.244
-206.421	42.923	-0.331	-0.300
-205.406	-22.495	-0.181	0.109
-204.392	267.948	0.154	0.269
-203.377	4.852	-0.092	0.068
-202.363	473.240	-0.173	0.388
-201.348	252.050	0.035	0.059
-200.333	-200.000	-0.069	-0.327
-199.319	-29.596	-0.162	-0.092
-198.304	-34.870	0.058	-0.031
-197.290	-200.000	-0.015	0.241
-196.275	-60.424	-0.095	-0.040
-195.260	145.229	0.195	0.259
-194.246	273.240	0.043	0.076
-193.231	800.000	0.084	0.335
-192.217	-200.000	-0.054	0.510
-191.202	-200.000	-0.013	0.080
-190.187	800.000	-0.130	0.488
-189.173	-135.574	-0.270	0.032
-188.158	-200.000	-0.005	0.252
-187.144	-143.699	0.359	-0.034
-186.129	50.082	-0.094	-0.088
-185.114	-134.054	0.109	0.013
-184.100	-139.498	-0.292	-0.031
-183.085	63.612	-0.193	-0.192
-182.071	115.092	0.273	-0.331
-181.056	514.182	0.071	0.164
-180.042	-200.000	-0.009	0.262
-179.027	133.845	0.295	0.379
-178.012	-165.845	-0.272	0.012
-176.998	-128.011	0.142	-0.020
-175.983	-85.079	-0.148	0.046
-174.969	174.369	0.127	0.183
-173.954	800.000	-0.048	0.154
-172.939	353.121	0.091	-0.180
-171.925	61.121	0.284	-0.280
-170.910	-32.223	0.308	0.171
-169.896	11.053	-0.146	0.111
-168.881	-45.117	-0.032	-0.016
-167.866	-169.614	0.091	0.003
-166.852	220.979	-0.138	-0.220
-165.837	-160.460	0.326	-0.017
-164.823	123.385	0.170	-0.212
-163.808	156.828	-0.116	0.160
-162.793	-74.801	0.332	0.118
-161.779	-112.847	0.251	0.049
-160.764	800.000	-0.142	-0.538
-159.750	200.056	0.267	-0.406
-158.735	4.137	0.240	-0.174
-157.720	243.433	-0.202	0.336
-156.706	144.385	-0.176	0.233
-155.691	800.000	0.026	0.080
-154.677	800.000	-0.019	-0.058
-153.662	-200.000	-0.006	0.207
-152.647	-200.000	0.010	-0.102
-151.633	-200.000	0.017	0.091
-150.618	-169.675	0.382	-0.014
-149.604	-25.717	0.201	0.118
-148.589	-125.790	0.215	-0.032
-147.574	34.928	-0.185	0.160
-146.560	115.089	0.221	0.268
-145.545	-136.496	0.271	0.031
-144.531	67.322	0.222	0.225
-143.516	-125.764	-0.026	0.004
-142.502	-98.057	-0.263	0.067
-141.487	95.782	-0.161	0.182
-140.472	216.392	0.152	0.239
-139.458	442.869	-0.093	-0.203
-138.443	95.145	0.216	-0.244
-137.429	-200.000	-0.035	-0.157
-136.414	68.584	-0.107	-0.108
-135.399	111.278	0.079	-0.094
-134.385	-182.126	0.381	0.007
-133.370	-29.078	-0.337	-0.192
-132.356	-200.000	0.005	0.099
-131.341	82.748	0.175	0.189
-130.326	141.061	0.180	-0.236
-129.312	800.000	0.060	0.231
-128.297	50.843	0.383	-0.360
-127.283	800.000	-0.073	0.226
-126.268	-73.209	-0.147	0.053
-125.253	53.967	0.179	0.170
-124.239	-76.980	0.335	-0.116
-123.224	226.643	-0.095	-0.153
-122.210	-200.000	0.018	0.221
-121.195	331.564	-0.104	0.199
-120.180	-41.979	0.294	0.149
-119.166	49.925	0.137	-0.128
-118.151	139.466	-0.096	0.125
-117.137	-200.000	-0.027	-0.237
-116.122	-200.000	0.236	0.001
-115.107	-95.388	-0.258	-0.069
-114.093	800.000	0.013	0.039
-113.078	625.484	0.108	0.271
-112.064	-123.888	0.269	-0.042
-111.049	-200.000	-0.052	-0.261
-110.034	-200.000	0.002	-0.073
-109.020	31.579	-0.160	0.136
-108.005	210.829	0.099	-0.154
-106.991	37.503	0.171	0.150
-105.976	-200.000	0.023	0.260
-104.962	-74.991	-0.117	0.041
-103.947	49.665	-0.252	0.235
-102.932	101.104	-0.174	0.200
-101.918	53.654	-0.249	0.236
-100.903	487.089	-0.043	-0.096
-99.889	96.288	-0.238	0.270
-98.874	148.921	-0.075	0.101
-97.859	49.985	0.034	-0.032
-96.845	-5.602	-0.106	-0.072
-95.830	-83.919	0.035	-0.011
-94.816	614.983	-0.150	-0.371
-93.801	-200.000	-0.035	-0.161
-92.786	18.377	-0.054	-0.043
-91.772	118.710	-0.146	0.178
-90.757	98.755	0.294	0.336
-89.743	-1.147	0.061	-0.043
-88.728	-121.311	0.254	-0.042
-87.713	-200.000	0.070	0.332
-86.699	29.256	0.061	0.051
-85.684	37.037	0.237	0.207
-84.670	58.107	0.021	0.020
-83.655	729.865	0.084	0.221
-82.640	-25.499	-0.280	0.164
-81.626	-17.438	0.193	-0.120
-80.611	800.000	-0.042	0.160
-79.597	73.138	-0.151	0.156
-78.582	700.628	0.051	0.133
-77.567	202.558	0.060	0.092
-76.553	-164.758	0.273	-0.012
-75.538	-200.000	0.101	-0.507
-74.524	23.636	0.266	0.217
-73.509	421.456	0.140	0.297
-72.494	-168.064	0.533	0.021
-71.480	-19.324	0.340	-0.208
-70.465	70.889	-0.178	0.183
-69.451	464.383	0.080	-0.177
-68.436	-31.311	-0.187	-0.104
-67.422	265.790	0.070	-0.120
-66.407	-177.391	0.190	0.005
-65.392	87.210	-0.121	0.132
-64.378	-111.052	0.273	-0.055
-63.363	-200.000	0.009	0.243
-62.349	-64.505	0.210	-0.084
-61.334	-28.051	-0.744	-0.426
-60.319	82.195	0.365	0.391
-59.305	550.781	-0.381	-0.903
-58.290	554.522	0.422	1.004
-57.276	793.684	0.608	1.654
-56.261	-200.000	96.808	552.160
-55.246	500.045	1422.432	3241.129
-54.232	142.979	2659.851	3494.174
-53.217	110.481	2230.286	2648.253
-52.203	45.741	1667.163	1522.352
-51.188	37.424	1396.463	1223.073
-50.173	34.195	1353.344	1165.528
-49.159	54.457	1402.158	1334.329
-48.144	58.348	1420.693	1376.160
-47.130	37.717	1374.909	1205.820
-46.115	34.247	1356.496	1168.381
-45.100	34.027	1352.071	1163.173
-44.086	33.930	1349.930	1160.696
-43.071	33.900	1347.474	1158.356
-42.057	33.899	1345.217	1156.365
-41.042	33.954	1343.338	1155.033
-40.027	33.960	1341.803	1153.703
-39.013	33.933	1340.175	1152.096
-37.998	34.057	1337.685	1150.662
-36.984	34.053	1336.152	1149.273
-35.969	34.064	1334.493	1147.865
-34.954	34.103	1332.861	1146.650
-33.940	34.164	1331.331	1145.659
-32.925	34.132	1330.281	1144.518
-31.911	34.216	1328.670	1143.591
-30.896	34.199	1326.846	1141.869
-29.881	34.250	1325.495	1140.969
-28.867	34.191	1324.390	1139.621
-27.852	34.087	1323.214	1137.939
-26.838	34.227	1321.390	1137.163
-25.823	34.160	1320.075	1135.585
-24.809	34.184	1318.734	1134.530
-23.794	34.222	1317.284	1133.467
-22.779	34.108	1316.025	1131.661
-21.765	34.198	1314.668	1130.979
-20.750	34.075	1313.329	1129.052
-19.736	33.916	1312.151	1127.057
-18.721	34.007	1310.761	1126.355
-17.706	34.082	1309.056	1125.289
-16.692	33.918	1308.486	1123.782
-15.677	33.973	1307.034	1122.817
-14.663	33.976	1306.005	1121.904
-13.648	33.981	1304.814	1120.870
-12.633	33.963	1303.754	1119.804
-11.619	33.950	1303.170	1119.182
-10.604	34.035	1301.716	1118.390
-9.590	34.021	1301.057	1117.700
-8.575	33.988	1300.131	1116.666
-7.560	34.091	1299.089	1116.331
-6.546	33.919	1298.640	1114.891
-5.531	33.904	1297.403	1113.694
-4.517	33.944	1296.597	1113.195
-3.502	33.977	1295.566	1112.456
-2.487	34.012	1294.413	1111.631
-1.473	33.991	1291.120	1108.634
-0.458	33.253	1277.068	1092.269
0.556	29.630	1258.975	1055.418
1.571	25.152	1264.176	1033.933
2.586	23.373	1278.625	1035.271
3.600	21.831	1266.660	1016.562
4.615	15.574	1189.092	920.065
5.629	5.938	1108.711	808.375
6.644	1.460	1086.748	769.650
7.659	1.030	1084.455	765.784
8.673	1.021	1083.005	764.648
9.688	1.089	1081.893	764.135
10.702	1.147	1080.838	763.614
11.717	5.940	1086.737	791.939
12.731	13.440	1096.730	837.215
13.746	17.108	1100.403	858.523
14.761	17.398	1101.236	860.568
15.775	16.906	1099.272	856.469
16.790	15.881	1097.094	849.527
17.804	15.260	1095.315	844.949
18.819	14.795	1094.283	841.732
19.834	14.511	1093.078	839.306
20.848	14.235	1092.228	837.187
21.863	14.030	1091.118	835.233
22.877	13.905	1090.299	833.905
23.892	13.797	1089.590	832.749
24.907	13.764	1089.259	832.254
25.921	13.862	1088.156	831.832
26.936	13.847	1087.166	830.923
27.950	13.940	1086.687	830.950
28.965	13.919	1085.139	829.585
29.980	13.979	1083.570	828.613
30.994	14.027	1082.816	828.205
32.009	14.056	1081.551	827.306
33.023	14.122	1080.593	826.830
34.038	13.950	1079.839	825.326
35.053	14.063	1078.174	824.539
36.067	13.975	1077.743	823.702
37.082	13.993	1077.004	823.150
38.096	13.972	1076.560	822.635
39.111	14.038	1075.161	821.822
40.126	13.905	1074.775	820.796
41.140	13.871	1073.517	819.592
42.155	13.805	1072.129	818.135
43.169	13.901	1070.818	817.535
44.184	13.900	1069.992	816.826
45.199	13.887	1069.325	816.185
46.213	13.906	1067.978	815.176
47.228	13.874	1066.726	813.993
48.242	13.965	1065.557	813.472
49.257	13.890	1064.943	812.566
50.271	13.900	1063.688	811.587
51.286	13.978	1063.105	811.451
52.301	13.809	1062.128	809.808
53.315	13.890	1060.753	809.083
54.330	13.780	1060.389	808.198
55.344	13.931	1058.822	807.663
56.359	13.836	1058.136	806.609
57.374	13.950	1057.338	806.482
58.388	13.885	1056.422	805.397
59.403	13.828	1055.623	804.438
60.417	13.818	1054.654	803.582
61.432	13.869	1054.022	803.278
62.447	13.825	1053.229	802.388
63.461	13.778	1052.270	801.362
64.476	13.806	1051.465	800.811
65.490	13.827	1050.789	800.325
66.505	13.857	1049.940	799.753
67.520	13.940	1049.209	799.525
68.534	13.921	1048.443	798.782
69.549	13.831	1047.804	797.790
70.563	13.801	1047.210	797.121
71.578	13.763	1046.374	796.232
72.593	13.917	1045.024	795.876
73.607	13.722	1045.212	795.012
74.622	13.792	1044.055	794.397
75.636	13.790	1043.083	793.579
76.651	13.747	1042.647	792.969
77.666	13.761	1041.786	792.314
78.680	13.758	1041.186	791.774
79.695	13.814	1040.712	791.608
80.709	13.687	1040.252	790.583
81.724	13.837	1039.259	790.472
82.739	13.869	1038.578	790.038
83.753	14.006	1037.323	789.661
84.768	14.046	1036.229	788.952
85.782	14.013	1035.669	788.296
86.797	13.928	1034.919	787.253
87.812	13.953	1033.977	786.587
88.826	13.938	1033.106	785.782
89.841	13.914	1032.159	784.882
90.855	13.911	1031.223	784.085
91.870	13.897	1030.762	783.599
92.884	14.019	1029.764	783.344
93.899	14.026	1028.997	782.727
94.914	13.972	1027.823	781.508
95.928	13.995	1026.873	780.828
96.943	14.024	1026.045	780.266
97.957	13.976	1025.635	779.657
98.972	13.998	1024.284	778.664
99.987	14.092	1023.440	778.396
101.001	13.977	1022.785	777.288
102.016	14.019	1021.804	776.673
103.030	13.923	1021.175	775.675
104.045	14.026	1020.426	775.521
105.060	13.901	1019.734	774.344
106.074	13.985	1018.241	773.532
107.089	13.970	1017.579	772.887
108.103	13.929	1016.399	771.735
109.118	13.916	1015.957	771.270
110.133	13.875	1014.683	770.046
111.147	13.910	1014.083	769.682
112.162	13.886	1012.903	768.607
113.176	14.063	1012.028	768.697
114.191	14.083	1011.771	768.524
115.206	14.052	1010.497	767.344
116.220	14.040	1009.763	766.664
117.235	14.003	1008.929	765.793
118.249	13.993	1008.314	765.214
119.264	14.004	1007.031	764.221
120.279	13.835	1007.037	763.383
121.293	14.001	1005.842	763.171
122.308	13.914	1005.111	762.149
123.322	14.044	1003.916	761.773
124.337	13.965	1002.683	760.405
125.352	13.924	1001.579	759.316
126.366	13.966	1000.870	758.901
127.381	14.032	999.710	758.256
128.395	13.968	999.193	757.505
129.410	14.010	998.028	756.745
130.424	14.088	997.001	756.255
131.439	14.077	996.360	755.652
132.454	14.086	995.388	754.888
133.468	14.118	994.597	754.368
134.483	14.089	993.478	753.323
135.497	14.060	992.819	752.626
136.512	14.289	991.766	752.793
137.527	14.104	991.226	751.483
138.541	14.065	990.570	750.742
139.556	14.143	990.169	750.723
140.570	14.158	989.146	749.951
141.585	14.222	988.460	749.649
142.600	14.184	987.371	748.589
143.614	14.106	986.652	747.627
144.629	14.241	985.561	747.339
145.643	14.250	984.222	746.299
146.658	14.180	983.348	745.257
147.673	14.092	982.728	744.327
148.687	14.071	982.463	743.965
149.702	14.215	981.018	743.449
150.716	14.067	980.226	742.124
151.731	14.071	979.843	741.785
152.746	14.079	978.986	741.108
153.760	14.108	978.455	740.770
154.775	14.219	977.495	740.467
155.789	14.281	977.122	740.397
156.804	14.244	976.059	739.363
157.819	14.290	975.166	738.822
158.833	14.348	974.846	738.775
159.848	14.341	973.834	737.909
160.862	14.308	973.017	737.077
161.877	14.223	972.107	735.949
162.892	14.227	971.358	735.335
163.906	14.254	970.244	734.547
164.921	14.310	969.327	734.034
165.935	14.218	968.520	732.950
166.950	14.323	967.345	732.459
167.964	14.326	966.675	731.900
168.979	14.362	965.790	731.326
169.994	14.324	964.721	730.284
171.008	14.391	964.384	730.257
172.023	14.403	963.595	729.649
173.037	14.365	962.847	728.849
174.052	14.375	962.058	728.231
175.067	14.306	961.435	727.393
176.081	14.435	961.030	727.585
177.096	14.382	960.530	726.914
178.110	14.500	959.523	726.603
179.125	14.373	958.929	725.534
180.140	14.366	958.514	725.124
181.154	14.366	958.328	724.919
182.169	14.464	957.977	725.017
183.183	14.464	957.092	724.283
184.198	14.567	956.294	724.064
185.213	14.509	955.166	722.894
186.227	14.535	954.386	722.351
187.242	14.531	953.925	721.919
188.256	14.685	953.340	722.078
189.271	14.590	952.395	720.892
190.286	14.488	951.951	720.050
191.300	14.534	951.325	719.710
192.315	14.532	950.642	719.121
193.329	14.642	950.117	719.135
194.344	14.616	949.190	718.256
195.359	14.617	948.719	717.845
196.373	14.620	947.908	717.180
197.388	14.591	947.369	716.584
198.402	14.679	946.680	716.377
199.417	14.845	946.209	716.668
200.432	14.828	945.418	715.931
201.446	14.816	944.986	715.490
202.461	14.896	944.580	715.462
203.475	14.903	943.904	714.916
204.490	14.793	943.534	714.103
205.504	14.853	942.158	713.255
206.519	14.874	941.740	712.965
207.534	14.854	941.138	712.360
208.548	14.837	940.676	711.873
209.563	14.802	939.923	711.094
210.577	14.933	939.065	710.936
211.592	14.912	938.315	710.216
212.607	14.998	937.582	709.965
213.621	14.938	936.954	709.175
214.636	14.955	936.023	708.478
215.650	14.943	935.307	707.824
216.665	15.088	934.228	707.557
217.680	15.090	933.631	707.049
218.694	15.121	933.094	706.711
219.709	14.919	932.706	705.504
220.723	15.150	932.048	705.916
221.738	15.213	930.542	704.979
222.753	15.141	930.170	704.333
223.767	15.051	929.808	703.614
224.782	15.191	929.273	703.735
225.796	15.176	928.874	703.309
226.811	15.211	928.164	702.855
227.826	15.120	927.396	701.832
228.840	15.217	926.384	701.410
229.855	15.024	925.762	700.069
230.869	15.161	924.800	699.851
231.884	15.269	923.673	699.390
232.899	15.072	923.691	698.516
233.913	15.216	922.194	697.923
234.928	15.237	922.008	697.810
235.942	15.246	921.088	697.087
236.957	15.300	920.581	696.865
237.972	15.204	920.145	696.079
238.986	15.146	919.881	695.573
240.001	15.228	919.045	695.221
241.015	15.167	918.305	694.348
242.030	15.232	917.898	694.248
243.045	15.258	917.044	693.647
244.059	15.337	916.157	693.244
245.074	15.414	915.272	692.829
246.088	15.353	914.924	692.253
247.103	15.377	914.195	691.740
248.117	15.493	913.837	691.886
249.132	15.427	913.630	691.396
250.147	15.502	912.510	690.792
251.161	15.424	911.937	689.979
252.176	15.551	911.246	689.915
253.190	15.646	910.270	689.504
254.205	15.606	909.942	689.034
255.220	15.630	908.963	688.329
256.234	15.668	908.560	688.119
257.249	15.748	907.752	687.771
258.263	15.639	907.024	686.717
259.278	15.781	906.185	686.599
260.293	15.857	905.180	686.085
261.307	15.816	905.123	685.816
262.322	15.788	904.777	685.380
263.336	15.846	903.703	684.740
264.351	15.979	902.643	684.415
265.366	15.828	902.363	683.531
266.380	15.897	901.621	683.189
267.395	15.919	900.939	682.702
268.409	15.923	900.250	682.134
269.424	15.824	899.471	681.083
270.439	15.733	898.857	680.191
271.453	15.959	898.206	680.551
272.468	15.806	897.589	679.405
273.482	15.788	897.443	679.160
274.497	15.920	896.583	678.982
275.512	15.916	895.649	678.199
276.526	15.904	895.106	677.679
277.541	16.085	894.967	678.241
278.555	16.034	894.126	677.341
279.570	16.072	893.440	676.912
280.585	16.082	892.480	676.167
281.599	16.064	891.837	675.545
282.614	15.900	891.592	674.645
283.628	16.000	890.772	674.366
284.643	16.126	889.777	674.053
285.657	16.137	889.323	673.696
286.672	16.044	888.701	672.794
287.687	16.273	887.985	673.104
288.701	16.168	887.710	672.420
289.716	16.314	886.998	672.403
290.730	16.128	886.675	671.357
291.745	16.110	885.986	670.703
292.760	16.290	884.789	670.454
293.774	16.275	884.496	670.113
294.789	16.266	883.654	669.381
295.803	16.415	882.908	669.344
296.818	16.310	882.425	668.504
297.833	16.303	881.475	667.699
298.847	16.388	880.990	667.606
299.862	16.335	880.597	667.041
300.876	16.229	880.209	666.267
301.891	16.456	879.342	666.448
302.906	16.433	878.593	665.731
303.920	16.434	878.059	665.271
304.935	16.498	877.831	665.291
305.949	16.680	876.849	665.203
306.964	16.539	876.407	664.256
307.979	16.565	876.054	664.033
308.993	16.607	875.368	663.619
310.008	16.452	874.405	662.224
311.022	16.598	873.882	662.338
312.037	16.527	873.363	661.611
313.052	16.460	873.056	661.057
314.066	16.589	871.885	660.617
315.081	16.524	871.382	659.922
316.095	16.632	870.898	659.916
317.110	16.539	870.694	659.342
318.125	16.516	870.283	658.885
319.139	16.513	869.975	658.582
320.154	16.674	868.864	658.308
321.168	16.684	868.256	657.827
322.183	16.673	867.856	657.425
323.197	16.562	867.752	656.855
324.212	16.629	866.594	656.181
325.227	16.679	866.077	655.926
326.241	16.627	865.894	655.528
327.256	16.723	864.720	654.952
328.270	16.786	864.224	654.762
329.285	16.636	863.737	653.756
330.300	16.744	863.125	653.651
331.314	16.788	862.894	653.587
332.329	16.799	862.217	653.058
333.343	16.792	861.689	652.576
334.358	16.655	861.652	651.961
335.373	16.694	861.146	651.671
336.387	16.802	860.577	651.598
337.402	16.844	860.598	651.718
338.416	16.892	859.885	651.304
339.431	17.023	859.206	651.234
340.446	17.040	858.702	650.863
341.460	16.948	858.803	650.529
342.475	17.025	857.908	650.086
343.489	16.997	857.626	649.710
344.504	17.150	857.294	649.983
345.519	17.061	856.869	649.264
346.533	17.088	856.295	648.873
347.548	17.045	855.561	648.097
348.562	17.182	855.060	648.184
349.577	17.137	854.495	647.525
350.592	17.082	853.688	646.646
351.606	17.063	853.050	646.036
352.621	17.111	852.431	645.692
353.635	17.111	851.881	645.220
354.650	17.339	850.628	645.077
355.665	17.207	850.696	644.571
356.679	17.042	850.015	643.373
357.694	17.196	849.239	643.310
358.708	17.339	848.570	643.290
359.723	17.238	848.273	642.625
360.738	17.303	847.593	642.298
361.752	17.218	846.712	641.252
362.767	17.305	846.510	641.372
363.781	17.326	846.071	641.061
364.796	17.452	845.420	640.984
365.810	17.363	845.051	640.313
366.825	17.360	844.832	640.081
367.840	17.453	844.137	639.848
368.854	17.565	843.422	639.668
369.869	17.425	843.156	638.883
370.883	17.487	842.564	638.613
371.898	17.473	842.558	638.499
372.913	17.457	842.132	638.058
373.927	17.545	841.401	637.777
374.942	17.418	840.903	636.868
375.956	17.480	840.789	636.960
376.971	17.656	839.839	636.842
377.986	17.658	839.554	636.576
379.000	17.577	839.060	635.843
380.015	17.694	838.474	635.779
381.029	17.601	837.908	634.948
382.044	17.704	837.354	634.852
383.059	17.810	836.946	634.883
384.073	17.731	836.331	634.068
385.088	17.844	835.314	633.658
386.102	17.670	834.842	632.599
387.117	17.730	834.473	632.486
388.132	17.764	833.623	631.912
389.146	17.860	833.126	631.835
390.161	17.798	832.991	631.446
391.175	17.666	832.541	630.560
392.190	17.669	832.058	630.150
393.205	17.805	831.555	630.215
394.219	17.787	831.274	629.881
395.234	17.811	830.729	629.500
396.248	17.680	830.548	628.823
397.263	17.990	829.338	628.995
398.278	17.970	829.399	628.913
399.292	18.008	828.914	628.627
400.307	17.941	828.549	628.050
401.321	17.806	827.967	627.058
402.336	17.954	827.251	627.004
403.350	18.049	826.963	627.077
404.365	17.879	826.648	626.161
405.380	17.958	825.661	625.646
406.394	17.949	825.477	625.416
407.409	17.923	825.397	625.205
408.423	18.022	824.839	625.090
409.438	18.176	824.526	625.361
410.453	18.173	823.843	624.775
411.467	18.186	823.492	624.504
412.482	18.275	823.208	624.557
413.496	18.238	822.503	623.832
414.511	18.171	822.491	623.523
415.526	18.047	822.132	622.743
416.540	18.166	821.664	622.770
417.555	18.193	820.828	622.176
418.569	18.339	820.092	622.094
419.584	18.250	820.067	621.699
420.599	18.389	819.513	621.727
421.613	105.959	1286.648	1446.147
422.628	91.641	1354.698	1446.252
