DTS Sentinel unit serial number:	SN413079Multiplexer serial number:	ORYXHardware model number:	OX4-SRSoftware version number:	ORYX F/W v4.00 Oryx Data Collector v3.7.2.0data status	okinstallation	princeton_trtdifferential loss correction	single-endedforward channel	channel 1reverse channel	N/Adate	2019/09/16time	03:58:35forward acquisition time	60.00reverse acquisition time	0.00gamma	496.2192k internal	0.2331k external	0.2331temperature offset calibration	0.9981default loss term (dB/km)	0.3790temperature slope calibration	1.0000multiplexer offset coefficient	1.0000multiplexer slope coefficient	1.0000fibre end	0.00T internal ref (°C)	27.50T ext. ref 1 (°C)	10.70T ext. ref 2 (°C)	21.51length (m)	temperature (°C)	Stokes	anti-Stokes-747.200	177.855	0.106	-0.155
-746.185	-51.001	0.179	0.084
-745.171	166.392	-0.017	-0.025
-744.156	-10.989	-0.194	0.129
-743.142	-61.525	-0.058	-0.024
-742.127	-11.907	-0.299	0.197
-741.112	53.434	0.231	0.223
-740.098	23.919	-0.061	0.050
-739.083	36.178	0.395	0.350
-738.069	-163.656	0.112	0.005
-737.054	673.042	0.028	-0.072
-736.039	-2.924	-0.090	0.063
-735.025	-178.503	0.407	-0.009
-734.010	-31.465	-0.362	-0.205
-732.996	120.688	-0.232	-0.290
-731.981	-200.000	-0.018	-0.434
-730.966	-200.000	0.001	0.110
-729.952	10.207	-0.125	0.095
-728.937	-135.850	-0.053	0.006
-727.923	80.857	-0.113	0.122
-726.908	-23.291	-0.333	-0.202
-725.894	-161.982	0.255	-0.013
-724.879	-31.878	0.220	-0.124
-723.864	300.197	-0.104	-0.193
-722.850	-132.893	-0.089	-0.011
-721.835	-85.299	0.185	0.058
-720.821	-89.025	0.093	0.028
-719.806	-139.133	-0.147	-0.016
-718.791	-42.981	0.152	-0.078
-717.777	-97.305	-0.300	0.079
-716.762	-85.321	-0.372	0.117
-715.748	796.116	-0.068	-0.187
-714.733	533.861	0.153	0.364
-713.718	800.000	-0.025	0.106
-712.704	-106.664	0.214	0.048
-711.689	47.769	-0.042	0.040
-710.675	-200.000	0.046	-0.251
-709.660	800.000	-0.014	0.043
-708.645	800.000	0.025	0.097
-707.631	142.954	0.088	0.117
-706.616	-159.655	-0.114	-0.006
-705.602	33.406	0.098	-0.086
-704.587	-200.000	0.016	0.083
-703.572	-200.000	-0.002	0.166
-702.558	-200.000	-0.019	0.163
-701.543	-137.384	-0.095	0.011
-700.529	800.000	0.058	-0.236
-699.514	-200.000	0.018	0.161
-698.499	-126.272	-0.073	0.011
-697.485	134.497	-0.180	-0.235
-696.470	-143.195	-0.189	0.018
-695.456	57.044	0.086	0.085
-694.441	227.301	0.162	-0.265
-693.426	-200.000	0.005	-0.092
-692.412	-38.621	-0.418	0.222
-691.397	-65.408	-0.185	-0.075
-690.383	-200.000	-0.052	-0.351
-689.368	165.717	0.314	0.446
-688.354	97.963	0.129	0.149
-687.339	-138.256	0.192	0.021
-686.324	-21.376	-0.161	-0.099
-685.310	-14.289	-0.307	-0.198
-684.295	-129.432	-0.018	-0.003
-683.281	-183.427	-0.284	-0.005
-682.266	-200.000	-0.008	0.104
-681.251	-200.000	0.011	-0.080
-680.237	-169.429	-0.231	0.008
-679.222	-200.000	-0.001	0.064
-678.208	-200.000	0.034	-0.225
-677.193	11.842	-0.098	-0.076
-676.178	-200.000	0.020	-0.197
-675.164	-32.388	-0.037	0.021
-674.149	-149.072	0.403	0.033
-673.135	800.000	0.025	-0.082
-672.120	-200.000	0.001	-0.155
-671.105	18.668	-0.202	0.162
-670.091	209.323	-0.113	-0.178
-669.076	8.900	-0.140	0.106
-668.062	800.000	0.031	-0.098
-667.047	800.000	0.044	-0.141
-666.032	11.236	-0.162	0.124
-665.018	-200.000	-0.030	-0.474
-664.003	125.381	-0.171	-0.216
-662.989	11.648	-0.281	0.216
-661.974	702.587	0.030	-0.079
-660.959	309.769	-0.108	-0.202
-659.945	227.617	-0.066	0.107
-658.930	-63.742	-0.280	-0.115
-657.916	44.932	-0.142	-0.131
-656.901	-103.536	-0.483	0.114
-655.886	800.000	0.022	-0.080
-654.872	-45.777	-0.273	-0.135
-653.857	265.095	0.085	-0.149
-652.843	-200.000	-0.012	-0.059
-651.828	282.640	-0.078	0.141
-650.814	215.970	-0.077	0.123
-649.799	89.871	0.120	-0.134
-648.784	-127.050	-0.141	0.021
-647.770	-56.746	0.333	-0.147
-646.755	37.123	-0.180	-0.160
-645.741	-31.960	0.203	0.114
-644.726	126.362	0.064	0.081
-643.711	60.298	0.234	-0.232
-642.697	-9.603	0.234	0.156
-641.682	-184.583	0.185	0.003
-640.668	678.550	0.084	0.219
-639.653	-114.852	-0.282	-0.054
-638.638	-17.537	-0.286	0.180
-637.624	-76.055	0.168	-0.059
-636.609	77.318	0.033	-0.035
-635.595	255.690	0.128	0.219
-634.580	-88.973	0.434	0.129
-633.565	52.719	0.048	0.046
-632.551	800.000	0.012	-0.035
-631.536	276.518	0.110	-0.196
-630.522	-200.000	0.034	0.155
-629.507	-11.821	-0.072	0.047
-628.492	-61.554	0.230	-0.097
-627.478	-25.398	-0.024	0.014
-626.463	19.326	0.155	-0.125
-625.449	800.000	0.061	-0.260
-624.434	458.549	-0.182	0.404
-623.419	800.000	-0.124	-0.436
-622.405	-62.603	0.297	0.123
-621.390	-34.562	0.074	0.041
-620.376	-136.364	-0.260	-0.030
-619.361	-200.000	-0.044	0.209
-618.346	-127.363	-0.169	-0.025
-617.332	-10.701	-0.280	-0.185
-616.317	-107.730	0.250	0.055
-615.303	800.000	0.046	-0.145
-614.288	274.835	0.075	0.134
-613.273	-200.000	0.000	0.141
-612.259	800.000	0.036	0.131
-611.244	48.814	0.179	-0.168
-610.230	-49.052	-0.155	-0.074
-609.215	-127.159	-0.173	0.025
-608.201	-15.466	0.209	-0.134
-607.186	201.247	-0.032	-0.049
-606.171	-93.210	0.192	0.053
-605.157	-0.693	-0.196	0.139
-604.142	-112.808	-0.368	-0.073
-603.128	-47.584	-0.292	-0.142
-602.113	297.290	0.092	-0.170
-601.098	77.204	0.121	-0.128
-600.084	-109.646	-0.216	-0.045
-599.069	-200.000	0.043	0.294
-598.055	32.480	-0.095	-0.082
-597.040	75.113	-0.008	-0.008
-596.025	361.212	-0.123	0.247
-595.011	11.529	0.301	-0.231
-593.996	-142.148	-0.233	0.023
-592.982	-200.000	-0.001	-0.183
-591.967	-141.268	0.014	-0.001
-590.952	128.980	-0.129	0.165
-589.938	-39.517	0.048	0.025
-588.923	-182.496	-0.106	0.002
-587.909	148.523	0.180	-0.243
-586.894	800.000	0.001	0.005
-585.879	-34.598	-0.101	-0.055
-584.865	800.000	-0.079	0.279
-583.850	24.965	-0.182	-0.151
-582.836	800.000	0.061	-0.223
-581.821	-200.000	-0.024	-0.184
-580.806	-200.000	-0.015	-0.264
-579.792	800.000	-0.028	-0.115
-578.777	-117.283	0.291	0.053
-577.763	359.040	0.161	0.321
-576.748	14.786	-0.249	0.195
-575.733	-79.615	-0.160	0.054
-574.719	-18.089	0.042	0.026
-573.704	-115.718	0.096	-0.018
-572.690	136.571	0.106	0.138
-571.675	-97.938	0.239	0.062
-570.661	800.000	-0.110	-0.348
-569.646	-15.254	0.166	-0.106
-568.631	44.561	0.084	-0.077
-567.617	97.806	0.137	0.158
-566.602	231.656	0.210	0.344
-565.588	86.517	0.116	0.128
-564.573	-200.000	-0.058	0.424
-563.558	-200.000	0.010	-0.213
-562.544	-194.475	0.276	-0.002
-561.529	800.000	-0.021	0.059
-560.515	-0.345	-0.160	0.114
-559.500	86.327	-0.119	-0.131
-558.485	800.000	-0.077	0.222
-557.471	800.000	0.061	-0.230
-556.456	-57.065	-0.179	0.079
-555.442	-150.835	-0.532	0.040
-554.427	640.351	-0.052	-0.132
-553.412	-180.892	-0.120	-0.002
-552.398	-93.656	-0.259	0.071
-551.383	-200.000	-0.021	0.195
-550.369	-154.251	0.099	0.007
-549.354	-115.132	0.518	-0.098
-548.339	-32.008	-0.158	0.088
-547.325	-200.000	0.004	0.039
-546.310	504.389	-0.180	-0.416
-545.296	-171.787	0.180	0.006
-544.281	800.000	-0.027	-0.119
-543.266	-32.145	0.027	-0.015
-542.252	-200.000	0.026	-0.243
-541.237	145.158	0.039	-0.052
-540.223	-109.034	-0.114	0.024
-539.208	-129.938	0.018	0.002
-538.193	-51.873	-0.172	-0.080
-537.179	-107.668	0.374	0.082
-536.164	274.524	0.161	-0.284
-535.150	-1.246	0.178	-0.126
-534.135	-200.000	0.010	-0.304
-533.121	-149.092	0.229	0.018
-532.106	94.446	-0.242	-0.274
-531.091	87.498	0.133	-0.147
-530.077	-200.000	0.011	-0.141
-529.062	204.339	0.142	0.219
-528.048	175.761	0.147	0.212
-527.033	-146.572	-0.174	0.015
-526.018	-113.366	-0.227	-0.044
-525.004	-183.064	0.489	-0.009
-523.989	800.000	0.066	0.239
-522.975	800.000	-0.126	-0.416
-521.960	57.276	0.051	-0.050
-520.945	525.960	-0.089	0.210
-519.931	800.000	-0.016	0.068
-518.916	-200.000	0.022	0.281
-517.902	800.000	-0.062	0.221
-516.887	70.773	0.127	0.131
-515.872	-38.447	0.263	-0.139
-514.858	497.057	0.054	-0.124
-513.843	800.000	-0.077	0.230
-512.829	-114.770	0.225	0.043
-511.814	78.294	0.298	-0.317
-510.799	800.000	-0.091	0.272
-509.785	-45.037	-0.065	-0.032
-508.770	266.470	0.126	0.219
-507.756	-166.291	0.243	-0.010
-506.741	-200.000	0.012	-0.180
-505.726	-124.980	-0.056	0.009
-504.712	800.000	0.090	0.294
-503.697	137.679	-0.107	-0.139
-502.683	308.407	-0.045	0.083
-501.668	-110.540	-0.240	0.050
-500.653	-37.851	0.080	0.043
-499.639	-124.274	-0.160	0.025
-498.624	-174.528	-0.373	0.011
-497.610	-88.024	0.255	-0.076
-496.595	56.107	0.153	-0.148
-495.581	78.846	0.146	0.155
-494.566	-123.833	0.280	-0.044
-493.551	-200.000	-0.047	0.000
-492.537	511.986	0.146	-0.338
-491.522	-59.245	0.078	0.034
-490.508	-26.590	-0.154	-0.090
-489.493	-177.796	0.117	-0.003
-488.478	-200.000	0.002	0.128
-487.464	209.542	0.100	-0.156
-486.449	-200.000	-0.013	0.252
-485.435	-20.613	-0.281	0.172
-484.420	-132.186	0.409	-0.053
-483.405	800.000	0.113	0.347
-482.391	444.261	0.142	-0.309
-481.376	18.203	-0.067	-0.053
-480.362	-153.655	-0.299	-0.021
-479.347	-46.159	0.319	0.156
-478.332	800.000	-0.126	0.438
-477.318	98.102	-0.171	-0.196
-476.303	-62.495	-0.160	-0.066
-475.289	-200.000	0.057	0.301
-474.274	50.501	-0.099	-0.093
-473.259	-105.425	0.235	-0.053
-472.245	110.436	-0.117	-0.140
-471.230	-200.000	0.032	0.174
-470.216	-148.062	0.393	0.032
-469.201	-22.398	-0.149	0.090
-468.186	-67.967	0.167	-0.065
-467.172	-20.920	-0.065	0.040
-466.157	-124.964	-0.221	0.034
-465.143	551.839	0.104	0.249
-464.128	-22.751	0.090	-0.054
-463.113	-143.587	0.303	0.029
-462.099	86.965	0.300	-0.329
-461.084	-72.327	-0.240	0.088
-460.070	-200.000	0.012	0.221
-459.055	363.570	-0.127	0.253
-458.040	-97.960	0.270	-0.069
-457.026	-87.028	-0.449	-0.136
-456.011	65.696	0.232	-0.234
-454.997	-94.596	0.198	-0.054
-453.982	-200.000	-0.017	-0.178
-452.968	-10.373	0.073	-0.048
-451.953	-129.428	0.115	0.016
-450.938	-200.000	-0.008	-0.066
-449.924	-157.541	-0.185	-0.011
-448.909	505.434	0.071	-0.163
-447.895	469.157	-0.139	0.311
-446.880	-101.704	0.053	-0.013
-445.865	-200.000	0.031	0.141
-444.851	254.572	-0.092	0.157
-443.836	800.000	-0.060	0.203
-442.822	81.922	-0.069	-0.074
-441.807	413.551	0.043	-0.092
-440.792	134.751	-0.086	-0.111
-439.778	-45.207	0.200	-0.099
-438.763	-200.000	-0.046	0.200
-437.749	239.162	0.092	-0.153
-436.734	93.443	0.334	-0.376
-435.719	-61.555	0.229	-0.096
-434.705	-200.000	-0.011	-0.174
-433.690	162.791	-0.082	0.114
-432.676	-134.396	-0.506	-0.062
-431.661	-68.672	-0.055	0.021
-430.646	800.000	0.044	-0.173
-429.632	124.951	0.240	-0.301
-428.617	-25.205	-0.165	0.097
-427.603	-22.528	-0.338	-0.203
-426.588	163.155	0.271	0.379
-425.573	-80.953	-0.053	0.017
-424.559	800.000	0.031	0.122
-423.544	-4.268	0.147	-0.101
-422.530	514.963	0.148	0.344
-421.515	-120.022	-0.453	-0.077
-420.500	-57.570	0.231	-0.101
-419.486	339.333	0.054	-0.105
-418.471	11.095	0.113	0.086
-417.457	94.952	-0.358	-0.404
-416.442	283.045	0.240	-0.429
-415.428	442.124	0.055	0.120
-414.413	417.313	0.274	0.581
-413.398	-169.518	-0.162	0.006
-412.384	27.463	-0.149	0.124
-411.369	32.485	-0.063	0.054
-410.355	98.649	0.083	-0.096
-409.340	101.852	0.173	-0.201
-408.325	426.942	0.048	-0.103
-407.311	635.057	0.115	0.289
-406.296	128.094	0.060	-0.075
-405.282	-200.000	-0.258	0.000
-404.267	393.984	-0.089	-0.184
-403.252	-104.360	-0.332	0.076
-402.238	380.800	-0.104	0.213
-401.223	184.106	-0.120	-0.176
-400.209	81.372	-0.043	0.046
-399.194	79.525	0.120	0.128
-398.179	-142.013	0.498	0.049
-397.165	-200.000	-0.003	-0.050
-396.150	64.509	-0.336	0.336
-395.136	-62.374	-0.195	0.081
-394.121	-95.502	-0.204	-0.054
-393.106	196.889	-0.280	-0.423
-392.092	254.504	0.032	-0.055
-391.077	800.000	0.059	-0.183
-390.063	-119.611	0.173	-0.030
-389.048	115.295	-0.105	0.128
-388.033	-200.000	-0.066	-0.434
-387.019	-123.488	-0.260	0.041
-386.004	65.743	0.194	0.195
-384.990	-22.199	-0.073	0.044
-383.975	-166.647	-0.123	0.005
-382.960	800.000	-0.123	-0.508
-381.946	658.431	-0.143	0.365
-380.931	231.430	-0.078	-0.126
-379.917	-153.184	0.384	-0.027
-378.902	104.938	0.019	0.022
-377.888	129.461	0.122	0.154
-376.873	-91.751	0.057	-0.016
-375.858	-72.522	-0.158	-0.058
-374.844	-200.000	0.002	0.260
-373.829	-200.000	-0.024	0.310
-372.815	44.752	-0.079	0.072
-371.800	-126.140	-0.136	-0.020
-370.785	-7.195	-0.072	0.048
-369.771	800.000	-0.097	-0.359
-368.756	-200.000	-0.040	-0.176
-367.742	135.801	-0.177	0.228
-366.727	3.348	-0.350	0.253
-365.712	-26.953	0.085	-0.049
-364.698	112.866	-0.126	-0.152
-363.683	411.780	-0.121	-0.255
-362.669	-130.729	0.246	0.033
-361.654	254.107	-0.066	-0.111
-360.639	-84.951	-0.330	0.103
-359.625	-36.494	-0.120	0.064
-358.610	97.354	0.209	0.238
-357.596	-24.968	0.380	0.223
-356.581	-20.806	0.171	0.104
-355.566	60.161	-0.191	0.188
-354.552	190.729	0.037	0.055
-353.537	14.205	-0.044	0.034
-352.523	-81.952	-0.176	-0.057
-351.508	380.384	-0.115	-0.233
-350.493	-64.369	-0.281	0.113
-349.479	-197.120	0.067	-0.000
-348.464	-23.013	0.094	0.056
-347.450	-51.547	-0.104	-0.048
-346.435	358.956	0.046	-0.091
-345.420	81.145	-0.102	0.109
-344.406	74.178	0.048	0.050
-343.391	-200.000	0.016	-0.188
-342.377	248.921	0.134	-0.224
-341.362	72.472	0.159	0.165
-340.348	-184.559	0.086	-0.001
-339.333	142.765	0.198	-0.261
-338.318	4.746	0.330	-0.240
-337.304	178.162	-0.187	0.270
-336.289	100.330	-0.211	-0.242
-335.275	-200.000	-0.002	0.276
-334.260	800.000	0.009	0.029
-333.245	800.000	-0.035	-0.127
-332.231	145.087	0.086	0.114
-331.216	2.012	-0.269	-0.192
-330.202	160.496	0.278	-0.384
-329.187	14.235	0.244	0.188
-328.172	-74.592	0.268	0.096
-327.158	-200.000	0.006	-0.191
-326.143	171.197	-0.137	-0.195
-325.129	-84.399	-0.310	-0.097
-324.114	-25.459	0.172	0.101
-323.099	-122.614	0.283	-0.045
-322.085	322.947	-0.160	-0.301
-321.070	84.731	-0.164	-0.178
-320.056	106.165	-0.251	-0.294
-319.041	-200.000	-0.006	0.037
-318.026	-2.095	-0.018	0.013
-317.012	40.134	-0.100	-0.089
-315.997	441.692	0.087	0.188
-314.983	-102.145	-0.390	-0.093
-313.968	441.721	-0.123	-0.266
-312.953	-127.273	0.412	0.060
-311.939	-88.175	-0.265	0.078
-310.924	9.802	-0.106	0.080
-309.910	195.549	-0.137	-0.206
-308.895	-85.249	-0.174	-0.054
-307.880	-19.299	-0.272	-0.167
-306.866	-200.000	-0.009	0.332
-305.851	-4.652	0.244	0.166
-304.837	-200.000	0.026	-0.545
-303.822	131.021	-0.076	-0.097
-302.807	61.645	-0.141	0.139
-301.793	-138.087	-0.146	-0.016
-300.778	151.288	-0.091	-0.122
-299.764	-90.630	0.175	-0.050
-298.749	-5.945	-0.153	0.103
-297.735	59.881	0.178	0.173
-296.720	-77.449	-0.198	-0.068
-295.705	-121.271	0.092	-0.015
-294.691	17.258	0.236	-0.185
-293.676	800.000	-0.010	0.042
-292.662	-200.000	0.004	-0.154
-291.647	127.014	0.019	0.023
-290.632	-102.998	-0.350	-0.082
-289.618	-200.000	0.014	-0.339
-288.603	46.478	-0.391	0.359
-287.589	404.500	0.126	0.263
-286.574	-109.572	-0.149	0.031
-285.559	284.597	-0.069	0.123
-284.545	53.693	-0.223	0.212
-283.530	8.800	-0.241	0.180
-282.516	-61.987	0.173	0.071
-281.501	-114.468	-0.169	0.032
-280.486	86.659	-0.169	-0.184
-279.472	-22.256	-0.047	0.028
-278.457	-140.699	-0.099	-0.010
-277.443	101.601	-0.094	-0.108
-276.428	407.570	0.089	0.186
-275.413	561.142	0.085	-0.203
-274.399	-200.000	0.047	0.215
-273.384	116.288	-0.053	0.064
-272.370	35.122	-0.200	-0.173
-271.355	-70.344	-0.161	0.060
-270.340	-200.000	0.056	0.416
-269.326	466.931	-0.045	0.100
-268.311	-198.464	0.260	-0.001
-267.297	-154.471	-0.080	0.005
-266.282	-102.602	-0.164	0.039
-265.267	-97.447	-0.212	-0.054
-264.253	313.818	0.097	-0.181
-263.238	-132.845	0.068	0.009
-262.224	19.923	0.225	0.179
-261.209	15.152	-0.213	0.165
-260.195	207.164	-0.278	0.428
-259.180	381.351	-0.182	0.370
-258.165	-16.633	0.276	0.172
-257.151	727.538	-0.088	-0.232
-256.136	148.908	0.260	0.347
-255.122	218.498	0.062	0.098
-254.107	90.944	-0.054	-0.060
-253.092	133.659	-0.129	0.164
-252.078	-167.044	0.258	0.010
-251.063	-72.544	-0.406	0.148
-250.049	-73.358	-0.137	0.050
-249.034	216.359	-0.080	-0.126
-248.019	-57.377	0.324	-0.140
-247.005	213.994	-0.153	0.239
-245.990	800.000	0.072	0.203
-244.976	-159.703	-0.039	-0.002
-243.961	730.137	-0.072	-0.190
-242.946	-127.228	0.135	-0.019
-241.932	-91.554	-0.119	-0.034
-240.917	-119.357	0.151	0.026
-239.903	323.008	0.132	-0.248
-238.888	-13.542	-0.156	-0.100
-237.873	-88.882	-0.145	-0.042
-236.859	56.179	-0.249	0.239
-235.844	610.298	0.133	-0.329
-234.830	733.413	-0.111	-0.293
-233.815	-200.000	-0.007	-0.411
-232.800	-93.858	-0.333	0.090
-231.786	295.636	-0.091	-0.165
-230.771	-29.681	0.280	0.158
-229.757	113.303	0.166	-0.199
-228.742	-144.051	-0.216	0.020
-227.727	-140.929	0.118	-0.012
-226.713	169.624	-0.186	-0.261
-225.698	331.625	-0.053	-0.101
-224.684	-111.173	-0.192	0.039
-223.669	163.646	0.142	0.197
-222.655	34.476	0.213	0.184
-221.640	89.739	0.067	0.073
-220.625	-10.381	-0.370	0.242
-219.611	319.672	0.084	-0.157
-218.596	191.512	0.175	0.259
-217.582	-97.939	-0.216	-0.055
-216.567	150.985	0.067	0.090
-215.552	-150.426	-0.164	-0.012
-214.538	-103.693	-0.181	-0.042
-213.523	-8.008	-0.083	-0.055
-212.509	95.099	0.167	-0.187
-211.494	74.905	-0.169	0.175
-210.479	-158.079	0.193	-0.011
-209.465	144.219	0.055	-0.072
-208.450	-133.076	0.199	0.025
-207.436	800.000	0.069	-0.247
-206.421	800.000	0.035	-0.108
-205.406	-98.614	-0.141	0.035
-204.392	-50.651	-0.200	0.093
-203.377	-127.846	-0.090	0.013
-202.363	51.293	0.119	0.112
-201.348	73.677	0.157	0.162
-200.333	-74.694	0.136	-0.048
-199.319	105.809	0.031	-0.036
-198.304	-200.000	-0.033	-0.294
-197.290	-21.410	0.108	-0.065
-196.275	16.978	0.070	-0.055
-195.260	-130.482	0.057	0.008
-194.246	614.453	0.097	0.238
-193.231	-25.987	-0.277	-0.160
-192.217	30.702	0.196	-0.165
-191.202	206.817	-0.151	0.232
-190.187	449.272	0.070	0.151
-189.173	-200.000	0.017	0.249
-188.158	-192.730	0.044	0.000
-187.144	187.137	0.160	-0.235
-186.129	-91.429	-0.167	0.047
-185.114	176.640	0.155	0.222
-184.100	-200.000	0.012	-0.076
-183.085	438.647	-0.047	-0.101
-182.071	-200.000	-0.058	-0.257
-181.056	-132.139	-0.280	0.036
-180.042	-101.698	-0.340	0.081
-179.027	-169.915	-0.210	-0.007
-178.012	387.403	0.038	-0.077
-176.998	-44.890	0.309	0.151
-175.983	-22.381	0.405	0.241
-174.969	-12.588	-0.160	-0.103
-173.954	800.000	-0.023	0.090
-172.939	654.151	-0.093	0.234
-171.925	600.874	-0.057	0.138
-170.910	-89.892	-0.153	-0.044
-169.896	-160.214	0.257	-0.014
-168.881	71.951	-0.127	0.130
-167.866	792.459	0.073	-0.197
-166.852	55.779	0.313	0.299
-165.837	-108.673	0.285	0.060
-164.823	-200.000	-0.012	0.059
-163.808	174.692	-0.099	0.141
-162.793	77.647	0.159	-0.166
-161.779	800.000	-0.048	0.187
-160.764	42.691	0.171	-0.153
-159.750	-3.654	0.078	-0.053
-158.735	711.739	0.062	0.163
-157.720	-174.527	0.202	-0.006
-156.706	-32.459	0.244	-0.134
-155.691	10.281	0.117	0.088
-154.677	-200.000	-0.057	-0.250
-153.662	85.109	0.172	0.185
-152.647	-127.944	0.164	0.023
-151.633	-55.103	-0.086	0.038
-150.618	136.753	-0.095	0.122
-149.604	-92.030	-0.212	0.059
-148.589	800.000	0.030	0.094
-147.574	800.000	-0.157	0.479
-146.560	-200.000	-0.020	0.131
-145.545	82.890	0.187	-0.199
-144.531	-131.901	-0.236	-0.030
-143.516	-111.514	0.028	-0.006
-142.502	-24.790	-0.210	0.123
-141.487	-81.172	-0.417	-0.135
-140.472	-40.621	-0.082	-0.042
-139.458	-177.551	0.227	0.005
-138.443	-142.475	0.137	-0.013
-137.429	58.379	0.107	0.103
-136.414	800.000	0.090	-0.273
-135.399	-200.000	-0.049	-0.240
-134.385	47.392	0.146	0.133
-133.370	43.959	0.274	0.247
-132.356	-200.000	-0.052	-0.235
-131.341	41.027	0.147	0.131
-130.326	800.000	0.086	-0.242
-129.312	146.308	0.054	-0.072
-128.297	49.839	0.112	0.104
-127.283	-200.000	0.008	-0.310
-126.268	-153.840	-0.066	-0.004
-125.253	-51.926	0.184	0.084
-124.239	800.000	-0.116	0.380
-123.224	-188.171	-0.031	0.000
-122.210	-200.000	-0.017	0.098
-121.195	380.506	0.113	-0.229
-120.180	-200.000	0.084	-0.380
-119.166	-172.009	-0.124	0.004
-118.151	358.617	0.101	-0.198
-117.137	800.000	-0.038	0.124
-116.122	800.000	-0.091	0.256
-115.107	49.784	0.098	-0.091
-114.093	591.549	0.036	-0.087
-113.078	-200.000	0.072	0.321
-112.064	800.000	0.105	-0.319
-111.049	-200.000	-0.004	0.181
-110.034	310.175	-0.090	-0.166
-109.020	-85.483	0.116	-0.035
-108.005	-200.000	-0.067	-0.304
-106.991	166.589	-0.098	0.136
-105.976	152.925	-0.112	-0.151
-104.962	-116.069	-0.196	0.036
-103.947	-200.000	-0.065	-0.328
-102.932	-200.000	-0.006	-0.112
-101.918	248.760	0.034	0.057
-100.903	-200.000	-0.053	0.000
-99.889	-200.000	-0.038	-0.298
-98.874	-5.337	0.163	0.110
-97.859	-147.063	0.338	0.028
-96.845	115.917	-0.206	-0.247
-95.830	484.097	0.143	0.320
-94.816	-200.000	0.008	0.140
-93.801	800.000	-0.016	0.052
-92.786	332.789	-0.106	0.201
-91.772	800.000	0.089	-0.300
-90.757	216.129	-0.090	-0.140
-89.743	-200.000	0.047	-0.275
-88.728	-200.000	0.021	-0.199
-87.713	47.734	0.219	-0.201
-86.699	16.723	0.261	0.202
-85.684	-25.981	-0.174	0.101
-84.670	-17.281	-0.159	0.098
-83.655	15.039	0.109	0.083
-82.640	-65.675	-0.263	-0.103
-81.626	105.996	-0.207	0.240
-80.611	-33.960	-0.076	-0.041
-79.597	86.299	-0.277	-0.299
-78.582	800.000	-0.045	0.141
-77.567	-62.291	-0.306	0.125
-76.553	-200.000	0.018	-0.114
-75.538	-92.650	0.259	-0.071
-74.524	-145.586	0.094	0.008
-73.509	-88.566	-0.301	-0.088
-72.494	-200.000	0.022	-0.304
-71.480	-68.720	0.271	-0.103
-70.465	-93.328	0.121	0.033
-69.451	-4.030	0.150	-0.102
-68.436	-200.000	0.009	0.063
-67.422	55.725	-0.054	-0.051
-66.407	-134.961	-0.171	0.020
-65.392	222.190	0.168	-0.265
-64.378	-200.000	0.022	-0.104
-63.363	-27.337	-0.241	0.137
-62.349	-42.614	0.200	-0.100
-61.334	64.672	-1.131	-1.118
-60.319	325.431	0.395	0.740
-59.305	800.000	-0.340	-1.279
-58.290	171.866	0.765	1.077
-57.276	800.000	0.408	1.321
-56.261	-200.000	113.826	650.111
-55.246	473.957	1507.410	3329.922
-54.232	147.540	2671.938	3525.324
-53.217	104.670	2153.049	2484.755
-52.203	38.890	1601.555	1401.240
-51.188	30.669	1347.836	1129.543
-50.173	27.874	1310.178	1081.417
-49.159	55.430	1365.352	1293.982
-48.144	54.151	1379.795	1299.927
-47.130	31.130	1335.627	1121.908
-46.115	27.746	1317.624	1086.625
-45.100	27.297	1313.633	1080.624
-44.086	27.341	1310.695	1078.426
-43.071	27.314	1308.505	1076.424
-42.057	27.252	1306.459	1074.329
-41.042	27.347	1304.751	1073.441
-40.027	27.415	1303.077	1072.423
-39.013	27.472	1300.833	1070.868
-37.998	27.477	1299.141	1069.464
-36.984	27.432	1297.776	1068.032
-35.969	27.383	1295.996	1066.242
-34.954	27.441	1294.085	1064.962
-33.940	27.579	1292.512	1064.433
-32.925	27.529	1291.601	1063.350
-31.911	27.564	1290.302	1062.440
-30.896	27.568	1288.485	1060.925
-29.881	27.727	1286.929	1060.527
-28.867	27.568	1286.024	1058.815
-27.852	27.679	1283.993	1057.745
-26.838	27.522	1282.865	1055.863
-25.823	27.639	1281.529	1055.399
-24.809	27.595	1280.362	1054.142
-23.794	27.537	1279.321	1052.907
-22.779	27.613	1277.575	1051.869
-21.765	27.544	1276.884	1050.861
-20.750	27.552	1275.073	1049.376
-19.736	27.582	1273.740	1048.410
-18.721	27.550	1272.614	1047.255
-17.706	27.553	1271.351	1046.190
-16.692	27.484	1270.286	1044.880
-15.677	27.430	1269.546	1043.917
-14.663	27.461	1268.115	1042.881
-13.648	27.503	1266.598	1041.829
-12.633	27.467	1265.983	1041.074
-11.619	27.398	1265.829	1040.514
-10.604	27.403	1264.629	1039.513
-9.590	27.417	1263.594	1038.702
-8.575	27.451	1262.318	1037.804
-7.560	27.333	1262.055	1036.874
-6.546	27.374	1260.784	1036.026
-5.531	27.409	1259.899	1035.454
-4.517	27.420	1258.882	1034.639
-3.502	27.493	1257.823	1034.143
-2.487	27.330	1257.652	1033.036
-1.473	27.347	1253.087	1029.341
-0.458	25.835	1238.152	1008.575
0.556	20.851	1221.785	970.920
1.571	17.382	1227.543	955.948
2.586	16.491	1243.220	962.999
3.600	16.607	1232.157	954.999
4.615	15.320	1165.908	896.694
5.629	12.284	1099.734	830.393
6.644	10.873	1082.782	810.492
7.659	10.705	1080.451	807.839
8.673	10.633	1079.561	806.743
9.688	10.609	1078.116	805.474
10.702	10.847	1076.253	805.188
11.717	12.597	1077.216	814.507
12.731	15.475	1081.275	831.783
13.746	17.572	1083.270	843.642
14.761	17.616	1083.322	843.826
15.775	16.639	1081.123	837.209
16.790	15.620	1079.236	830.639
17.804	14.789	1077.612	825.214
18.819	14.369	1076.451	822.179
19.834	14.042	1075.540	819.796
20.848	13.925	1074.440	818.309
21.863	13.688	1073.851	816.622
22.877	13.524	1072.804	814.944
23.892	13.662	1071.926	814.885
24.907	13.499	1071.235	813.487
25.921	13.601	1069.930	812.924
26.936	13.679	1068.500	812.148
27.950	13.629	1067.513	811.082
28.965	13.689	1065.741	809.959
29.980	13.707	1064.315	808.888
30.994	13.806	1063.478	808.662
32.009	13.918	1062.420	808.331
33.023	13.786	1061.403	806.844
34.038	13.641	1060.557	805.427
35.053	13.702	1059.309	804.703
36.067	13.581	1058.815	803.672
37.082	13.607	1058.319	803.347
38.096	13.743	1056.969	802.909
39.111	13.728	1056.265	802.235
40.126	13.566	1055.114	800.502
41.140	13.627	1053.400	799.428
42.155	13.461	1052.958	798.221
43.169	13.422	1051.830	797.109
44.184	13.462	1050.776	796.429
45.199	13.478	1049.596	795.544
46.213	13.384	1048.977	794.554
47.228	13.716	1047.593	795.028
48.242	13.608	1046.481	793.592
49.257	13.792	1044.820	793.142
50.271	13.586	1044.877	792.133
51.286	13.745	1043.789	791.998
52.301	13.744	1042.826	791.191
53.315	13.563	1041.886	789.547
54.330	13.476	1040.882	788.299
55.344	13.547	1039.965	787.874
56.359	13.676	1038.899	787.610
57.374	13.585	1037.861	786.322
58.388	13.546	1036.673	785.164
59.403	13.524	1036.257	784.679
60.417	13.584	1035.680	784.457
61.432	13.483	1035.014	783.405
62.447	13.507	1033.835	782.554
63.461	13.446	1033.440	781.897
64.476	13.378	1032.055	780.464
65.490	13.342	1031.391	779.719
66.505	13.490	1030.558	779.721
67.520	13.443	1030.080	779.067
68.534	13.594	1029.228	779.062
69.549	13.452	1028.510	777.785
70.563	13.470	1027.964	777.388
71.578	13.457	1026.796	776.374
72.593	13.253	1026.089	774.814
73.607	13.307	1025.327	774.421
74.622	13.436	1025.094	774.785
75.636	13.436	1024.075	773.945
76.651	13.348	1023.365	772.926
77.666	13.411	1023.064	772.925
78.680	13.380	1022.358	772.182
79.695	13.476	1021.449	771.872
80.709	13.434	1020.845	771.151
81.724	13.531	1020.220	771.063
82.739	13.634	1019.441	770.888
83.753	13.642	1019.286	770.737
84.768	13.688	1017.751	769.720
85.782	13.848	1016.547	769.486
86.797	13.783	1016.435	769.031
87.812	13.578	1015.292	767.148
88.826	13.553	1014.267	766.192
89.841	13.552	1013.635	765.640
90.855	13.704	1012.411	765.353
91.870	13.707	1011.473	764.588
92.884	13.845	1010.763	764.619
93.899	13.767	1010.211	763.774
94.914	13.826	1009.382	763.351
95.928	13.915	1008.395	762.948
96.943	13.728	1007.864	761.620
97.957	13.706	1006.735	760.596
98.972	13.838	1005.712	760.362
99.987	13.857	1004.545	759.498
101.001	13.775	1003.616	758.353
102.016	13.797	1002.717	757.707
103.030	13.820	1002.234	757.380
104.045	13.803	1001.645	756.793
105.060	13.857	1000.236	755.905
106.074	13.591	999.357	753.967
107.089	13.496	998.317	752.681
108.103	13.577	997.354	752.256
109.118	13.512	996.583	751.313
110.133	13.569	995.570	750.745
111.147	13.580	994.783	750.131
112.162	13.564	993.731	749.202
113.176	13.558	993.358	748.826
114.191	13.688	992.283	748.534
115.206	13.663	991.596	747.840
116.220	13.595	990.813	746.875
117.235	13.724	989.317	746.261
118.249	13.687	988.371	745.319
119.264	13.578	988.133	744.584
120.279	13.631	987.080	743.962
121.293	13.475	986.659	742.879
122.308	13.522	985.473	742.128
123.322	13.626	983.848	741.305
124.337	13.462	983.455	740.210
125.352	13.486	982.492	739.527
126.366	13.554	981.315	738.878
127.381	13.568	980.212	738.047
128.395	13.670	979.274	737.727
129.410	13.607	978.585	736.865
130.424	13.657	977.518	736.217
131.439	13.565	977.660	735.850
132.454	13.699	976.464	735.477
133.468	13.620	975.539	734.368
134.483	13.620	974.631	733.619
135.497	13.728	973.665	733.305
136.512	13.618	972.998	732.252
137.527	13.650	972.148	731.687
138.541	13.665	971.500	731.201
139.556	13.668	970.701	730.548
140.570	13.733	970.085	730.306
141.585	13.949	968.788	730.213
142.600	13.796	968.440	729.216
143.614	13.914	967.442	728.918
144.629	13.842	967.161	728.325
145.643	13.884	965.582	727.254
146.658	13.797	964.981	726.359
147.673	13.908	963.773	725.871
148.687	13.697	963.121	724.392
149.702	13.732	962.262	723.838
150.716	13.723	961.518	723.171
151.731	13.812	960.593	722.802
152.746	13.856	959.811	722.341
153.760	13.843	959.667	722.113
154.775	13.809	959.162	721.517
155.789	13.871	958.205	721.005
156.804	13.978	957.272	720.703
157.819	13.967	956.512	720.021
158.833	13.987	956.817	720.272
159.848	14.102	955.181	719.475
160.862	14.130	954.162	718.766
161.877	14.024	953.398	717.669
162.892	13.905	952.615	716.501
163.906	13.830	951.534	715.300
164.921	13.844	950.828	714.766
165.935	13.883	950.052	714.287
166.950	14.079	949.061	714.324
167.964	13.909	948.428	713.055
168.979	13.988	947.194	712.402
169.994	14.003	946.152	711.618
171.008	13.968	945.695	711.064
172.023	14.024	945.019	710.730
173.037	14.119	944.446	710.641
174.052	13.984	943.732	709.465
175.067	13.922	943.179	708.722
176.081	13.986	942.130	708.146
177.096	14.030	941.667	707.920
178.110	13.939	940.903	706.897
179.125	14.019	940.518	706.885
180.140	14.014	939.793	706.255
181.154	14.016	939.918	706.299
182.169	14.103	938.890	705.833
183.183	14.200	938.272	705.714
184.198	14.126	937.779	704.970
185.213	14.184	937.066	704.618
186.227	14.247	936.340	704.276
187.242	14.379	935.371	704.040
188.256	14.319	935.188	703.586
189.271	14.335	934.178	702.833
190.286	14.270	933.219	701.775
191.300	14.099	932.228	700.248
192.315	14.047	932.044	699.829
193.329	13.984	931.665	699.218
194.344	14.127	930.813	699.117
195.359	14.176	930.086	698.717
196.373	14.298	929.241	698.532
197.388	14.360	929.457	698.890
198.402	14.496	928.847	698.939
199.417	14.458	928.274	698.287
200.432	14.539	927.592	698.052
201.446	14.453	927.187	697.328
202.461	14.611	926.631	697.506
203.475	14.549	925.936	696.664
204.490	14.585	924.587	695.735
205.504	14.460	924.180	694.850
206.519	14.438	923.672	694.313
207.534	14.414	923.005	693.651
208.548	14.451	922.195	693.135
209.563	14.494	921.950	693.069
210.577	14.472	921.274	692.406
211.592	14.479	920.746	691.976
212.607	14.712	919.352	691.834
213.621	14.771	918.792	691.595
214.636	14.565	918.184	690.225
215.650	14.623	917.517	689.900
216.665	14.685	916.933	689.657
217.680	14.735	916.239	689.281
218.694	14.709	915.725	688.726
219.709	14.713	914.933	688.087
220.723	14.790	913.707	687.418
221.738	14.726	913.694	687.087
222.753	14.731	912.725	686.317
223.767	14.756	912.600	686.264
224.782	14.844	911.795	685.958
225.796	14.862	911.115	685.461
226.811	14.842	910.525	684.877
227.826	14.854	909.818	684.330
228.840	14.748	909.073	683.279
229.855	14.820	908.257	682.896
230.869	14.741	907.531	681.967
231.884	14.786	906.588	681.382
232.899	14.757	906.147	680.871
233.913	14.790	905.315	680.322
234.928	14.744	904.449	679.426
235.942	14.818	903.927	679.275
236.957	14.806	903.779	679.051
237.972	14.804	902.873	678.306
238.986	14.869	902.291	678.071
240.001	14.971	901.578	677.888
241.015	14.755	901.195	676.666
242.030	14.764	900.918	676.435
243.045	14.779	899.887	675.662
244.059	14.939	899.249	675.769
245.074	14.990	898.666	675.477
246.088	15.126	897.715	675.252
247.103	14.938	897.403	674.198
248.117	14.994	897.269	674.262
249.132	15.253	896.177	674.425
250.147	15.285	895.779	674.194
251.161	15.337	895.067	673.807
252.176	15.374	894.533	673.493
253.190	15.391	893.510	672.734
254.205	15.361	892.978	672.151
255.220	15.472	892.209	671.960
256.234	15.264	892.075	670.966
257.249	15.293	891.158	670.335
258.263	15.323	890.579	669.959
259.278	15.310	889.903	669.337
260.293	15.468	889.487	669.598
261.307	15.497	888.522	668.926
262.322	15.402	888.197	668.244
263.336	15.578	887.138	668.088
264.351	15.673	886.156	667.668
265.366	15.653	885.498	667.034
266.380	15.645	885.398	666.867
267.395	15.564	884.595	665.882
268.409	15.436	883.889	664.783
269.424	15.510	882.908	664.280
270.439	15.433	882.462	663.582
271.453	15.407	881.887	662.987
272.468	15.629	880.996	663.136
273.482	15.470	880.846	662.337
274.497	15.545	880.046	661.974
275.512	15.586	879.518	661.679
276.526	15.616	878.976	661.331
277.541	15.602	878.337	660.734
278.555	15.610	877.703	660.231
279.570	15.707	877.061	660.073
280.585	15.726	876.301	659.517
281.599	15.667	875.793	658.842
282.614	15.723	874.867	658.307
283.628	15.670	874.175	657.523
284.643	15.803	873.324	657.343
285.657	15.640	873.286	656.618
286.672	15.765	872.672	656.587
287.687	15.713	872.141	655.927
288.701	15.741	871.400	655.422
289.716	15.711	871.000	654.946
290.730	15.930	870.064	655.037
291.745	15.792	869.692	654.159
292.760	15.998	868.708	654.164
293.774	15.806	868.530	653.224
294.789	15.814	867.779	652.635
295.803	15.926	867.075	652.481
296.818	15.927	866.122	651.711
297.833	15.878	865.396	650.918
298.847	15.969	865.059	650.956
299.862	16.051	864.646	650.904
300.876	15.969	864.200	650.195
301.891	16.110	863.521	650.172
302.906	16.126	863.014	649.795
303.920	16.217	862.181	649.458
304.935	16.149	861.906	648.932
305.949	16.184	861.446	648.665
306.964	16.024	860.722	647.445
307.979	16.087	860.105	647.164
308.993	16.226	859.437	647.138
310.008	16.267	858.741	646.714
311.022	16.223	858.138	646.036
312.037	16.131	858.048	645.560
313.052	16.120	857.130	644.770
314.066	16.024	856.688	644.010
315.081	16.186	855.799	643.905
316.095	16.177	855.499	643.587
317.110	15.997	854.907	642.399
318.125	16.154	854.570	642.687
319.139	16.169	853.950	642.223
320.154	16.333	853.337	642.328
321.168	16.193	853.013	641.494
322.183	16.232	852.176	640.955
323.197	16.088	851.962	640.191
324.212	16.256	851.588	640.493
325.227	16.151	850.734	639.396
326.241	16.310	850.193	639.532
327.256	16.302	849.702	639.078
328.270	16.347	848.877	638.572
329.285	16.224	848.604	637.843
330.300	16.109	848.097	636.974
331.314	16.348	847.207	637.150
332.329	16.457	846.734	637.147
333.343	16.459	846.277	636.756
334.358	16.374	846.053	636.209
335.373	16.291	845.630	635.523
336.387	16.433	845.244	635.712
337.402	16.486	845.186	635.809
338.416	16.566	844.699	635.688
339.431	16.622	844.010	635.322
340.446	16.755	843.714	635.543
341.460	16.702	843.256	634.943
342.475	16.673	842.797	634.432
343.489	16.701	842.407	634.188
344.504	16.781	842.130	634.225
345.519	16.831	841.288	633.721
346.533	16.782	841.029	633.287
347.548	16.827	840.327	632.870
348.562	16.655	839.488	631.539
349.577	16.766	839.087	631.595
350.592	16.500	838.796	630.328
351.606	16.489	838.131	629.735
352.621	16.641	837.090	629.461
353.635	16.620	836.743	629.068
354.650	16.676	836.298	628.883
355.665	16.707	835.420	628.283
356.679	16.809	834.750	628.102
357.694	16.789	834.222	627.575
358.708	16.858	833.631	627.330
359.723	16.778	833.198	626.652
360.738	16.740	832.576	625.988
361.752	16.775	831.894	625.552
362.767	16.891	831.067	625.300
363.781	16.919	830.955	625.266
364.796	16.994	830.534	625.169
365.810	17.154	829.826	625.168
366.825	17.122	829.510	624.759
367.840	17.152	828.937	624.382
368.854	16.953	828.569	623.320
369.869	17.122	827.963	623.427
370.883	16.842	828.234	622.549
371.898	17.128	827.496	622.989
372.913	17.131	826.990	622.562
373.927	17.091	826.170	621.744
374.942	17.090	825.949	621.518
375.956	17.252	825.802	621.946
376.971	17.189	825.328	621.303
377.986	17.383	824.551	621.374
379.000	17.349	824.053	620.820
380.015	17.345	823.314	620.192
381.029	17.357	822.718	619.731
382.044	17.462	822.136	619.620
383.059	17.424	821.829	619.198
384.073	17.382	821.225	618.536
385.088	17.219	821.283	617.931
386.102	17.340	820.091	617.419
387.117	17.346	819.484	616.927
388.132	17.323	819.259	616.620
389.146	17.289	818.482	615.860
390.161	17.512	817.970	616.227
391.175	17.370	817.815	615.542
392.190	17.368	817.160	614.986
393.205	17.383	816.293	614.333
394.219	17.248	816.360	613.840
395.234	17.386	815.853	613.903
396.248	17.268	815.376	613.066
397.263	17.303	814.660	612.600
398.278	17.236	814.765	612.384
399.292	17.238	814.357	612.030
400.307	17.251	814.002	611.756
401.321	17.313	813.299	611.396
402.336	17.315	812.457	610.715
403.350	17.482	811.900	610.843
404.365	17.378	811.883	610.402
405.380	17.722	811.142	611.023
406.394	17.664	810.613	610.363
407.409	17.512	810.868	609.956
408.423	17.493	810.303	609.410
409.438	17.713	809.884	609.828
410.453	17.711	809.198	609.250
411.467	17.823	808.725	609.240
412.482	17.825	808.019	608.661
413.496	17.663	808.392	608.310
414.511	17.904	807.802	608.671
415.526	17.761	807.547	607.916
416.540	17.845	806.778	607.582
417.555	17.796	806.344	607.028
418.569	17.888	805.778	606.875
419.584	17.906	805.466	606.651
420.599	17.951	804.966	606.381
421.613	111.913	1294.107	1477.566
422.628	96.587	1365.331	1477.674
