DTS Sentinel unit serial number:	SN413079Multiplexer serial number:	ORYXHardware model number:	OX4-SRSoftware version number:	ORYX F/W v4.00 Oryx Data Collector v3.7.2.0data status	okinstallation	princeton_trtdifferential loss correction	single-endedforward channel	channel 1reverse channel	N/Adate	2019/09/10time	15:48:11forward acquisition time	60.00reverse acquisition time	0.00gamma	496.2192k internal	0.2299k external	0.2299temperature offset calibration	0.9914default loss term (dB/km)	0.3790temperature slope calibration	1.0000multiplexer offset coefficient	1.0000multiplexer slope coefficient	1.0000fibre end	0.00T internal ref (°C)	38.06T ext. ref 1 (°C)	-0.29T ext. ref 2 (°C)	32.60length (m)	temperature (°C)	Stokes	anti-Stokes-747.200	-37.556	-0.137	0.075
-746.185	720.090	-0.054	-0.146
-745.171	15.610	-0.208	-0.166
-744.156	-200.000	0.018	0.273
-743.142	97.560	0.290	0.340
-742.127	-200.000	-0.044	0.234
-741.112	-19.218	0.237	-0.150
-740.098	-122.016	0.181	-0.030
-739.083	-200.000	-0.091	-0.464
-738.069	533.525	-0.060	0.146
-737.054	572.098	-0.123	-0.305
-736.039	134.384	0.103	0.136
-735.025	353.393	0.023	-0.046
-734.010	-131.462	0.127	-0.017
-732.996	9.248	0.110	-0.085
-731.981	-110.022	-0.080	-0.017
-730.966	-169.720	-0.379	-0.014
-729.952	-200.000	0.003	-0.118
-728.937	-60.281	-0.280	-0.122
-727.923	-200.000	-0.070	-0.481
-726.908	113.214	-0.167	-0.206
-725.894	-63.601	-0.242	-0.101
-724.879	-200.000	0.015	-0.131
-723.864	-200.000	0.009	-0.181
-722.850	67.531	0.104	-0.109
-721.835	-41.157	0.185	0.097
-720.821	-200.000	0.002	0.077
-719.806	800.000	-0.046	-0.191
-718.791	-120.679	-0.240	-0.041
-717.777	-110.311	-0.166	-0.035
-716.762	-50.659	0.191	-0.092
-715.748	-15.742	0.266	-0.173
-714.733	196.690	-0.151	0.235
-713.718	-21.844	0.247	0.153
-712.704	-7.739	-0.225	0.155
-711.689	-92.992	-0.260	-0.074
-710.675	-200.000	-0.028	-0.252
-709.660	-48.805	0.172	0.084
-708.645	-25.729	0.239	-0.144
-707.631	-62.039	-0.205	0.087
-706.616	-140.242	0.401	-0.043
-705.602	18.559	0.195	-0.159
-704.587	55.017	-0.256	0.252
-703.572	-124.522	0.245	0.039
-702.558	-15.486	-0.203	0.132
-701.543	19.496	0.149	0.122
-700.529	-200.000	0.012	0.216
-699.514	24.330	-0.224	0.188
-698.499	161.179	0.247	-0.352
-697.485	17.106	-0.098	0.079
-696.470	-200.000	-0.001	0.206
-695.456	608.980	0.078	-0.199
-694.441	800.000	0.069	0.259
-693.426	151.471	-0.114	0.157
-692.412	-124.288	-0.056	0.009
-691.397	36.997	-0.101	0.091
-690.383	-112.815	0.473	0.096
-689.368	-94.298	-0.169	0.047
-688.354	800.000	0.041	-0.168
-687.339	-99.721	-0.096	0.024
-686.324	166.829	-0.180	-0.259
-685.310	216.707	-0.108	0.175
-684.295	-107.314	-0.350	-0.078
-683.281	474.494	-0.095	-0.219
-682.266	107.044	0.152	-0.183
-681.251	57.173	-0.306	0.304
-680.237	-92.619	0.022	-0.006
-679.222	200.833	-0.065	-0.101
-678.208	-76.150	-0.198	-0.071
-677.193	-69.875	-0.276	0.107
-676.178	-199.970	0.386	-0.002
-675.164	-65.097	-0.237	-0.097
-674.149	-58.254	-0.568	0.252
-673.135	689.466	0.065	0.174
-672.120	-102.775	-0.143	0.035
-671.105	-125.937	0.235	0.036
-670.091	-17.361	0.088	0.056
-669.076	-200.000	-0.006	0.116
-668.062	-200.000	0.007	-0.120
-667.047	-17.890	-0.103	-0.066
-666.032	193.793	0.190	-0.293
-665.018	-200.000	0.018	-0.379
-664.003	445.685	0.167	-0.374
-662.989	800.000	0.047	-0.200
-661.974	259.421	0.190	-0.334
-660.959	278.051	-0.142	0.258
-659.945	-200.000	-0.080	-0.367
-658.930	-144.608	0.059	-0.006
-657.916	711.110	-0.058	-0.156
-656.901	-36.343	-0.045	0.025
-655.886	-42.427	-0.247	-0.128
-654.872	-200.000	0.029	0.167
-653.857	-200.000	-0.049	-0.354
-652.843	593.182	0.066	-0.166
-651.828	-54.318	0.028	0.013
-650.814	-45.441	-0.208	0.105
-649.799	228.676	-0.123	-0.204
-648.784	-32.700	0.193	0.109
-647.770	20.569	0.188	0.154
-646.755	91.749	-0.158	0.181
-645.741	20.080	-0.200	-0.164
-644.726	-200.000	0.009	0.056
-643.711	270.398	-0.209	-0.374
-642.697	156.666	0.146	-0.205
-641.682	-27.474	0.220	-0.130
-640.668	-47.926	0.133	-0.066
-639.653	52.353	0.216	-0.210
-638.638	543.909	-0.080	-0.195
-637.624	-97.853	0.199	-0.052
-636.609	129.177	-0.080	0.104
-635.595	-200.000	0.033	-0.265
-634.580	82.720	-0.050	-0.055
-633.565	-12.919	-0.163	-0.108
-632.551	38.016	0.094	0.085
-631.536	-6.173	-0.291	0.202
-630.522	637.297	0.075	-0.194
-629.507	290.946	-0.092	0.170
-628.492	-111.871	0.045	0.009
-627.478	1.611	-0.114	0.084
-626.463	800.000	0.143	0.430
-625.449	157.745	0.275	-0.386
-624.434	224.365	0.167	0.274
-623.419	-200.000	0.018	0.188
-622.405	213.167	-0.220	0.353
-621.390	37.098	-0.160	-0.144
-620.376	108.430	-0.087	-0.106
-619.361	180.392	0.242	-0.361
-618.346	504.879	-0.142	-0.335
-617.332	800.000	0.044	-0.146
-616.317	-200.000	0.050	0.235
-615.303	-145.189	0.365	-0.034
-614.288	158.896	-0.215	-0.303
-613.273	-141.974	0.219	-0.022
-612.259	11.866	0.122	0.095
-611.244	42.911	0.176	-0.162
-610.230	45.333	0.305	-0.285
-609.215	-200.000	0.006	-0.109
-608.201	664.822	-0.040	-0.104
-607.186	-3.643	-0.116	0.082
-606.171	-174.520	0.212	-0.006
-605.157	-81.213	-0.199	0.067
-604.142	-81.548	0.262	0.087
-603.128	800.000	-0.023	-0.091
-602.113	-118.893	-0.195	-0.035
-601.098	-200.000	0.008	-0.178
-600.084	116.503	0.030	0.037
-599.069	-200.000	-0.004	-0.053
-598.055	644.326	-0.020	0.051
-597.040	-92.438	-0.129	0.037
-596.025	69.965	0.190	0.199
-595.011	-37.885	-0.118	-0.063
-593.996	-70.818	0.279	-0.107
-592.982	-97.280	-0.109	-0.029
-591.967	367.185	-0.149	-0.306
-590.952	8.285	-0.362	0.276
-589.938	46.887	-0.159	-0.150
-588.923	-56.916	0.332	-0.149
-587.909	-37.050	0.427	-0.232
-586.894	250.757	0.220	0.379
-585.879	-200.000	0.001	-0.134
-584.865	58.420	-0.080	-0.080
-583.850	-174.702	-0.204	0.006
-582.836	40.630	-0.255	-0.233
-581.821	-61.144	0.247	0.106
-580.806	89.744	-0.133	-0.151
-579.792	-91.803	-0.305	0.088
-578.777	-57.028	0.222	-0.099
-577.763	145.243	-0.124	0.168
-576.748	64.463	0.162	0.165
-575.733	-94.280	0.036	-0.010
-574.719	-62.901	0.177	0.074
-573.704	800.000	-0.032	0.106
-572.690	91.623	0.157	-0.179
-571.675	493.292	-0.100	0.233
-570.661	800.000	-0.111	-0.376
-569.646	-200.000	-0.002	0.169
-568.631	310.082	-0.124	0.234
-567.617	89.225	-0.136	0.153
-566.602	-171.993	-0.189	0.006
-565.588	-91.344	0.215	-0.062
-564.573	-39.076	0.220	-0.117
-563.558	108.305	-0.082	-0.100
-562.544	-85.362	0.255	-0.081
-561.529	-18.267	0.086	0.055
-560.515	396.036	0.070	0.149
-559.500	-103.970	-0.319	-0.076
-558.485	77.589	0.184	0.199
-557.471	-138.909	0.257	0.028
-556.456	-200.000	0.004	-0.068
-555.442	-64.800	0.010	-0.004
-554.427	-29.849	0.127	0.073
-553.412	-0.780	-0.284	0.204
-552.398	-149.514	0.024	-0.002
-551.383	-124.645	0.506	-0.080
-550.369	68.353	0.098	-0.102
-549.354	2.322	-0.129	0.095
-548.339	-14.957	0.106	0.069
-547.325	-101.800	-0.158	0.039
-546.310	206.139	-0.173	-0.273
-545.296	800.000	-0.064	-0.195
-544.281	218.070	0.033	0.054
-543.266	446.932	0.131	0.292
-542.252	-121.648	-0.236	-0.040
-541.237	84.725	-0.086	-0.095
-540.223	-94.793	-0.019	0.005
-539.208	98.863	0.207	-0.242
-538.193	-54.204	-0.151	-0.070
-537.179	-102.253	-0.221	-0.054
-536.164	-112.139	0.356	-0.072
-535.150	-200.000	0.061	-0.505
-534.135	30.086	-0.157	0.135
-533.121	-27.426	-0.171	0.101
-532.106	-56.270	0.186	-0.083
-531.091	-36.883	-0.030	-0.016
-530.077	-200.000	0.007	0.168
-529.062	-200.000	-0.003	0.129
-528.048	131.388	-0.128	0.166
-527.033	127.031	0.177	0.227
-526.018	-63.600	-0.084	0.035
-525.004	-111.914	-0.313	0.064
-523.989	-200.000	-0.006	-0.264
-522.975	-0.464	0.235	-0.169
-521.960	72.253	-0.358	0.377
-520.945	18.039	0.121	-0.097
-519.931	8.039	-0.323	-0.245
-518.916	267.150	0.110	-0.195
-517.902	-122.126	0.397	0.066
-516.887	-45.172	0.229	-0.115
-515.872	-97.340	0.143	0.038
-514.858	-159.096	0.116	0.007
-513.843	-163.712	-0.219	-0.010
-512.829	5.741	-0.260	0.194
-511.814	-98.157	-0.284	-0.074
-510.799	-31.650	0.270	-0.153
-509.785	-165.262	-0.260	-0.012
-508.770	190.968	-0.040	-0.061
-507.756	-49.717	0.292	0.140
-506.741	132.367	0.134	0.175
-505.726	189.348	-0.117	0.178
-504.712	-156.955	-0.181	-0.011
-503.697	-74.670	-0.132	0.048
-502.683	-39.040	-0.120	0.064
-501.668	-3.766	-0.223	0.157
-500.653	350.646	0.113	-0.227
-499.639	800.000	0.044	0.138
-498.624	-200.000	-0.020	-0.183
-497.610	60.285	0.033	-0.033
-496.595	800.000	0.081	0.260
-495.581	-82.485	-0.334	-0.110
-494.566	189.676	0.115	0.175
-493.551	-125.567	0.216	-0.033
-492.537	-26.724	0.124	-0.073
-491.522	-52.959	-0.124	-0.058
-490.508	118.158	0.120	0.150
-489.493	14.997	0.171	-0.136
-488.478	800.000	-0.016	-0.065
-487.464	-200.000	0.046	0.284
-486.449	284.371	0.076	-0.139
-485.435	800.000	0.055	0.178
-484.420	-142.816	0.383	0.038
-483.405	-140.280	0.180	0.019
-482.391	-200.000	0.005	-0.312
-481.376	-50.709	-0.230	-0.109
-480.362	-102.560	-0.481	0.116
-479.347	-139.566	0.270	-0.029
-478.332	-40.818	0.216	0.113
-477.318	122.429	-0.028	-0.036
-476.303	143.743	-0.108	0.145
-475.289	68.079	0.026	-0.027
-474.274	-106.783	-0.225	-0.050
-473.259	-101.608	-0.228	-0.056
-472.245	-98.174	0.405	0.105
-471.230	430.370	0.106	-0.232
-470.216	-89.627	-0.327	0.097
-469.201	469.645	0.093	-0.212
-468.186	24.088	-0.282	-0.235
-467.172	-70.513	0.294	0.112
-466.157	-160.156	-0.332	0.018
-465.143	333.675	-0.008	-0.015
-464.128	20.156	-0.257	-0.210
-463.113	187.446	-0.087	0.132
-462.099	-200.000	-0.029	0.303
-461.084	603.573	-0.146	-0.367
-460.070	-76.953	-0.164	-0.058
-459.055	119.204	0.038	0.047
-458.040	-200.000	0.015	-0.098
-457.026	-141.526	-0.091	-0.009
-456.011	800.000	0.043	-0.126
-454.997	-200.000	-0.006	-0.350
-453.982	174.237	0.086	0.126
-452.968	234.391	0.077	0.128
-451.953	-6.632	-0.157	-0.108
-450.938	800.000	-0.058	-0.224
-449.924	-50.250	-0.031	-0.015
-448.909	800.000	0.019	-0.065
-447.895	-62.356	-0.171	0.072
-446.880	179.770	0.151	0.223
-445.865	800.000	0.101	-0.384
-444.851	188.400	-0.339	0.511
-443.836	76.714	-0.112	-0.120
-442.822	-22.637	0.242	-0.148
-441.807	-200.000	0.039	-0.321
-440.792	-200.000	-0.041	-0.208
-439.778	-200.000	0.016	-0.201
-438.763	-177.698	-0.236	0.006
-437.749	-105.158	-0.245	-0.057
-436.734	-104.663	0.370	-0.086
-435.719	164.744	-0.174	-0.247
-434.705	-85.923	0.374	0.117
-433.690	-200.000	0.000	-0.078
-432.676	776.892	-0.059	-0.162
-431.661	112.156	0.185	0.226
-430.646	800.000	0.040	0.170
-429.632	-45.763	0.228	0.114
-428.617	58.641	-0.207	0.205
-427.603	-119.310	-0.209	-0.037
-426.588	-68.201	0.114	-0.045
-425.573	-1.832	0.320	-0.227
-424.559	-200.000	0.012	0.085
-423.544	-104.354	-0.136	0.032
-422.530	-200.000	0.013	0.123
-421.515	51.932	-0.092	0.088
-420.500	-137.269	0.346	-0.040
-419.486	-192.320	0.070	0.001
-418.471	-200.000	0.010	0.325
-417.457	172.832	-0.155	-0.224
-416.442	-166.069	0.387	0.017
-415.428	60.348	-0.305	0.304
-414.413	10.594	0.057	0.044
-413.398	9.947	0.234	0.179
-412.384	374.752	-0.182	0.374
-411.369	-200.000	0.022	0.113
-410.355	76.126	0.105	-0.112
-409.340	-200.000	0.039	0.205
-408.325	-12.408	0.386	0.254
-407.311	-44.134	0.260	0.132
-406.296	793.626	-0.056	-0.154
-405.282	-180.244	0.306	0.006
-404.267	53.918	-0.143	0.139
-403.252	-194.281	-0.354	0.003
-402.238	-115.009	-0.214	-0.041
-401.223	-137.468	0.114	-0.013
-400.209	800.000	0.016	-0.059
-399.194	-48.373	0.443	-0.215
-398.179	-78.236	-0.172	0.059
-397.165	-200.000	0.085	-0.405
-396.150	-79.211	-0.107	-0.037
-395.136	8.509	-0.309	0.234
-394.121	800.000	-0.082	0.339
-393.106	800.000	0.077	-0.338
-392.092	-200.000	0.015	0.187
-391.077	-63.816	0.442	0.182
-390.063	-200.000	0.003	-0.030
-389.048	800.000	-0.078	0.317
-388.033	-200.000	-0.013	0.311
-387.019	-200.000	-0.026	-0.379
-386.004	-81.685	0.091	-0.030
-384.990	-200.000	0.010	0.217
-383.975	-41.111	0.101	0.052
-382.960	-66.525	0.167	0.067
-381.946	-139.414	0.136	0.015
-380.931	-200.000	-0.023	0.137
-379.917	-5.155	-0.256	-0.177
-378.902	-200.000	-0.013	-0.082
-377.888	-30.603	-0.247	-0.141
-376.873	-145.889	0.101	-0.009
-375.858	-200.000	0.001	-0.030
-374.844	-200.000	-0.057	0.381
-373.829	13.970	0.232	0.182
-372.815	-200.000	-0.012	0.119
-371.800	-23.322	-0.184	-0.111
-370.785	-95.810	-0.115	0.031
-369.771	204.720	0.054	-0.084
-368.756	-131.023	0.106	-0.014
-367.742	198.604	-0.065	0.100
-366.727	569.835	-0.100	-0.244
-365.712	-200.000	0.003	-0.066
-364.698	122.109	-0.177	0.222
-363.683	644.385	0.049	-0.127
-362.669	32.383	-0.297	0.258
-361.654	101.301	-0.234	-0.274
-360.639	66.521	-0.053	0.055
-359.625	-200.000	-0.020	0.169
-358.610	-57.541	0.280	0.123
-357.596	-152.334	0.113	-0.008
-356.581	150.524	0.177	-0.241
-355.566	380.145	-0.049	0.102
-354.552	709.108	0.144	0.383
-353.537	-75.518	-0.470	0.168
-352.523	-200.000	0.003	-0.112
-351.508	-200.000	-0.007	-0.049
-350.493	143.812	0.163	0.218
-349.479	-141.889	-0.188	-0.019
-348.464	181.711	0.076	-0.113
-347.450	800.000	-0.064	0.210
-346.435	86.394	0.155	0.171
-345.420	-97.536	0.217	0.057
-344.406	344.988	-0.025	0.049
-343.391	-112.533	-0.344	-0.069
-342.377	-191.979	0.373	0.004
-341.362	117.014	-0.016	0.020
-340.348	366.469	0.133	0.269
-339.333	86.926	-0.080	-0.089
-338.318	-200.000	0.094	0.599
-337.304	-171.606	0.254	0.008
-336.289	-150.769	-0.246	-0.019
-335.275	-134.032	0.262	-0.033
-334.260	23.481	0.135	0.111
-333.245	255.168	0.085	-0.145
-332.231	196.367	0.019	0.029
-331.216	-38.954	-0.280	0.148
-330.202	-105.416	0.258	0.059
-329.187	244.329	0.191	0.322
-328.172	800.000	-0.053	-0.195
-327.158	-92.479	-0.109	0.031
-326.143	-34.771	0.101	-0.056
-325.129	274.447	-0.090	-0.160
-324.114	-200.000	-0.011	0.049
-323.099	490.515	0.100	0.230
-322.085	147.611	0.151	0.204
-321.070	-52.634	-0.288	-0.133
-320.056	-19.026	-0.393	-0.245
-319.041	-32.360	0.204	0.114
-318.026	-134.228	-0.165	-0.020
-317.012	-156.536	0.180	0.011
-315.997	-137.761	-0.291	0.033
-314.983	-169.908	-0.268	0.010
-313.968	121.712	0.190	0.238
-312.953	-200.000	0.028	0.210
-311.939	-93.927	0.197	-0.054
-310.924	161.209	-0.098	0.138
-309.910	-53.385	0.276	0.127
-308.895	-79.510	-0.093	0.032
-307.880	800.000	0.069	-0.266
-306.866	55.361	-0.064	-0.062
-305.851	-129.442	-0.154	-0.021
-304.837	-200.000	-0.048	0.244
-303.822	-156.819	0.477	0.029
-302.807	646.892	0.136	0.349
-301.793	36.469	-0.238	-0.210
-300.778	377.260	-0.131	-0.268
-299.764	-43.147	0.479	-0.243
-298.749	171.653	-0.049	-0.070
-297.735	-114.188	-0.237	0.046
-296.720	-200.000	0.002	-0.476
-295.705	800.000	-0.060	-0.213
-294.691	136.519	-0.080	0.105
-293.676	800.000	-0.065	-0.286
-292.662	800.000	-0.121	-0.362
-291.647	-159.042	0.158	0.009
-290.632	-99.071	0.153	-0.039
-289.618	-47.609	0.254	-0.124
-288.603	246.656	0.044	-0.074
-287.589	-152.942	-0.358	-0.025
-286.574	507.061	-0.116	0.270
-285.559	661.167	-0.069	-0.177
-284.545	-97.875	-0.347	0.090
-283.530	45.666	-0.217	-0.201
-282.516	-200.000	0.025	-0.113
-281.501	-22.034	0.407	0.247
-280.486	-164.525	0.355	0.016
-279.472	-67.216	-0.238	0.094
-278.457	70.822	-0.175	-0.181
-277.443	800.000	-0.048	-0.204
-276.428	5.324	-0.187	0.138
-275.413	54.613	-0.140	0.136
-274.399	-17.415	0.307	-0.194
-273.384	800.000	-0.115	0.350
-272.370	-188.522	0.177	0.002
-271.355	6.000	-0.101	0.075
-270.340	44.609	-0.217	-0.200
-269.326	-168.977	0.101	-0.004
-268.311	-189.883	0.133	-0.002
-267.297	-86.491	0.416	0.128
-266.282	-68.301	0.506	0.197
-265.267	-16.313	0.222	-0.141
-264.253	131.657	-0.062	0.080
-263.238	-138.307	0.360	-0.040
-262.224	-200.000	0.032	-0.271
-261.209	77.602	-0.110	0.117
-260.195	50.745	-0.186	-0.176
-259.180	-163.356	-0.076	0.004
-258.165	800.000	0.123	-0.375
-257.151	-200.000	0.002	-0.020
-256.136	800.000	0.089	0.319
-255.122	-103.808	0.220	-0.051
-254.107	-37.631	0.110	0.058
-253.092	471.905	0.114	0.257
-252.078	-151.123	0.120	0.009
-251.063	-200.000	-0.002	0.059
-250.049	5.909	0.174	-0.129
-249.034	800.000	-0.046	0.147
-248.019	411.472	-0.051	-0.108
-247.005	-34.070	-0.064	0.035
-245.990	511.505	0.042	0.098
-244.976	529.511	-0.107	-0.253
-243.961	-187.956	0.296	0.004
-242.946	-101.538	0.164	-0.040
-241.932	-124.453	0.096	-0.015
-240.917	-92.102	-0.125	0.035
-239.903	81.515	0.122	0.132
-238.888	553.792	-0.094	-0.226
-237.873	-161.447	-0.166	0.009
-236.859	2.420	-0.274	-0.198
-235.844	-5.886	-0.251	-0.172
-234.830	800.000	0.009	-0.037
-233.815	-61.850	0.193	0.081
-232.800	-59.175	-0.235	-0.101
-231.786	-162.237	-0.185	-0.009
-230.771	-105.731	-0.290	0.066
-229.757	-147.033	-0.246	-0.021
-228.742	-173.411	-0.459	0.014
-227.727	-200.000	0.036	0.173
-226.713	800.000	-0.071	0.294
-225.698	-200.000	0.013	0.070
-224.684	627.648	0.050	0.127
-223.669	-7.857	-0.395	0.267
-222.655	-87.906	-0.100	0.030
-221.640	151.758	0.261	0.356
-220.625	800.000	0.008	0.030
-219.611	122.199	-0.077	-0.096
-218.596	-200.000	0.019	-0.352
-217.582	263.574	0.107	0.187
-216.567	193.306	0.066	0.099
-215.552	322.050	-0.057	-0.109
-214.538	-131.107	0.129	0.017
-213.523	73.902	0.106	0.111
-212.509	-173.403	-0.370	0.011
-211.494	-75.543	-0.269	-0.096
-210.479	-83.929	-0.101	0.032
-209.465	605.009	0.111	-0.276
-208.450	46.845	-0.173	-0.161
-207.436	25.058	-0.124	-0.103
-206.421	800.000	0.012	-0.048
-205.406	-30.694	0.213	-0.120
-204.392	-130.959	-0.302	-0.040
-203.377	800.000	-0.017	-0.057
-202.363	-25.529	0.163	0.096
-201.348	-113.793	-0.205	-0.040
-200.333	800.000	0.078	-0.304
-199.319	800.000	0.063	0.219
-198.304	-150.613	0.110	-0.008
-197.290	-156.943	-0.243	-0.015
-196.275	-18.748	0.285	0.177
-195.260	-93.536	0.225	-0.062
-194.246	22.949	-0.142	0.116
-193.231	527.674	-0.056	0.131
-192.217	-78.382	-0.373	-0.128
-191.202	457.733	0.078	-0.172
-190.187	-86.335	-0.150	-0.046
-189.173	-200.000	-0.017	0.115
-188.158	155.332	-0.202	-0.277
-187.144	386.929	-0.086	-0.177
-186.129	800.000	0.010	0.037
-185.114	113.326	0.054	0.065
-184.100	-74.582	-0.214	0.077
-183.085	-127.214	-0.252	0.037
-182.071	181.254	0.216	0.317
-181.056	-163.370	0.225	-0.011
-180.042	-88.415	-0.340	-0.101
-179.027	166.576	-0.160	-0.227
-178.012	-200.000	0.001	-0.284
-176.998	33.793	0.061	0.053
-175.983	348.050	-0.062	-0.122
-174.969	-13.818	-0.049	-0.032
-173.954	-31.501	-0.165	-0.092
-172.939	-200.000	-0.006	0.292
-171.925	-30.108	-0.076	-0.043
-170.910	-200.000	-0.036	0.199
-169.896	267.880	0.216	0.378
-168.881	127.457	-0.186	-0.236
-167.866	48.991	0.005	0.004
-166.852	12.961	-0.449	-0.347
-165.837	-26.982	-0.036	0.021
-164.823	147.768	-0.091	-0.122
-163.808	800.000	0.075	0.288
-162.793	-200.000	0.074	0.432
-161.779	-200.000	0.002	0.262
-160.764	-29.694	0.243	-0.138
-159.750	384.640	0.007	-0.014
-158.735	-40.818	0.324	0.167
-157.720	-43.663	-0.296	-0.149
-156.706	0.579	0.074	-0.052
-155.691	-198.946	0.150	0.001
-154.677	24.607	0.171	0.141
-153.662	6.260	-0.194	-0.143
-152.647	-200.000	0.012	0.596
-151.633	800.000	-0.087	-0.273
-150.618	-200.000	-0.050	-0.233
-149.604	366.427	-0.073	0.146
-148.589	-115.879	0.230	-0.043
-147.574	-28.946	0.358	-0.205
-146.560	-68.564	-0.097	0.037
-145.545	800.000	0.061	0.218
-144.531	-200.000	0.001	0.093
-143.516	46.833	0.268	-0.249
-142.502	-94.062	0.207	0.057
-141.487	-200.000	0.031	0.420
-140.472	-78.491	0.232	-0.079
-139.458	271.817	-0.081	0.142
-138.443	142.780	0.097	0.129
-137.429	-84.770	0.167	-0.052
-136.414	117.406	0.074	0.091
-135.399	120.065	0.225	0.278
-134.385	-25.352	0.187	0.110
-133.370	-1.781	0.162	-0.113
-132.356	-200.000	-0.102	0.485
-131.341	-200.000	0.005	-0.075
-130.326	-138.630	0.250	0.027
-129.312	-94.318	0.203	-0.055
-128.297	-200.000	0.058	-0.260
-127.283	-165.304	-0.388	0.017
-126.268	406.149	0.062	0.129
-125.253	-200.000	-0.103	0.469
-124.239	-200.000	0.003	0.165
-123.224	642.358	-0.105	-0.267
-122.210	-133.812	0.350	0.043
-121.195	-189.049	0.242	0.003
-120.180	-133.087	0.091	-0.011
-119.166	-90.941	-0.171	-0.049
-118.151	118.310	0.092	0.113
-117.137	-60.847	0.349	0.147
-116.122	51.922	0.047	0.044
-115.107	377.973	-0.014	-0.029
-114.093	-152.854	-0.405	-0.029
-113.078	48.151	-0.149	0.139
-112.064	-200.000	0.060	0.395
-111.049	136.376	-0.171	0.222
-110.034	800.000	-0.062	0.262
-109.020	136.789	-0.092	-0.120
-108.005	-42.494	0.321	-0.163
-106.991	-24.393	-0.131	-0.078
-105.976	556.346	0.104	0.250
-104.962	427.408	-0.041	0.087
-103.947	424.364	-0.070	-0.150
-102.932	213.084	-0.047	-0.074
-101.918	-53.442	-0.120	-0.055
-100.903	773.907	0.112	0.305
-99.889	411.738	-0.076	-0.160
-98.874	45.117	0.188	0.172
-97.859	-200.000	-0.060	-0.283
-96.845	-25.165	-0.362	-0.213
-95.830	308.990	-0.133	0.246
-94.816	243.382	0.129	-0.215
-93.801	111.705	-0.180	0.216
-92.786	199.164	-0.113	0.172
-91.772	-59.563	0.236	-0.101
-90.757	800.000	0.055	0.217
-89.743	206.106	-0.069	0.106
-88.728	-109.548	-0.224	0.047
-87.713	159.781	0.132	0.183
-86.699	-127.390	0.302	0.044
-85.684	-200.000	0.017	0.115
-84.670	768.658	-0.071	-0.192
-83.655	-200.000	-0.030	-0.237
-82.640	-110.764	-0.223	-0.046
-81.626	-7.477	0.186	0.125
-80.611	-100.646	0.159	-0.039
-79.597	-81.681	-0.073	0.024
-78.582	285.964	-0.105	-0.188
-77.567	-59.776	0.074	0.031
-76.553	-200.000	-0.011	0.263
-75.538	39.104	0.186	-0.166
-74.524	800.000	-0.060	-0.238
-73.509	-115.586	0.316	-0.059
-72.494	-55.046	0.053	0.024
-71.480	-5.323	0.321	-0.220
-70.465	-60.299	-0.151	-0.064
-69.451	125.750	0.115	-0.145
-68.436	-164.604	-0.074	0.003
-67.422	-170.260	0.136	-0.005
-66.407	-3.674	-0.147	0.102
-65.392	-47.557	0.283	-0.136
-64.378	104.829	0.157	0.183
-63.363	-55.854	-0.172	0.076
-62.349	-152.828	0.189	0.013
-61.334	79.365	-0.644	-0.687
-60.319	-84.479	0.482	0.151
-59.305	546.427	-0.323	-0.766
-58.290	121.639	0.624	0.773
-57.276	800.000	0.527	1.923
-56.261	-200.000	83.070	503.970
-55.246	553.925	1385.450	3309.993
-54.232	176.508	2647.295	3822.256
-53.217	120.541	2285.771	2820.982
-52.203	49.422	1727.684	1614.833
-51.188	41.444	1455.215	1308.072
-50.173	38.187	1411.036	1247.548
-49.159	56.718	1449.361	1401.407
-48.144	61.441	1468.278	1450.111
-47.130	41.812	1429.309	1286.946
-46.115	38.145	1412.866	1248.704
-45.100	37.957	1407.813	1242.987
-44.086	37.823	1405.338	1239.900
-43.071	37.869	1402.662	1237.780
-42.057	37.823	1400.333	1235.385
-41.042	37.918	1398.608	1234.417
-40.027	37.937	1397.342	1233.370
-39.013	37.904	1395.422	1231.419
-37.998	38.055	1393.240	1230.396
-36.984	38.084	1391.473	1228.972
-35.969	38.082	1389.707	1227.352
-34.954	38.087	1387.670	1225.534
-33.940	38.107	1386.436	1224.522
-32.925	38.109	1385.115	1223.315
-31.911	38.109	1383.190	1221.571
-30.896	38.154	1381.982	1220.733
-29.881	38.138	1380.575	1219.344
-28.867	38.081	1378.955	1217.508
-27.852	38.152	1377.429	1216.558
-26.838	38.158	1375.754	1215.066
-25.823	38.197	1374.260	1213.942
-24.809	38.170	1372.824	1212.457
-23.794	38.150	1371.627	1211.228
-22.779	38.148	1369.987	1209.717
-21.765	38.307	1368.743	1209.555
-20.750	38.189	1367.128	1207.351
-19.736	37.934	1366.428	1205.109
-18.721	38.049	1364.452	1204.027
-17.706	38.028	1363.542	1203.048
-16.692	37.945	1362.276	1201.372
-15.677	38.006	1361.257	1200.798
-14.663	37.897	1360.560	1199.465
-13.648	37.928	1359.330	1198.529
-12.633	38.095	1357.585	1197.967
-11.619	38.088	1356.833	1197.209
-10.604	38.047	1356.042	1196.215
-9.590	38.007	1355.044	1195.041
-8.575	37.991	1353.945	1193.925
-7.560	38.008	1352.841	1193.008
-6.546	38.022	1351.884	1192.205
-5.531	37.932	1351.358	1191.144
-4.517	38.045	1349.951	1190.543
-3.502	38.042	1349.167	1189.790
-2.487	37.956	1348.389	1188.533
-1.473	38.143	1343.678	1185.468
-0.458	37.025	1328.626	1165.427
0.556	30.812	1308.898	1122.480
1.571	27.008	1313.065	1102.896
2.586	26.038	1329.724	1110.819
3.600	25.365	1319.591	1098.144
4.615	19.141	1240.421	996.275
5.629	6.953	1153.145	860.146
6.644	0.256	1127.230	805.037
7.659	-0.341	1123.231	798.934
8.673	-0.516	1121.737	796.866
9.688	-0.545	1120.140	795.507
10.702	0.206	1119.846	799.218
11.717	7.926	1132.861	849.763
12.731	17.227	1146.102	909.630
13.746	17.170	1143.743	907.374
14.761	14.407	1139.384	889.113
15.775	13.382	1137.546	882.135
16.790	12.799	1136.265	877.962
17.804	12.694	1135.065	876.394
18.819	12.641	1134.052	875.256
19.834	12.416	1133.588	873.624
20.848	12.347	1132.438	872.295
21.863	12.196	1132.057	871.122
22.877	12.090	1131.376	869.958
23.892	11.914	1131.031	868.681
24.907	12.249	1129.858	869.478
25.921	12.236	1128.553	868.329
26.936	12.124	1127.372	866.754
27.950	12.274	1125.436	865.977
28.965	12.281	1123.693	864.599
29.980	12.190	1121.942	862.693
30.994	12.282	1120.694	862.143
32.009	12.243	1119.239	860.742
33.023	12.156	1118.160	859.379
34.038	12.310	1117.021	859.235
35.053	12.353	1115.985	858.586
36.067	12.305	1115.169	857.631
37.082	12.252	1114.878	857.055
38.096	12.329	1113.120	856.032
39.111	12.366	1112.477	855.651
40.126	12.346	1111.180	854.475
41.140	12.420	1109.549	853.531
42.155	12.117	1108.635	851.178
43.169	12.180	1107.089	850.241
44.184	12.278	1105.896	849.757
45.199	12.174	1104.877	848.362
46.213	12.139	1103.466	847.021
47.228	12.186	1101.984	846.054
48.242	12.162	1100.599	844.789
49.257	12.252	1099.849	844.601
50.271	12.388	1098.868	844.477
51.286	12.383	1098.186	843.849
52.301	12.217	1097.106	842.094
53.315	12.305	1095.953	841.588
54.330	12.297	1094.751	840.545
55.344	12.239	1094.147	839.714
56.359	12.246	1093.138	838.898
57.374	12.195	1092.386	837.987
58.388	12.296	1091.176	837.500
59.403	12.237	1090.343	836.488
60.417	12.201	1089.426	835.528
61.432	12.242	1088.704	835.108
62.447	12.222	1088.208	834.548
63.461	12.306	1086.780	833.806
64.476	12.359	1085.661	833.145
65.490	12.328	1084.832	832.278
66.505	12.356	1083.828	831.575
67.520	12.376	1083.470	831.328
68.534	12.394	1082.738	830.785
69.549	12.290	1081.567	829.287
70.563	12.352	1081.006	829.097
71.578	12.414	1080.278	828.779
72.593	12.322	1079.639	827.751
73.607	12.321	1079.036	827.212
74.622	12.440	1078.385	827.235
75.636	12.403	1077.289	826.136
76.651	12.349	1076.735	825.365
77.666	12.415	1075.575	824.736
78.680	12.346	1075.087	823.945
79.695	12.371	1074.106	823.244
80.709	12.402	1073.414	822.795
81.724	12.292	1072.937	821.806
82.739	12.525	1071.775	822.007
83.753	12.455	1071.015	821.005
84.768	12.449	1070.020	820.137
85.782	12.529	1068.701	819.455
86.797	12.465	1067.826	818.390
87.812	12.340	1067.017	817.076
88.826	12.403	1066.098	816.614
89.841	12.548	1064.429	815.983
90.855	12.514	1063.587	815.098
91.870	12.438	1062.659	813.935
92.884	12.482	1061.627	813.294
93.899	12.603	1060.403	812.881
94.914	12.592	1059.790	812.286
95.928	12.522	1059.167	811.390
96.943	12.345	1058.085	809.617
97.957	12.226	1057.188	808.271
98.972	12.292	1055.899	807.541
99.987	12.291	1054.832	806.648
101.001	12.427	1053.972	806.586
102.016	12.429	1053.437	806.117
103.030	12.423	1051.998	804.914
104.045	12.269	1051.544	803.740
105.060	12.307	1050.249	802.866
106.074	12.492	1049.373	803.030
107.089	12.524	1048.781	802.660
108.103	12.466	1047.903	801.636
109.118	12.379	1047.000	800.452
110.133	12.659	1045.373	800.499
111.147	12.579	1044.269	799.191
112.162	12.520	1043.573	798.302
113.176	12.494	1042.385	797.197
114.191	12.544	1041.429	796.637
115.206	12.579	1040.267	795.849
116.220	12.504	1039.702	794.983
117.235	12.652	1038.895	795.009
118.249	12.589	1038.031	793.972
119.264	12.560	1037.103	793.053
120.279	12.613	1035.955	792.359
121.293	12.725	1035.216	792.264
122.308	12.609	1034.251	790.900
123.322	12.639	1033.021	790.030
124.337	12.724	1031.570	789.258
125.352	12.540	1029.678	786.863
126.366	12.428	1028.438	785.311
127.381	12.582	1028.040	785.672
128.395	12.685	1027.073	785.356
129.410	12.779	1025.681	784.670
130.424	12.777	1024.734	783.864
131.439	12.686	1024.050	782.838
132.454	12.788	1023.107	782.536
133.468	12.655	1022.488	781.361
134.483	12.749	1021.464	780.954
135.497	12.722	1020.572	780.073
136.512	12.788	1019.069	779.171
137.527	12.851	1018.173	778.714
138.541	12.804	1017.658	778.030
139.556	12.783	1016.988	777.351
140.570	12.891	1015.914	776.965
141.585	12.764	1015.044	775.636
142.600	12.724	1014.055	774.624
143.614	12.867	1012.623	774.134
144.629	12.762	1012.068	773.148
145.643	12.808	1010.805	772.330
146.658	12.711	1009.898	771.112
147.673	12.782	1008.964	770.663
148.687	12.756	1008.053	769.781
149.702	12.823	1007.164	769.347
150.716	12.756	1006.257	768.270
151.731	12.733	1005.764	767.721
152.746	12.886	1004.500	767.401
153.760	12.881	1003.673	766.676
154.775	12.796	1003.160	765.822
155.789	12.844	1002.556	765.515
156.804	12.773	1001.678	764.447
157.819	12.775	1001.103	763.951
158.833	12.904	1000.214	763.804
159.848	12.760	999.347	762.405
160.862	12.849	997.840	761.600
161.877	12.941	996.903	761.242
162.892	12.825	996.216	760.113
163.906	12.899	994.707	759.236
164.921	12.852	994.144	758.526
165.935	12.954	992.902	757.980
166.950	12.796	992.092	756.569
167.964	12.893	991.280	756.329
168.979	12.859	990.131	755.229
169.994	12.879	989.321	754.636
171.008	13.017	988.579	754.631
172.023	12.823	987.468	752.830
173.037	12.846	986.397	752.053
174.052	12.641	986.084	750.814
175.067	12.850	985.167	750.999
176.081	12.948	985.056	751.297
177.096	13.027	983.813	750.642
178.110	13.000	983.203	749.988
179.125	12.894	982.425	748.844
180.140	12.950	982.166	748.837
181.154	12.931	981.240	747.978
182.169	12.992	981.052	748.045
183.183	13.016	980.219	747.453
184.198	13.020	978.986	746.463
185.213	12.906	978.609	745.594
186.227	13.150	977.452	745.750
187.242	13.065	977.107	745.036
188.256	13.206	975.692	744.528
189.271	13.083	975.176	743.513
190.286	12.965	974.648	742.513
191.300	12.922	973.961	741.733
192.315	12.897	972.998	740.819
193.329	12.797	972.113	739.633
194.344	13.078	971.624	740.456
195.359	13.147	971.343	740.483
196.373	13.124	970.118	739.380
197.388	13.007	969.851	738.592
198.402	12.997	969.154	737.951
199.417	12.965	968.471	737.219
200.432	12.924	967.453	736.199
201.446	12.882	966.829	735.469
202.461	12.848	966.609	735.084
203.475	12.867	965.424	734.205
204.490	12.690	964.863	732.924
205.504	12.935	963.920	733.233
206.519	13.188	963.314	733.831
207.534	13.081	962.813	732.910
208.548	13.112	962.373	732.646
209.563	13.081	961.234	731.579
210.577	13.194	960.344	731.337
211.592	13.254	959.674	731.028
212.607	13.138	958.609	729.638
213.621	13.247	958.119	729.681
214.636	13.301	957.270	729.207
215.650	13.286	956.415	728.427
216.665	13.302	955.911	728.048
217.680	13.292	955.092	727.314
218.694	13.166	954.263	726.067
219.709	13.238	953.631	725.836
220.723	13.246	952.823	725.197
221.738	13.301	952.161	724.867
222.753	13.468	950.854	724.540
223.767	13.250	950.606	723.335
224.782	13.306	949.859	722.945
225.796	13.411	949.198	722.837
226.811	13.221	948.364	721.309
227.826	13.272	947.408	720.739
228.840	13.420	946.521	720.647
229.855	13.237	946.214	719.552
230.869	13.262	945.281	718.886
231.884	13.409	944.469	718.844
232.899	13.405	943.743	718.211
233.913	13.458	942.878	717.720
234.928	13.439	941.995	716.899
235.942	13.383	942.092	716.668
236.957	13.521	941.024	716.390
237.972	13.421	940.745	715.682
238.986	13.510	939.568	715.109
240.001	13.431	938.967	714.246
241.015	13.426	938.074	713.483
242.030	13.396	937.580	712.913
243.045	13.461	936.503	712.311
244.059	13.459	936.026	711.876
245.074	13.450	935.115	711.081
246.088	13.421	934.312	710.283
247.103	13.427	933.659	709.752
248.117	13.521	933.536	709.998
249.132	13.482	932.300	708.830
250.147	13.609	931.297	708.545
251.161	13.527	930.435	707.478
252.176	13.612	929.667	707.193
253.190	13.469	929.260	706.211
254.205	13.727	928.079	706.350
255.220	13.663	927.315	705.433
256.234	13.596	926.758	704.661
257.249	13.743	926.128	704.745
258.263	13.568	925.339	703.339
259.278	13.682	924.568	703.173
260.293	13.622	923.897	702.349
261.307	13.604	923.190	701.674
262.322	13.629	922.697	701.342
263.336	13.639	921.612	700.497
264.351	13.614	920.599	699.559
265.366	13.457	920.265	698.583
266.380	13.617	919.649	698.726
267.395	13.725	918.957	698.594
268.409	13.737	917.956	697.824
269.424	13.739	916.996	697.040
270.439	13.723	916.300	696.380
271.453	13.761	915.535	695.896
272.468	13.696	915.354	695.424
273.482	13.752	914.423	694.889
274.497	13.694	913.734	694.065
275.512	13.641	913.095	693.295
276.526	13.895	912.449	693.804
277.541	13.979	911.506	693.378
278.555	13.870	910.839	692.352
279.570	13.804	910.112	691.463
280.585	13.927	909.153	691.187
281.599	13.815	908.546	690.198
282.614	13.857	907.970	689.874
283.628	13.808	907.226	689.045
284.643	13.877	906.375	688.625
285.657	13.983	905.682	688.477
286.672	14.018	904.978	688.024
287.687	13.875	904.607	687.089
288.701	13.870	904.018	686.559
289.716	13.934	902.926	685.933
290.730	13.937	902.729	685.735
291.745	13.933	902.232	685.282
292.760	14.071	901.064	684.903
293.774	14.030	900.690	684.390
294.789	14.012	899.558	683.393
295.803	13.865	898.974	682.284
296.818	13.979	898.370	682.237
297.833	13.899	897.649	681.301
298.847	13.986	896.991	681.098
299.862	14.053	896.509	680.943
300.876	13.879	895.698	679.558
301.891	13.991	895.111	679.507
302.906	14.062	894.828	679.525
303.920	14.020	893.826	678.532
304.935	13.982	893.493	678.062
305.949	13.827	892.822	676.861
306.964	13.987	891.914	676.766
307.979	14.148	891.091	676.736
308.993	14.045	890.194	675.578
310.008	13.987	890.035	675.162
311.022	14.078	889.312	674.923
312.037	14.105	888.790	674.574
313.052	14.088	888.341	674.108
314.066	14.145	888.128	674.114
315.081	14.134	887.523	673.554
316.095	14.153	886.516	672.806
317.110	14.071	886.028	672.044
318.125	14.126	885.574	671.864
319.139	14.272	885.201	672.110
320.154	14.240	884.705	671.543
321.168	14.256	883.557	670.680
322.183	14.201	882.970	669.953
323.197	14.156	882.756	669.549
324.212	14.164	881.829	668.821
325.227	14.113	881.182	668.066
326.241	14.163	880.989	668.058
327.256	14.056	880.044	666.855
328.270	14.164	879.345	666.700
329.285	14.196	878.886	666.421
330.300	14.134	878.487	665.809
331.314	14.202	877.706	665.431
332.329	14.333	876.837	665.238
333.343	14.202	876.832	664.650
334.358	14.309	875.949	664.351
335.373	14.185	875.815	663.697
336.387	14.170	875.667	663.463
337.402	14.246	875.153	663.319
338.416	14.203	874.851	662.862
339.431	14.180	874.139	662.168
340.446	14.227	873.834	662.069
341.460	14.313	873.247	661.908
342.475	14.457	872.839	662.108
343.489	14.554	871.755	661.613
344.504	14.425	871.319	660.715
345.519	14.358	870.998	660.146
346.533	14.331	870.349	659.490
347.548	14.374	869.730	659.131
348.562	14.300	869.630	658.706
349.577	14.306	868.864	658.089
350.592	14.448	867.704	657.713
351.606	14.395	867.120	657.005
352.621	14.465	866.525	656.769
353.635	14.413	866.124	656.203
354.650	14.381	865.771	655.754
355.665	14.572	865.488	656.232
356.679	14.666	864.200	655.567
357.694	14.587	863.668	654.793
358.708	14.528	862.692	653.765
359.723	14.394	862.463	653.007
360.738	14.465	861.591	652.570
361.752	14.414	860.712	651.645
362.767	14.490	859.852	651.232
363.781	14.411	859.709	650.760
364.796	14.379	859.226	650.210
365.810	14.342	858.332	649.334
366.825	14.395	858.118	649.321
367.840	14.545	857.424	649.320
368.854	14.605	857.170	649.305
369.869	14.516	856.844	648.655
370.883	14.488	856.194	647.997
371.898	14.657	855.848	648.334
372.913	14.459	855.870	647.525
373.927	14.602	854.778	647.195
374.942	14.507	854.242	646.365
375.956	14.546	853.696	646.046
376.971	14.564	853.277	645.740
377.986	14.377	852.640	644.476
379.000	14.377	852.592	644.385
380.015	14.556	851.697	644.341
381.029	14.645	850.818	643.963
382.044	14.525	850.499	643.202
383.059	14.683	849.840	643.256
384.073	14.488	849.121	641.905
385.088	14.465	848.694	641.437
386.102	14.569	848.090	641.320
387.117	14.415	847.227	640.021
388.132	14.576	846.834	640.286
389.146	14.791	846.519	640.815
390.161	14.806	845.932	640.373
391.175	14.592	845.608	639.251
392.190	14.720	845.512	639.613
393.205	15.088	845.044	640.611
394.219	15.396	845.236	641.876
395.234	15.544	844.644	641.936
396.248	15.065	843.429	639.125
397.263	14.653	842.503	636.797
398.278	14.406	842.304	635.649
399.292	14.497	841.912	635.645
400.307	14.590	840.768	635.078
401.321	14.561	840.536	634.736
402.336	14.445	840.074	633.888
403.350	14.497	839.626	633.695
404.365	14.331	839.291	632.752
405.380	14.327	838.223	631.877
406.394	14.396	836.979	631.144
407.409	14.317	837.352	631.070
408.423	14.463	837.251	631.493
409.438	14.517	836.633	631.173
410.453	14.361	835.879	629.960
411.467	14.194	835.492	628.981
412.482	14.214	834.949	628.593
413.496	14.253	834.680	628.482
414.511	14.289	833.999	628.051
415.526	14.261	833.622	627.605
416.540	14.451	833.372	628.077
417.555	14.669	832.680	628.321
418.569	14.668	832.278	627.958
419.584	14.580	832.327	627.607
420.599	14.665	831.701	627.400
421.613	149.462	1357.425	1774.519
422.628	130.634	1434.051	1774.652
