DTS Sentinel unit serial number:	SN413079Multiplexer serial number:	ORYXHardware model number:	OX4-SRSoftware version number:	ORYX F/W v4.00 Oryx Data Collector v3.7.2.0data status	okinstallation	princeton_trtdifferential loss correction	single-endedforward channel	channel 1reverse channel	N/Adate	2019/09/16time	21:58:35forward acquisition time	60.00reverse acquisition time	0.00gamma	496.2192k internal	0.2324k external	0.2324temperature offset calibration	0.9958default loss term (dB/km)	0.3790temperature slope calibration	1.0000multiplexer offset coefficient	1.0000multiplexer slope coefficient	1.0000fibre end	0.00T internal ref (°C)	31.19T ext. ref 1 (°C)	0.07T ext. ref 2 (°C)	25.43length (m)	temperature (°C)	Stokes	anti-Stokes-747.200	-11.247	0.084	0.056
-746.185	381.791	0.069	0.143
-745.171	521.490	0.036	0.084
-744.156	-172.529	-0.217	-0.007
-743.142	757.280	0.030	-0.082
-742.127	-107.350	0.167	-0.037
-741.112	-135.537	-0.637	-0.077
-740.098	800.000	0.011	0.041
-739.083	-112.362	-0.027	-0.006
-738.069	-6.933	-0.281	0.192
-737.054	-60.037	0.231	0.100
-736.039	-154.341	-0.336	0.023
-735.025	108.295	0.210	0.252
-734.010	-200.000	-0.036	0.342
-732.996	373.310	-0.128	-0.263
-731.981	28.136	-0.185	-0.158
-730.966	800.000	-0.109	-0.348
-729.952	80.342	-0.252	-0.274
-728.937	-40.605	-0.328	-0.172
-727.923	-200.000	-0.034	-0.202
-726.908	-200.000	-0.037	-0.176
-725.894	-104.347	-0.177	-0.041
-724.879	800.000	0.035	-0.120
-723.864	183.661	0.177	0.264
-722.850	800.000	0.011	0.044
-721.835	-107.456	-0.167	0.037
-720.821	800.000	0.142	0.621
-719.806	-104.026	-0.187	-0.044
-718.791	-98.085	-0.287	0.074
-717.777	-163.829	-0.124	0.006
-716.762	53.833	0.104	-0.101
-715.748	-200.000	0.050	-0.251
-714.733	130.821	0.285	0.369
-713.718	-40.348	-0.293	-0.154
-712.704	-48.581	-0.187	-0.091
-711.689	348.944	0.070	-0.139
-710.675	15.961	0.067	-0.053
-709.660	10.355	0.285	-0.219
-708.645	-200.000	0.017	-0.106
-707.631	-133.188	-0.131	0.017
-706.616	-188.289	0.316	-0.004
-705.602	199.388	0.112	0.174
-704.587	-34.759	-0.139	0.076
-703.572	800.000	-0.024	-0.104
-702.558	-166.684	0.188	0.008
-701.543	-83.204	-0.205	0.066
-700.529	-138.533	-0.333	0.037
-699.514	112.135	0.182	-0.222
-698.499	-200.000	-0.038	0.186
-697.485	-111.619	-0.196	0.040
-696.470	-107.338	-0.168	-0.037
-695.456	800.000	-0.055	-0.166
-694.441	73.130	-0.141	-0.148
-693.426	800.000	-0.101	-0.292
-692.412	-200.000	-0.034	-0.293
-691.397	-44.762	-0.215	-0.108
-690.383	-49.031	-0.090	-0.043
-689.368	800.000	-0.019	-0.056
-688.354	5.054	0.148	-0.109
-687.339	402.479	-0.141	-0.299
-686.324	184.095	0.144	-0.215
-685.310	800.000	-0.101	0.307
-684.295	-66.410	-0.183	-0.073
-683.281	61.780	-0.098	-0.098
-682.266	47.304	0.072	-0.067
-681.251	290.397	-0.192	0.351
-680.237	119.480	-0.048	-0.060
-679.222	-123.404	-0.386	-0.062
-678.208	-152.434	-0.058	-0.004
-677.193	-200.000	-0.011	-0.405
-676.178	-107.761	-0.285	0.063
-675.164	-200.000	0.022	0.234
-674.149	-21.727	-0.172	-0.105
-673.135	15.276	-0.503	0.397
-672.120	551.412	0.028	0.069
-671.105	88.808	-0.072	-0.080
-670.091	-200.000	-0.001	0.292
-669.076	-26.025	-0.099	-0.058
-668.062	234.134	0.214	0.355
-667.047	264.665	-0.123	0.215
-666.032	191.110	-0.134	0.203
-665.018	-158.401	-0.411	-0.024
-664.003	-25.058	0.094	-0.056
-662.989	13.457	0.033	0.026
-661.974	480.809	-0.115	-0.263
-660.959	-76.031	-0.197	0.070
-659.945	-83.617	-0.089	0.028
-658.930	198.700	-0.067	0.103
-657.916	-200.000	0.037	0.564
-656.901	-115.556	0.095	-0.018
-655.886	54.216	-0.092	0.089
-654.872	42.169	-0.110	-0.101
-653.857	716.500	0.024	0.063
-652.843	37.296	-0.246	0.219
-651.828	-10.645	-0.205	0.136
-650.814	-42.956	0.270	0.138
-649.799	88.775	0.230	0.258
-648.784	6.603	-0.095	-0.071
-647.770	60.235	0.379	-0.377
-646.755	-82.294	0.111	-0.036
-645.741	40.328	0.153	-0.138
-644.726	47.397	-0.135	0.126
-643.711	-117.957	-0.122	-0.022
-642.697	-48.661	-0.169	-0.082
-641.682	672.943	-0.108	-0.281
-640.668	138.158	-0.089	-0.117
-639.653	-108.970	-0.183	-0.039
-638.638	60.160	0.067	0.067
-637.624	-196.420	0.453	0.003
-636.609	134.935	-0.176	0.230
-635.595	16.689	0.087	-0.069
-634.580	360.281	0.037	-0.075
-633.565	-200.000	-0.033	-0.202
-632.551	-55.492	-0.247	-0.111
-631.536	260.298	-0.031	0.055
-630.522	59.309	0.242	0.240
-629.507	800.000	-0.053	-0.169
-628.492	178.366	-0.050	-0.073
-627.478	107.498	-0.145	0.174
-626.463	-104.561	-0.189	0.044
-625.449	800.000	0.049	-0.164
-624.434	-92.162	-0.139	0.039
-623.419	-6.758	0.138	0.094
-622.405	12.839	0.050	-0.039
-621.390	33.869	-0.041	0.036
-620.376	203.604	0.069	-0.107
-619.361	6.333	0.379	0.283
-618.346	151.580	-0.226	0.309
-617.332	-200.000	0.415	0.001
-616.317	101.576	0.180	-0.211
-615.303	669.788	-0.163	-0.425
-614.288	800.000	-0.029	0.093
-613.273	37.111	0.215	-0.191
-612.259	-200.000	-0.035	0.168
-611.244	-57.979	-0.368	0.161
-610.230	-128.182	0.376	0.054
-609.215	-48.376	0.346	-0.168
-608.201	771.024	-0.153	0.418
-607.186	-58.943	0.295	-0.128
-606.171	-78.010	0.064	0.022
-605.157	-163.373	0.304	0.015
-604.142	99.890	-0.175	0.203
-603.128	566.145	-0.128	0.312
-602.113	-112.138	0.243	-0.049
-601.098	-118.628	0.061	0.011
-600.084	-200.000	-0.007	-0.164
-599.069	-62.425	-0.116	-0.049
-598.055	126.090	0.227	0.288
-597.040	613.004	-0.084	-0.211
-596.025	96.455	-0.089	-0.102
-595.011	-51.794	0.219	0.102
-593.996	800.000	-0.066	0.210
-592.982	182.086	-0.134	0.198
-591.967	800.000	0.079	0.240
-590.952	800.000	-0.097	0.324
-589.938	800.000	0.025	0.098
-588.923	800.000	-0.032	-0.092
-587.909	150.375	-0.223	-0.303
-586.894	-135.744	0.182	-0.022
-585.879	49.303	-0.388	-0.366
-584.865	-200.000	-0.018	0.217
-583.850	-36.015	-0.184	-0.100
-582.836	-58.856	0.299	-0.130
-581.821	-109.541	0.105	-0.022
-580.806	-93.775	0.116	0.032
-579.792	298.045	0.063	-0.115
-578.777	109.294	0.083	0.100
-577.763	800.000	0.054	0.161
-576.748	181.198	0.198	-0.291
-575.733	-168.948	0.564	0.021
-574.719	-200.000	0.026	-0.143
-573.704	-68.992	-0.288	-0.111
-572.690	-175.534	0.125	0.003
-571.675	375.849	0.036	0.074
-570.661	-200.000	-0.012	0.255
-569.646	-62.401	0.490	0.204
-568.631	-124.321	-0.181	-0.028
-567.617	6.868	-0.119	0.089
-566.602	258.889	-0.082	0.141
-565.588	-200.000	0.049	-0.346
-564.573	84.202	-0.076	0.084
-563.558	-200.000	-0.036	0.186
-562.544	35.224	-0.184	-0.162
-561.529	93.648	0.247	-0.280
-560.515	-200.000	-0.011	0.051
-559.500	352.426	0.022	0.045
-558.485	746.886	-0.054	0.145
-557.471	800.000	0.052	0.173
-556.456	-21.316	-0.189	-0.116
-555.442	-9.048	-0.191	-0.128
-554.427	26.441	0.138	0.115
-553.412	-104.107	-0.138	0.032
-552.398	-172.913	0.191	0.006
-551.383	539.423	-0.148	-0.354
-550.369	690.036	0.036	-0.093
-549.354	46.914	0.269	-0.251
-548.339	75.954	-0.141	-0.149
-547.325	-0.300	-0.140	0.100
-546.310	80.998	0.110	0.119
-545.296	-200.000	-0.002	-0.124
-544.281	-200.000	-0.070	-0.345
-543.266	-77.024	-0.168	-0.059
-542.252	73.041	0.153	-0.160
-541.237	-200.000	0.056	-0.313
-540.223	800.000	-0.010	0.035
-539.208	-41.532	-0.246	-0.126
-538.193	54.571	0.137	0.133
-537.179	407.833	-0.097	-0.205
-536.164	19.357	-0.249	0.200
-535.150	104.813	0.096	-0.113
-534.135	-200.000	0.001	-0.312
-533.121	15.253	0.045	0.035
-532.106	157.995	-0.319	0.443
-531.091	354.208	-0.089	-0.177
-530.077	-200.000	-0.033	0.225
-529.062	92.267	-0.154	0.174
-528.048	-16.056	0.353	0.225
-527.033	42.715	-0.091	0.083
-526.018	800.000	0.035	0.141
-525.004	-61.197	-0.141	0.060
-523.989	-200.000	-0.020	0.153
-522.975	-9.713	0.019	-0.012
-521.960	-180.505	-0.250	0.005
-520.945	-129.605	0.286	-0.040
-519.931	800.000	-0.119	0.515
-518.916	-29.221	-0.078	-0.045
-517.902	-86.715	-0.042	0.013
-516.887	-130.609	0.143	-0.019
-515.872	-92.676	-0.098	-0.027
-514.858	-200.000	-0.011	-0.188
-513.843	-72.738	-0.415	-0.153
-512.829	-15.550	0.228	0.146
-511.814	800.000	-0.051	0.170
-510.799	-81.984	-0.224	0.073
-509.785	-200.000	0.002	-0.257
-508.770	800.000	-0.046	0.150
-507.756	-105.610	-0.307	0.070
-506.741	148.631	0.144	-0.194
-505.726	96.876	-0.137	-0.157
-504.712	173.482	-0.107	-0.154
-503.697	4.993	-0.204	-0.150
-502.683	-71.600	0.237	0.088
-501.668	72.676	-0.100	0.104
-500.653	301.652	0.012	0.022
-499.639	303.380	0.085	-0.157
-498.624	800.000	0.118	0.471
-497.610	247.691	0.227	-0.383
-496.595	-110.957	0.142	0.029
-495.581	-200.000	-0.020	-0.161
-494.566	-172.437	0.133	-0.004
-493.551	56.270	-0.245	0.238
-492.537	-44.396	-0.263	-0.132
-491.522	-200.000	0.004	-0.150
-490.508	-120.594	0.164	0.028
-489.493	800.000	0.030	0.126
-488.478	-116.651	0.075	0.014
-487.464	18.338	0.333	0.266
-486.449	-200.000	0.013	0.122
-485.435	306.113	-0.061	0.113
-484.420	289.010	0.153	-0.277
-483.405	800.000	0.038	-0.108
-482.391	800.000	0.027	-0.100
-481.376	466.466	-0.072	-0.161
-480.362	289.582	0.156	-0.282
-479.347	-55.523	-0.337	0.151
-478.332	305.242	-0.253	-0.470
-477.318	694.635	0.097	-0.255
-476.303	-47.519	-0.160	0.078
-475.289	428.344	-0.069	-0.150
-474.274	-98.757	0.188	0.048
-473.259	-39.713	0.329	0.172
-472.245	-200.000	0.048	-0.245
-471.230	-66.584	-0.083	-0.033
-470.216	-96.035	-0.179	-0.048
-469.201	-200.000	-0.015	0.308
-468.186	127.270	-0.246	-0.312
-467.172	-200.000	-0.006	-0.087
-466.157	-18.224	0.062	0.039
-465.143	6.147	-0.177	0.131
-464.128	800.000	0.041	-0.149
-463.113	-81.818	-0.079	0.026
-462.099	182.442	0.076	0.112
-461.084	-200.000	0.018	0.102
-460.070	-101.842	-0.211	-0.051
-459.055	139.249	0.046	0.061
-458.040	-200.000	-0.014	0.079
-457.026	-80.850	0.315	0.104
-456.011	800.000	-0.047	0.129
-454.997	-117.670	-0.209	0.038
-453.982	-61.840	0.280	0.117
-452.968	414.250	0.165	-0.350
-451.953	-200.000	0.033	-0.194
-450.938	254.531	0.116	0.198
-449.924	-10.304	-0.164	0.108
-448.909	800.000	0.029	0.107
-447.895	-125.744	-0.081	0.012
-446.880	564.496	-0.104	0.252
-445.865	67.984	-0.128	0.131
-444.851	120.464	-0.173	0.215
-443.836	33.297	0.150	0.130
-442.822	9.140	-0.273	-0.206
-441.807	800.000	0.052	-0.174
-440.792	14.857	0.178	0.139
-439.778	800.000	-0.077	0.232
-438.763	-200.000	-0.011	-0.273
-437.749	-200.000	-0.031	-0.169
-436.734	-75.094	0.180	-0.064
-435.719	363.344	0.037	0.074
-434.705	-200.000	0.044	-0.273
-433.690	361.540	0.175	0.350
-432.676	-200.000	0.005	0.139
-431.661	-200.000	-0.031	0.199
-430.646	-119.272	0.062	-0.011
-429.632	-200.000	0.017	0.137
-428.617	184.770	0.050	0.074
-427.603	-200.000	0.067	0.371
-426.588	36.852	0.250	0.221
-425.573	-200.000	-0.006	-0.217
-424.559	-200.000	0.006	0.037
-423.544	-35.242	0.376	0.204
-422.530	800.000	0.009	0.028
-421.515	-26.646	-0.345	-0.201
-420.500	-39.692	-0.220	0.115
-419.486	-14.494	0.179	0.115
-418.471	134.232	-0.065	0.084
-417.457	800.000	-0.067	0.199
-416.442	-94.588	0.341	-0.093
-415.428	-62.432	-0.156	-0.065
-414.413	61.881	-0.176	-0.175
-413.398	13.090	-0.114	0.088
-412.384	-52.228	0.077	0.035
-411.369	181.206	-0.113	-0.166
-410.355	-8.841	0.135	-0.090
-409.340	370.574	0.069	-0.140
-408.325	386.379	-0.048	-0.100
-407.311	215.098	-0.255	-0.402
-406.296	214.492	-0.091	0.144
-405.282	275.879	0.142	-0.251
-404.267	800.000	-0.083	0.250
-403.252	-200.000	-0.002	-0.064
-402.238	-96.097	-0.281	-0.074
-401.223	-11.693	-0.180	0.117
-400.209	285.016	-0.050	0.090
-399.194	-79.777	0.319	0.107
-398.179	-200.000	-0.008	-0.156
-397.165	-62.069	0.111	0.046
-396.150	-92.418	-0.172	0.048
-395.136	-200.000	0.006	0.196
-394.121	80.340	-0.274	-0.294
-393.106	185.006	0.287	-0.424
-392.092	800.000	0.048	0.196
-391.077	51.293	0.140	0.132
-390.063	30.890	-0.198	-0.169
-389.048	-200.000	-0.037	0.161
-388.033	372.002	-0.188	-0.379
-387.019	-88.660	-0.245	-0.073
-386.004	-22.023	0.145	-0.088
-384.990	-8.437	-0.234	-0.157
-383.975	800.000	0.069	-0.248
-382.960	191.127	0.140	0.209
-381.946	145.971	0.038	0.051
-380.931	400.424	0.092	0.192
-379.917	260.125	0.162	0.278
-378.902	-69.313	-0.179	0.069
-377.888	35.843	-0.243	-0.213
-376.873	55.171	0.243	-0.234
-375.858	315.513	-0.171	-0.321
-374.844	44.841	-0.171	0.156
-373.829	126.727	0.024	-0.030
-372.815	-200.000	-0.003	-0.189
-371.800	262.682	-0.161	0.277
-370.785	-200.000	0.033	0.356
-369.771	333.874	0.095	-0.182
-368.756	177.534	-0.228	0.330
-367.742	-19.733	-0.085	0.052
-366.727	-200.000	0.004	0.029
-365.712	-159.045	-0.246	-0.014
-364.698	-77.936	-0.173	0.059
-363.683	800.000	-0.049	0.195
-362.669	-70.140	-0.030	-0.011
-361.654	800.000	-0.086	-0.345
-360.639	91.732	-0.029	0.032
-359.625	-18.701	0.136	-0.084
-358.610	800.000	0.016	-0.067
-357.596	174.205	0.153	0.220
-356.581	-200.000	0.006	-0.121
-355.566	-152.955	-0.193	-0.014
-354.552	179.775	0.039	0.057
-353.537	-29.479	-0.187	-0.107
-352.523	22.250	0.054	0.043
-351.508	-178.432	0.173	0.004
-350.493	298.496	-0.101	0.185
-349.479	-200.000	0.002	-0.045
-348.464	-200.000	0.038	-0.253
-347.450	-148.819	0.072	0.006
-346.435	-60.543	-0.066	0.028
-345.420	-117.448	-0.080	0.014
-344.406	800.000	-0.028	0.094
-343.391	152.491	-0.077	0.104
-342.377	110.560	0.012	0.015
-341.362	155.296	-0.035	-0.048
-340.348	274.730	-0.210	0.370
-339.333	-200.000	0.329	0.001
-338.318	-147.808	-0.362	0.030
-337.304	-39.106	0.127	-0.066
-336.289	264.309	-0.133	-0.230
-335.275	132.147	-0.001	0.001
-334.260	61.495	-0.174	-0.172
-333.245	-54.900	-0.116	0.052
-332.231	-11.322	-0.050	-0.033
-331.216	-14.195	-0.185	-0.118
-330.202	-26.118	-0.264	-0.154
-329.187	-88.441	0.238	0.071
-328.172	-200.000	0.051	-0.305
-327.158	14.398	-0.087	-0.068
-326.143	321.585	-0.109	-0.207
-325.129	-84.322	-0.053	-0.017
-324.114	-5.618	0.088	-0.060
-323.099	-130.831	0.354	-0.047
-322.085	-111.050	0.049	0.010
-321.070	-53.624	-0.301	-0.137
-320.056	481.002	-0.036	0.082
-319.041	587.081	-0.168	-0.409
-318.026	-200.000	-0.001	0.159
-317.012	-200.000	-0.010	0.113
-315.997	310.080	0.140	0.259
-314.983	-3.765	0.171	-0.118
-313.968	-15.947	0.235	-0.148
-312.953	800.000	-0.093	-0.333
-311.939	-200.000	-0.057	0.315
-310.924	-200.000	0.013	0.124
-309.910	179.420	0.128	0.186
-308.895	-35.114	-0.136	-0.074
-307.880	-8.224	0.107	0.071
-306.866	212.809	-0.220	0.345
-305.851	-200.000	-0.018	-0.396
-304.837	-140.272	0.327	0.034
-303.822	-84.370	0.212	-0.066
-302.807	800.000	0.071	0.204
-301.793	-35.716	-0.101	-0.054
-300.778	7.133	-0.137	0.101
-299.764	-23.738	-0.209	0.124
-298.749	800.000	-0.056	0.202
-297.735	800.000	0.032	0.128
-296.720	73.452	-0.152	0.158
-295.705	542.381	-0.125	0.297
-294.691	-200.000	-0.008	-0.101
-293.676	-200.000	0.000	-0.012
-292.662	-123.061	0.160	0.026
-291.647	454.225	0.045	0.100
-290.632	-43.612	0.035	-0.017
-289.618	253.214	-0.135	-0.228
-288.603	745.150	-0.155	-0.413
-287.589	-200.000	0.005	-0.021
-286.574	336.328	0.142	0.274
-285.559	-155.874	0.321	-0.020
-284.545	-200.000	-0.007	-0.220
-283.530	-23.731	0.304	-0.181
-282.516	545.198	-0.061	0.143
-281.501	106.771	0.105	-0.123
-280.486	-8.047	0.213	0.142
-279.472	-8.944	0.214	0.142
-278.457	38.836	0.280	0.247
-277.443	37.087	-0.070	-0.062
-276.428	252.498	-0.005	-0.008
-275.413	61.349	0.047	0.047
-274.399	-200.000	0.000	-0.173
-273.384	372.939	-0.211	-0.424
-272.370	-16.706	0.047	0.030
-271.355	-14.241	0.263	0.168
-270.340	109.935	-0.136	-0.162
-269.326	-200.000	0.029	-0.280
-268.311	11.631	0.167	0.127
-267.297	-200.000	0.044	0.424
-266.282	85.459	-0.060	-0.065
-265.267	218.623	0.043	0.069
-264.253	800.000	0.016	-0.052
-263.238	-109.257	-0.543	-0.114
-262.224	-39.908	-0.015	-0.008
-261.209	195.673	0.181	0.272
-260.195	194.916	0.169	0.254
-259.180	-19.323	0.242	0.149
-258.165	800.000	-0.125	-0.347
-257.151	-200.000	0.005	-0.315
-256.136	31.228	-0.017	-0.015
-255.122	791.221	-0.092	0.251
-254.107	186.612	-0.220	-0.325
-253.092	-120.611	-0.154	-0.026
-252.078	800.000	0.066	0.198
-251.063	24.012	0.120	0.098
-250.049	-200.000	-0.002	-0.115
-249.034	-200.000	-0.013	-0.073
-248.019	-200.000	0.056	-0.270
-247.005	-200.000	0.003	-0.065
-245.990	555.343	0.054	-0.129
-244.976	-121.227	-0.440	0.073
-243.961	271.580	-0.050	-0.087
-242.946	-80.977	0.316	-0.103
-241.932	-19.936	-0.325	-0.198
-240.917	117.461	-0.104	-0.126
-239.903	800.000	0.050	0.169
-238.888	41.648	-0.042	-0.038
-237.873	141.654	0.239	-0.314
-236.859	-106.725	0.319	-0.070
-235.844	-13.371	-0.064	0.041
-234.830	-200.000	-0.057	-0.499
-233.815	-200.000	-0.040	0.275
-232.800	61.865	0.059	-0.059
-231.786	108.547	-0.189	0.224
-230.771	4.952	0.261	0.190
-229.757	800.000	-0.083	-0.330
-228.742	76.859	-0.154	-0.162
-227.727	91.301	-0.103	0.115
-226.713	-200.000	0.000	0.125
-225.698	78.918	-0.353	0.373
-224.684	453.472	-0.175	-0.384
-223.669	-200.000	0.002	-0.035
-222.655	-170.413	0.024	-0.001
-221.640	125.052	-0.160	0.199
-220.625	800.000	-0.091	0.302
-219.611	454.907	0.151	-0.331
-218.596	-20.555	-0.366	-0.222
-217.582	-200.000	0.049	0.339
-216.567	205.796	-0.141	0.218
-215.552	-200.000	0.019	-0.090
-214.538	84.156	0.297	0.320
-213.523	-200.000	-0.023	0.244
-212.509	49.187	0.075	-0.070
-211.494	800.000	0.030	-0.098
-210.479	-200.000	0.017	0.126
-209.465	-34.713	0.390	0.211
-208.450	20.345	-0.045	-0.036
-207.436	108.152	-0.067	-0.079
-206.421	-94.353	-0.088	-0.024
-205.406	23.303	0.116	-0.094
-204.392	-200.000	0.019	0.149
-203.377	-200.000	0.076	0.392
-202.363	219.696	0.173	-0.274
-201.348	-200.000	0.013	-0.257
-200.333	562.434	0.082	0.195
-199.319	54.666	-0.110	0.105
-198.304	-43.931	0.146	-0.073
-197.290	-56.335	-0.100	0.044
-196.275	85.185	0.041	-0.045
-195.260	152.004	-0.062	0.084
-194.246	118.389	0.247	0.301
-193.231	800.000	-0.061	0.215
-192.217	-65.618	-0.091	-0.036
-191.202	226.704	0.171	-0.274
-190.187	-96.946	-0.184	0.048
-189.173	32.680	0.245	0.209
-188.158	23.403	0.243	0.197
-187.144	222.008	-0.113	0.179
-186.129	-28.440	-0.338	0.192
-185.114	-176.336	-0.074	0.002
-184.100	-200.000	-0.091	0.439
-183.085	-155.048	-0.238	0.015
-182.071	42.281	-0.061	0.055
-181.056	-91.541	0.532	-0.150
-180.042	470.804	0.082	-0.181
-179.027	-76.677	0.064	0.022
-178.012	95.838	-0.066	-0.075
-176.998	793.380	0.030	0.082
-175.983	86.680	0.182	-0.198
-174.969	290.687	-0.033	0.059
-173.954	-77.261	0.325	0.112
-172.939	-200.000	0.020	-0.169
-171.925	-43.637	0.169	-0.084
-170.910	127.586	-0.152	0.191
-169.896	800.000	-0.126	-0.363
-168.881	172.274	-0.144	-0.204
-167.866	232.013	-0.075	-0.121
-166.852	763.996	-0.073	-0.195
-165.837	-5.139	-0.106	0.072
-164.823	-124.070	0.133	0.021
-163.808	-95.488	-0.119	0.032
-162.793	42.199	0.106	-0.095
-161.779	438.157	-0.067	0.143
-160.764	46.394	0.122	-0.112
-159.750	-77.714	-0.043	-0.015
-158.735	-106.969	-0.353	0.077
-157.720	524.913	0.074	0.171
-156.706	-200.000	0.034	0.318
-155.691	800.000	0.032	0.131
-154.677	800.000	0.114	0.312
-153.662	221.188	0.171	-0.270
-152.647	-66.751	0.172	-0.067
-151.633	-166.356	0.299	-0.012
-150.618	52.774	0.369	0.347
-149.604	800.000	-0.034	0.113
-148.589	-90.176	-0.206	0.059
-147.574	-121.129	-0.243	0.040
-146.560	-142.952	0.157	-0.015
-145.545	86.610	-0.081	0.088
-144.531	-200.000	0.003	0.202
-143.516	-200.000	0.019	-0.142
-142.502	-166.124	0.248	0.010
-141.487	9.083	-0.228	-0.170
-140.472	207.582	-0.065	-0.100
-139.458	-200.000	0.002	0.331
-138.443	163.182	-0.226	0.314
-137.429	-200.000	-0.014	0.281
-136.414	-200.000	0.021	0.247
-135.399	102.831	0.156	0.180
-134.385	-13.001	0.158	-0.102
-133.370	-11.411	-0.030	-0.019
-132.356	-188.965	0.073	0.001
-131.341	-176.519	-0.295	-0.008
-130.326	298.550	0.047	0.085
-129.312	57.872	0.223	-0.215
-128.297	590.206	-0.175	-0.426
-127.283	-17.186	0.212	0.132
-126.268	800.000	-0.082	0.291
-125.253	701.839	-0.095	0.247
-124.239	58.057	0.283	-0.273
-123.224	-66.868	-0.162	0.063
-122.210	37.540	0.217	0.190
-121.195	-38.255	-0.218	-0.114
-120.180	-62.839	0.209	-0.085
-119.166	151.375	-0.135	0.182
-118.151	-89.605	-0.327	0.095
-117.137	800.000	0.076	-0.214
-116.122	21.282	0.112	0.090
-115.107	-39.194	-0.108	-0.056
-114.093	800.000	0.069	0.201
-113.078	-81.517	0.584	0.189
-112.064	-200.000	0.011	-0.074
-111.049	-118.030	-0.159	0.028
-110.034	103.179	0.227	-0.261
-109.020	96.041	-0.100	-0.112
-108.005	-7.974	0.221	-0.146
-106.991	-25.049	-0.158	0.092
-105.976	-83.012	0.165	0.052
-104.962	800.000	0.040	0.139
-103.947	56.357	0.041	-0.040
-102.932	-200.000	-0.000	0.212
-101.918	51.684	0.307	-0.287
-100.903	-55.841	0.134	0.059
-99.889	-36.323	-0.366	-0.194
-98.874	800.000	0.035	0.141
-97.859	701.282	-0.065	0.168
-96.845	-160.462	0.159	-0.008
-95.830	-48.865	0.161	-0.076
-94.816	800.000	0.097	-0.297
-93.801	-29.109	-0.111	0.063
-92.786	-200.000	0.357	-0.001
-91.772	-200.000	0.001	0.165
-90.757	800.000	-0.068	0.257
-89.743	408.871	-0.094	0.196
-88.728	56.724	0.206	-0.197
-87.713	-65.796	-0.072	0.028
-86.699	-54.964	0.210	0.093
-85.684	-109.935	0.236	-0.049
-84.670	-165.590	-0.061	-0.003
-83.655	-166.449	-0.267	-0.011
-82.640	-170.624	0.094	-0.003
-81.626	-200.000	0.427	0.002
-80.611	-107.030	0.101	0.022
-79.597	-17.413	-0.105	0.065
-78.582	32.132	0.141	0.119
-77.567	-2.335	-0.074	0.051
-76.553	-79.428	0.237	-0.079
-75.538	152.513	-0.100	-0.135
-74.524	-43.673	0.072	-0.036
-73.509	-114.414	-0.039	-0.007
-72.494	-200.000	0.019	0.251
-71.480	36.012	0.272	0.235
-70.465	-200.000	-0.029	-0.219
-69.451	215.413	-0.214	-0.334
-68.436	-70.500	-0.400	0.149
-67.422	-34.377	0.131	-0.071
-66.407	-181.060	0.358	0.007
-65.392	800.000	-0.140	-0.409
-64.378	-37.849	0.114	-0.059
-63.363	237.222	0.064	0.105
-62.349	-200.000	0.016	-0.211
-61.334	5.591	-0.918	-0.667
-60.319	-20.028	0.489	0.297
-59.305	-200.000	-0.072	-1.634
-58.290	83.503	0.889	0.952
-57.276	800.000	0.538	1.624
-56.261	-200.000	99.601	583.365
-55.246	510.691	1405.217	3211.795
-54.232	158.588	2574.430	3511.117
-53.217	111.734	2136.320	2533.078
-52.203	43.022	1591.980	1426.323
-51.188	34.719	1329.334	1141.603
-50.173	31.523	1287.394	1087.005
-49.159	54.374	1336.459	1264.181
-48.144	56.382	1354.140	1292.735
-47.130	34.942	1310.931	1126.932
-46.115	31.444	1293.272	1091.331
-45.100	31.075	1288.747	1085.323
-44.086	31.090	1286.397	1083.389
-43.071	31.136	1283.781	1081.410
-42.057	31.083	1282.014	1079.574
-41.042	31.113	1280.170	1078.151
-40.027	31.089	1278.525	1076.585
-39.013	31.175	1276.895	1075.664
-37.998	31.175	1275.226	1074.216
-36.984	31.194	1273.378	1072.723
-35.969	31.215	1271.961	1071.608
-34.954	31.292	1270.022	1070.374
-33.940	31.144	1269.312	1068.887
-32.925	31.158	1267.708	1067.574
-31.911	31.294	1265.916	1066.801
-30.896	31.317	1264.759	1065.913
-29.881	31.354	1263.109	1064.693
-28.867	31.343	1261.930	1063.591
-27.852	31.361	1260.054	1062.070
-26.838	31.313	1258.692	1060.610
-25.823	31.205	1257.479	1058.934
-24.809	31.328	1256.172	1058.483
-23.794	31.215	1254.577	1056.461
-22.779	31.216	1253.544	1055.552
-21.765	31.237	1252.168	1054.471
-20.750	31.197	1250.966	1053.195
-19.736	31.248	1250.052	1052.671
-18.721	31.051	1248.549	1050.253
-17.706	31.161	1247.191	1049.690
-16.692	31.053	1246.851	1048.749
-15.677	31.171	1244.910	1047.739
-14.663	31.100	1244.399	1046.871
-13.648	31.084	1242.951	1045.519
-12.633	31.138	1241.833	1044.841
-11.619	31.308	1240.750	1044.842
-10.604	31.109	1240.517	1043.486
-9.590	31.182	1239.247	1042.790
-8.575	31.024	1238.901	1041.569
-7.560	31.046	1237.391	1040.383
-6.546	31.096	1236.947	1040.251
-5.531	31.089	1235.870	1039.263
-4.517	31.050	1235.119	1038.372
-3.502	31.151	1234.108	1038.044
-2.487	31.178	1233.189	1037.377
-1.473	31.063	1229.132	1033.287
-0.458	29.608	1214.096	1012.637
0.556	24.215	1197.496	975.066
1.571	20.542	1202.669	958.967
2.586	19.591	1217.149	965.116
3.600	19.276	1205.609	954.139
4.615	14.011	1133.884	869.805
5.629	4.884	1057.973	766.753
6.644	0.462	1037.744	730.644
7.659	-0.022	1035.882	726.927
8.673	-0.045	1034.408	725.717
9.688	-0.103	1033.333	724.619
10.702	0.223	1031.616	724.919
11.717	5.622	1038.240	755.612
12.731	14.442	1049.402	806.515
13.746	17.915	1052.598	825.728
14.761	17.126	1051.535	821.008
15.775	15.910	1049.873	813.763
16.790	14.955	1047.659	807.368
17.804	14.372	1045.824	803.076
18.819	14.029	1044.867	800.616
19.834	13.700	1043.643	798.022
20.848	13.445	1043.322	796.481
21.863	13.203	1042.428	794.567
22.877	13.122	1041.376	793.305
23.892	13.009	1041.158	792.526
24.907	13.087	1040.090	792.014
25.921	13.118	1039.391	791.561
26.936	13.066	1038.838	790.821
27.950	13.108	1037.882	790.224
28.965	13.183	1036.333	789.334
29.980	13.272	1035.420	788.996
30.994	13.230	1034.698	788.171
32.009	13.249	1033.674	787.413
33.023	13.260	1032.535	786.528
34.038	13.250	1031.526	785.644
35.053	13.193	1030.935	784.851
36.067	13.269	1029.930	784.377
37.082	13.296	1028.848	783.612
38.096	13.309	1028.274	783.167
39.111	13.337	1027.786	782.860
40.126	13.104	1026.793	780.933
41.140	13.194	1025.440	780.257
42.155	13.065	1024.442	778.824
43.169	13.074	1023.217	777.863
44.184	12.970	1022.714	776.926
45.199	13.029	1020.995	775.828
46.213	13.189	1019.811	775.609
47.228	13.018	1019.458	774.470
48.242	13.112	1018.427	774.060
49.257	13.144	1017.519	773.450
50.271	13.223	1016.237	772.777
51.286	13.198	1015.719	772.199
52.301	13.312	1014.055	771.396
53.315	12.998	1013.634	769.543
54.330	12.955	1013.103	768.870
55.344	13.062	1011.570	768.138
56.359	13.134	1010.788	767.811
57.374	13.146	1010.107	767.281
58.388	12.879	1009.414	765.446
59.403	13.156	1007.997	765.588
60.417	12.981	1007.640	764.440
61.432	13.052	1006.882	764.126
62.447	12.884	1006.473	762.971
63.461	12.983	1005.368	762.525
64.476	13.042	1004.100	761.764
65.490	12.887	1004.019	760.924
66.505	13.009	1002.702	760.418
67.520	12.961	1002.494	759.973
68.534	13.154	1001.557	760.084
69.549	12.996	1001.224	759.035
70.563	13.042	1000.449	758.594
71.578	12.917	999.532	757.258
72.593	12.909	998.543	756.404
73.607	12.866	998.038	755.756
74.622	12.899	997.292	755.277
75.636	12.830	996.919	754.611
76.651	12.949	995.906	754.320
77.666	12.899	995.304	753.571
78.680	13.003	994.380	753.282
79.695	12.988	993.711	752.639
80.709	13.126	993.251	752.853
81.724	13.110	992.758	752.337
82.739	12.946	992.108	751.032
83.753	13.121	991.122	751.017
84.768	13.171	990.698	750.854
85.782	13.180	989.338	749.798
86.797	13.169	988.529	749.071
87.812	13.333	987.690	749.108
88.826	13.248	986.775	747.964
89.841	13.176	985.978	746.970
90.855	13.271	984.961	746.564
91.870	13.238	984.479	745.982
92.884	13.197	983.518	745.005
93.899	13.277	982.763	744.726
94.914	13.401	981.339	744.138
95.928	13.293	981.303	743.558
96.943	13.304	979.873	742.458
97.957	13.367	979.329	742.266
98.972	13.300	978.679	741.404
99.987	13.275	977.504	740.336
101.001	13.260	976.617	739.534
102.016	13.265	975.960	738.994
103.030	13.297	975.366	738.620
104.045	13.199	974.812	737.700
105.060	13.230	973.310	736.636
106.074	13.119	972.608	735.545
107.089	13.167	971.553	734.895
108.103	13.187	970.778	734.331
109.118	13.119	969.749	733.187
110.133	13.172	968.847	732.676
111.147	13.107	968.111	731.764
112.162	13.061	967.586	731.099
113.176	13.259	966.862	731.365
114.191	13.188	965.962	730.304
115.206	13.195	965.215	729.708
116.220	13.322	964.321	729.526
117.235	13.306	963.483	728.757
118.249	13.149	962.937	727.588
119.264	13.248	962.049	727.291
120.279	13.102	961.501	726.168
121.293	13.005	960.495	724.917
122.308	13.129	959.158	724.387
123.322	13.165	958.515	723.995
124.337	13.096	957.681	723.000
125.352	13.091	956.704	722.178
126.366	13.149	955.569	721.508
127.381	13.295	954.562	721.324
128.395	13.323	953.390	720.495
129.410	13.175	952.755	719.309
130.424	13.263	951.889	718.973
131.439	13.339	950.949	718.529
132.454	13.390	950.354	718.238
133.468	13.290	949.921	717.414
134.483	13.334	949.260	717.042
135.497	13.364	948.283	716.371
136.512	13.304	947.109	715.160
137.527	13.154	946.827	714.236
138.541	13.219	945.686	713.593
139.556	13.236	945.131	713.182
140.570	13.321	944.032	712.658
141.585	13.371	943.616	712.497
142.600	13.250	942.995	711.442
143.614	13.503	941.476	711.322
144.629	13.458	940.964	710.679
145.643	13.449	939.698	709.620
146.658	13.270	939.145	708.373
147.673	13.402	938.104	708.089
148.687	13.250	937.645	707.030
149.702	13.371	936.266	706.444
150.716	13.233	935.981	705.580
151.731	13.345	935.300	705.480
152.746	13.284	934.643	704.663
153.760	13.464	933.818	704.747
154.775	13.490	933.376	704.462
155.789	13.363	932.916	703.511
156.804	13.514	932.126	703.494
157.819	13.546	931.206	702.872
158.833	13.504	930.691	702.245
159.848	13.537	930.036	701.825
160.862	13.507	929.180	700.990
161.877	13.498	928.067	700.052
162.892	13.447	926.975	698.950
163.906	13.436	926.294	698.331
164.921	13.408	925.863	697.824
165.935	13.442	924.675	697.012
166.950	13.490	923.954	696.607
167.964	13.462	923.103	695.786
168.979	13.503	922.419	695.383
169.994	13.560	921.437	694.818
171.008	13.531	920.743	694.113
172.023	13.480	920.257	693.473
173.037	13.597	919.523	693.345
174.052	13.654	918.335	692.628
175.067	13.637	917.889	692.159
176.081	13.519	917.433	691.260
177.096	13.547	917.037	691.018
178.110	13.496	916.412	690.274
179.125	13.623	915.594	690.127
180.140	13.612	915.070	689.622
181.154	13.648	914.267	689.108
182.169	13.624	913.895	688.664
183.183	13.804	913.337	688.932
184.198	13.731	912.888	688.227
185.213	13.791	912.197	687.895
186.227	13.744	911.547	687.152
187.242	13.829	910.502	686.656
188.256	13.779	910.242	686.192
189.271	13.942	908.870	685.767
190.286	13.687	908.664	684.499
191.300	13.632	907.400	683.262
192.315	13.702	907.280	683.396
193.329	13.574	906.988	682.590
194.344	13.684	906.270	682.441
195.359	13.713	905.699	682.070
196.373	13.780	904.676	681.515
197.388	13.834	904.626	681.640
198.402	13.891	904.189	681.485
199.417	13.931	903.195	680.837
200.432	14.154	902.731	681.342
201.446	14.015	902.477	680.519
202.461	14.022	901.840	680.010
203.475	13.930	901.345	679.200
204.490	14.150	900.043	679.056
205.504	13.908	899.830	677.846
206.519	13.891	899.162	677.216
207.534	14.062	898.094	677.048
208.548	14.080	897.144	676.343
209.563	14.015	896.832	675.783
210.577	14.083	896.138	675.479
211.592	14.120	895.811	675.322
212.607	14.233	894.878	675.018
213.621	14.111	894.309	674.034
214.636	14.160	893.699	673.715
215.650	14.184	892.920	673.165
216.665	14.400	892.070	673.336
217.680	14.226	891.863	672.416
218.694	14.277	890.835	671.790
219.709	14.231	890.491	671.285
220.723	14.270	889.392	670.554
221.738	14.308	888.880	670.259
222.753	14.370	888.283	670.000
223.767	14.346	887.789	669.473
224.782	14.391	887.095	669.070
225.796	14.502	886.616	669.097
226.811	14.515	885.802	668.474
227.826	14.334	885.263	667.285
228.840	14.253	884.683	666.464
229.855	14.519	883.493	666.570
230.869	14.455	882.918	665.821
231.884	14.308	882.544	664.896
232.899	14.419	881.489	664.483
233.913	14.298	881.170	663.702
234.928	14.393	880.227	663.313
235.942	14.389	880.111	663.150
236.957	14.393	879.348	662.530
237.972	14.320	878.807	661.774
238.986	14.381	878.131	661.450
240.001	14.448	877.463	661.153
241.015	14.323	876.872	660.153
242.030	14.500	876.090	660.207
243.045	14.351	875.936	659.443
244.059	14.519	875.345	659.606
245.074	14.542	874.324	658.868
246.088	14.544	873.646	658.305
247.103	14.606	873.692	658.527
248.117	14.642	872.680	657.850
249.132	14.575	872.207	657.169
250.147	14.812	871.449	657.473
251.161	14.806	870.819	656.915
252.176	14.833	870.202	656.500
253.190	14.789	869.385	655.652
254.205	14.735	868.838	654.971
255.220	14.823	868.427	654.947
256.234	14.858	867.631	654.424
257.249	14.984	866.616	654.096
258.263	14.920	866.276	653.532
259.278	14.846	865.821	652.842
260.293	15.068	864.983	653.016
261.307	15.049	864.412	652.453
262.322	14.953	864.117	651.800
263.336	15.214	862.966	651.890
264.351	14.951	862.354	650.346
265.366	15.097	861.744	650.398
266.380	14.993	861.368	649.651
267.395	15.019	860.761	649.237
268.409	15.009	859.933	648.516
269.424	15.096	858.833	647.967
270.439	14.921	858.740	647.162
271.453	15.079	857.898	647.078
272.468	14.957	857.315	646.112
273.482	15.053	856.539	645.838
274.497	14.938	856.317	645.171
275.512	15.139	855.299	645.121
276.526	15.014	855.188	644.499
277.541	15.146	854.679	644.566
278.555	15.133	854.206	644.103
279.570	15.340	853.484	644.299
280.585	15.113	852.929	642.951
281.599	15.312	851.836	642.833
282.614	15.270	851.063	642.029
283.628	15.286	850.623	641.703
284.643	15.160	850.061	640.739
285.657	15.209	849.812	640.685
286.672	15.466	848.581	640.681
287.687	15.140	848.425	639.259
288.701	15.270	847.824	639.248
289.716	15.260	847.319	638.774
290.730	15.469	846.672	639.025
291.745	15.377	846.264	638.311
292.760	15.464	845.340	637.887
293.774	15.634	844.936	638.170
294.789	15.377	844.442	636.768
295.803	15.476	843.647	636.487
296.818	15.345	842.986	635.435
297.833	15.396	842.120	634.916
298.847	15.634	841.570	635.346
299.862	15.480	841.019	634.294
300.876	15.581	840.379	634.137
301.891	15.723	839.857	634.220
302.906	15.661	839.627	633.757
303.920	15.707	838.981	633.388
304.935	15.642	838.502	632.726
305.949	15.757	837.745	632.529
306.964	15.645	837.339	631.746
307.979	15.576	836.892	631.095
308.993	15.783	836.280	631.353
310.008	15.633	836.072	630.578
311.022	15.768	834.931	630.167
312.037	15.578	834.721	629.242
313.052	15.606	834.103	628.825
314.066	15.756	833.225	628.668
315.081	15.560	833.179	627.847
316.095	15.604	832.305	627.295
317.110	15.718	831.728	627.229
318.125	15.585	831.063	626.178
319.139	15.758	830.489	626.334
320.154	15.723	830.245	625.964
321.168	15.805	829.765	625.854
322.183	15.777	829.573	625.546
323.197	15.772	828.995	625.036
324.212	16.061	827.747	625.113
325.227	15.735	827.433	623.612
326.241	15.692	826.872	622.975
327.256	15.875	826.344	623.200
328.270	15.753	825.750	622.246
329.285	15.861	825.036	622.052
330.300	15.781	824.718	621.462
331.314	15.872	824.135	621.305
332.329	16.001	823.788	621.463
333.343	15.983	823.117	620.835
334.358	15.870	823.046	620.311
335.373	16.011	822.669	620.490
336.387	16.174	821.701	620.306
337.402	16.025	821.789	619.768
338.416	16.143	821.214	619.711
339.431	16.149	820.932	619.466
340.446	16.151	820.841	619.352
341.460	16.319	819.993	619.273
342.475	16.220	819.701	618.633
343.489	16.195	819.467	618.311
344.504	16.333	818.792	618.252
345.519	16.209	818.697	617.670
346.533	16.310	817.858	617.354
347.548	16.293	817.277	616.798
348.562	16.129	817.155	616.051
349.577	16.235	816.394	615.812
350.592	16.217	815.543	615.051
351.606	16.297	814.794	614.720
352.621	16.277	814.794	614.594
353.635	16.335	813.671	613.903
354.650	16.299	813.183	613.352
355.665	16.263	812.890	612.944
356.679	16.287	812.045	612.340
357.694	16.335	811.226	611.843
358.708	16.308	810.975	611.500
359.723	16.416	810.031	611.124
360.738	16.460	809.684	610.970
361.752	16.495	809.361	610.798
362.767	16.400	808.763	609.948
363.781	16.463	808.001	609.546
364.796	16.517	807.876	609.593
365.810	16.545	807.358	609.252
366.825	16.581	806.890	608.974
367.840	16.656	806.516	608.907
368.854	16.660	805.781	608.311
369.869	16.477	805.313	607.249
370.883	16.623	805.401	607.784
371.898	16.707	804.882	607.640
372.913	16.701	804.582	607.339
373.927	16.749	804.281	607.231
374.942	16.765	803.338	606.522
375.956	16.770	802.941	606.186
376.971	16.784	802.588	605.916
377.986	16.746	802.409	605.593
379.000	16.877	801.955	605.662
380.015	16.747	801.322	604.668
381.029	16.987	800.716	605.015
382.044	16.880	800.318	604.278
383.059	16.888	799.506	603.639
384.073	16.728	799.328	602.881
385.088	16.873	798.329	602.591
386.102	16.958	797.933	602.540
387.117	16.914	797.292	601.846
388.132	16.836	796.915	601.230
389.146	16.818	796.602	600.880
390.161	17.032	795.814	600.988
391.175	16.921	795.257	600.122
392.190	16.962	794.897	599.944
393.205	17.023	794.515	599.816
394.219	16.977	794.422	599.530
395.234	16.848	793.758	598.523
396.248	16.876	793.395	598.292
397.263	16.845	792.980	597.820
398.278	16.804	792.729	597.432
399.292	16.816	792.528	597.271
400.307	16.964	791.808	597.195
401.321	17.084	790.930	596.902
402.336	16.920	790.922	596.267
403.350	16.968	790.513	596.073
404.365	17.005	789.994	595.760
405.380	17.109	789.206	595.479
406.394	17.067	789.003	595.125
407.409	17.245	788.531	595.339
408.423	17.270	788.311	595.210
409.438	17.379	787.801	595.153
410.453	17.308	787.498	594.623
411.467	17.408	786.904	594.471
412.482	17.345	786.569	593.944
413.496	17.352	786.193	593.634
414.511	17.451	785.489	593.393
415.526	17.374	785.410	593.012
416.540	17.292	785.237	592.544
417.555	17.360	784.498	592.170
418.569	17.383	784.065	591.873
419.584	17.318	783.908	591.474
420.599	17.438	783.297	591.377
421.613	108.749	1288.470	1463.165
422.628	93.135	1362.054	1463.255
