DTS Sentinel unit serial number:	SN413079Multiplexer serial number:	ORYXHardware model number:	OX4-SRSoftware version number:	ORYX F/W v4.00 Oryx Data Collector v3.7.2.0data status	okinstallation	princeton_trtdifferential loss correction	single-endedforward channel	channel 1reverse channel	N/Adate	2019/09/14time	00:22:35forward acquisition time	60.00reverse acquisition time	0.00gamma	496.2192k internal	0.2337k external	0.2337temperature offset calibration	1.0074default loss term (dB/km)	0.3790temperature slope calibration	1.0000multiplexer offset coefficient	1.0000multiplexer slope coefficient	1.0000fibre end	0.00T internal ref (°C)	26.50T ext. ref 1 (°C)	3.19T ext. ref 2 (°C)	21.34length (m)	temperature (°C)	Stokes	anti-Stokes-747.200	139.286	0.229	0.303
-746.185	274.593	-0.254	0.452
-745.171	-39.932	0.251	-0.131
-744.156	-27.202	0.129	0.075
-743.142	800.000	0.088	0.262
-742.127	339.018	-0.122	0.239
-741.112	-200.000	0.021	-0.201
-740.098	118.675	-0.204	-0.253
-739.083	-200.000	0.024	0.357
-738.069	38.381	-0.091	0.082
-737.054	619.946	-0.040	-0.101
-736.039	-8.255	-0.488	-0.330
-735.025	644.549	0.045	-0.115
-734.010	-108.634	0.152	0.033
-732.996	800.000	0.102	-0.339
-731.981	478.341	0.147	-0.334
-730.966	800.000	-0.079	-0.310
-729.952	-4.939	0.221	-0.153
-728.937	198.646	-0.099	-0.151
-727.923	-78.051	-0.121	-0.042
-726.908	-172.737	-0.106	-0.003
-725.894	-139.828	-0.174	0.018
-724.879	696.595	-0.088	-0.231
-723.864	-200.000	-0.047	0.218
-722.850	317.201	-0.133	0.252
-721.835	26.494	-0.185	-0.155
-720.821	-32.280	-0.228	0.128
-719.806	105.421	0.032	0.037
-718.791	106.794	-0.232	0.276
-717.777	-200.000	0.027	-0.297
-716.762	148.822	-0.053	0.071
-715.748	-25.786	-0.274	0.162
-714.733	183.934	-0.063	-0.094
-713.718	-200.000	-0.021	-0.284
-712.704	-28.847	-0.272	0.157
-711.689	-200.000	0.027	0.195
-710.675	-200.000	-0.010	0.207
-709.660	73.593	-0.273	-0.286
-708.645	-113.240	0.199	0.039
-707.631	-3.256	-0.218	-0.152
-706.616	12.636	-0.293	-0.227
-705.602	-94.271	0.179	0.049
-704.587	800.000	0.069	0.299
-703.572	15.757	0.308	0.243
-702.558	640.732	0.072	-0.183
-701.543	42.089	0.024	0.022
-700.529	800.000	-0.006	0.024
-699.514	800.000	-0.066	0.190
-698.499	-200.000	0.029	-0.184
-697.485	73.432	-0.048	-0.050
-696.470	-200.000	0.042	-0.243
-695.456	800.000	0.060	-0.213
-694.441	-123.021	0.602	-0.097
-693.426	800.000	-0.073	-0.214
-692.412	-200.000	-0.001	0.203
-691.397	11.485	0.225	0.173
-690.383	-200.000	0.093	-0.470
-689.368	-96.245	0.160	0.043
-688.354	619.080	-0.036	0.090
-687.339	-118.147	0.183	-0.033
-686.324	-83.532	0.107	0.034
-685.310	-67.911	-0.105	0.041
-684.295	-200.000	-0.033	-0.220
-683.281	136.811	-0.104	-0.136
-682.266	3.495	0.075	-0.055
-681.251	-72.980	0.356	0.131
-680.237	76.767	-0.096	-0.102
-679.222	36.539	-0.088	0.078
-678.208	-200.000	0.011	0.143
-677.193	75.173	-0.270	-0.285
-676.178	227.709	-0.202	-0.329
-675.164	425.167	-0.145	-0.313
-674.149	-200.000	0.022	-0.247
-673.135	3.652	0.157	0.114
-672.120	-50.754	0.119	0.056
-671.105	-102.044	-0.157	-0.038
-670.091	143.961	0.165	0.221
-669.076	-149.849	-0.008	-0.001
-668.062	23.379	-0.277	-0.228
-667.047	18.246	-0.042	-0.034
-666.032	512.944	-0.057	0.132
-665.018	-41.043	0.029	-0.015
-664.003	800.000	-0.109	0.312
-662.989	692.161	0.079	-0.206
-661.974	-200.000	-0.018	-0.082
-660.959	-200.000	0.055	0.245
-659.945	-27.110	0.153	0.089
-658.930	-130.024	0.365	0.050
-657.916	-57.735	-0.217	0.095
-656.901	6.978	-0.207	0.154
-655.886	-176.608	0.316	0.008
-654.872	-97.309	0.399	0.104
-653.857	-200.000	-0.026	0.273
-652.843	-82.862	-0.288	-0.093
-651.828	-121.784	-0.112	0.019
-650.814	-28.708	0.226	0.130
-649.799	150.051	0.115	0.156
-648.784	58.698	0.065	-0.063
-647.770	202.569	0.061	0.095
-646.755	800.000	-0.113	0.342
-645.741	-69.608	-0.101	0.039
-644.726	57.267	0.151	0.147
-643.711	57.543	-0.123	0.121
-642.697	-8.538	-0.102	0.068
-641.682	61.070	0.183	0.182
-640.668	39.154	-0.271	-0.242
-639.653	41.219	-0.169	-0.152
-638.638	-36.775	-0.211	-0.113
-637.624	48.278	-0.168	0.157
-636.609	-10.101	-0.163	0.108
-635.595	-200.000	-0.007	-0.166
-634.580	-200.000	0.051	0.401
-633.565	339.918	0.144	0.281
-632.551	800.000	0.015	-0.061
-631.536	-200.000	-0.010	0.097
-630.522	380.060	0.068	-0.139
-629.507	429.389	0.165	-0.356
-628.492	-152.335	-0.098	-0.007
-627.478	160.822	0.151	0.210
-626.463	6.304	-0.076	-0.056
-625.449	-200.000	0.016	-0.215
-624.434	706.515	0.120	-0.316
-623.419	186.939	0.205	-0.306
-622.405	340.285	0.017	0.033
-621.390	123.253	0.053	0.066
-620.376	-122.997	0.045	0.007
-619.361	539.426	-0.044	-0.105
-618.346	261.767	-0.103	-0.178
-617.332	-57.386	-0.104	0.046
-616.317	114.718	-0.026	-0.032
-615.303	-67.132	-0.208	-0.082
-614.288	-155.846	0.232	-0.015
-613.273	-4.359	0.045	-0.031
-612.259	264.265	0.176	0.306
-611.244	-66.085	-0.390	0.155
-610.230	-144.717	-0.280	-0.026
-609.215	-200.000	-0.025	0.218
-608.201	180.140	0.126	0.185
-607.186	-27.804	-0.055	0.032
-606.171	30.829	0.339	0.290
-605.157	-200.000	-0.024	-0.314
-604.142	27.811	-0.163	0.137
-603.128	-200.000	0.038	-0.223
-602.113	-136.442	-0.210	-0.024
-601.098	123.103	-0.070	0.088
-600.084	-112.675	0.223	-0.044
-599.069	-200.000	0.024	-0.218
-598.055	-200.000	-0.010	0.216
-597.040	-24.469	-0.248	-0.147
-596.025	-51.453	0.190	-0.089
-595.011	95.169	0.075	-0.086
-593.996	-25.455	0.187	0.110
-592.982	430.746	-0.207	-0.447
-591.967	483.599	0.041	0.094
-590.952	800.000	0.038	0.105
-589.938	-171.320	-0.308	-0.010
-588.923	-101.031	0.265	0.065
-587.909	-0.490	0.049	-0.034
-586.894	234.458	-0.066	0.108
-585.879	19.656	-0.430	0.345
-584.865	-33.563	-0.320	0.176
-583.850	-28.258	0.082	0.047
-582.836	-200.000	-0.015	-0.127
-581.821	-53.490	-0.257	-0.117
-580.806	165.391	0.060	0.084
-579.792	-117.327	0.225	-0.041
-578.777	-130.826	-0.271	-0.036
-577.763	-93.653	0.165	-0.045
-576.748	17.727	0.089	-0.071
-575.733	62.893	-0.086	0.085
-574.719	-166.206	0.182	0.008
-573.704	254.743	0.122	-0.209
-572.690	724.519	-0.108	0.287
-571.675	-115.392	-0.257	-0.048
-570.661	1.402	-0.291	0.208
-569.646	34.947	-0.160	0.139
-568.631	156.405	-0.129	-0.177
-567.617	-23.560	0.218	0.131
-566.602	-200.000	-0.046	-0.271
-565.588	-103.638	-0.156	-0.036
-564.573	-114.557	0.176	0.034
-563.558	536.413	0.045	0.106
-562.544	-113.358	0.181	-0.035
-561.529	-75.405	-0.218	-0.077
-560.515	490.305	-0.077	0.177
-559.500	-103.428	-0.074	0.017
-558.485	253.979	-0.236	0.401
-557.471	633.889	0.102	-0.257
-556.456	-200.000	0.025	0.196
-555.442	-25.271	-0.173	-0.102
-554.427	297.066	0.143	0.262
-553.412	-19.054	0.256	-0.158
-552.398	77.094	0.106	0.112
-551.383	-61.314	-0.297	0.125
-550.369	40.000	-0.254	0.228
-549.354	-1.076	0.084	0.059
-548.339	62.493	0.101	0.100
-547.325	800.000	0.214	0.611
-546.310	-35.972	-0.178	-0.096
-545.296	-125.436	0.259	0.039
-544.281	-200.000	-0.004	-0.134
-543.266	-117.100	-0.531	-0.096
-542.252	-200.000	0.033	0.175
-541.237	378.668	-0.208	-0.423
-540.223	800.000	-0.100	-0.380
-539.208	-18.621	-0.090	0.056
-538.193	326.831	0.161	-0.307
-537.179	145.109	-0.164	-0.218
-536.164	-113.151	0.264	-0.052
-535.150	-52.486	0.161	-0.074
-534.135	-40.317	-0.249	0.129
-533.121	-6.427	0.090	-0.061
-532.106	-47.056	0.145	0.070
-531.091	284.073	-0.184	-0.329
-530.077	717.031	0.166	-0.439
-529.062	42.208	-0.118	0.107
-528.048	34.643	-0.028	-0.024
-527.033	-200.000	0.017	-0.150
-526.018	-200.000	-0.000	0.030
-525.004	99.953	-0.151	0.174
-523.989	477.621	-0.041	0.092
-522.975	-87.543	-0.291	0.088
-521.960	226.415	0.022	-0.036
-520.945	-154.559	-0.153	-0.010
-519.931	335.204	-0.083	0.160
-518.916	41.136	-0.206	-0.185
-517.902	-3.183	-0.112	-0.078
-516.887	-200.000	0.136	-0.001
-515.872	-200.000	0.008	-0.126
-514.858	-46.585	0.080	-0.039
-513.843	-108.329	0.272	-0.058
-512.829	-200.000	0.000	0.286
-511.814	-67.940	0.012	-0.004
-510.799	192.322	-0.199	0.299
-509.785	33.255	0.228	-0.197
-508.770	159.229	-0.161	-0.222
-507.756	110.160	0.260	0.310
-506.741	94.687	0.178	-0.201
-505.726	140.034	-0.064	-0.083
-504.712	-88.719	-0.134	0.040
-503.697	-193.173	-0.062	0.001
-502.683	201.970	-0.102	-0.157
-501.668	-157.793	0.104	-0.006
-500.653	-200.000	-0.017	-0.603
-499.639	-93.616	-0.242	-0.066
-498.624	-9.171	-0.051	0.034
-497.610	-120.910	-0.365	0.061
-496.595	13.651	-0.195	-0.150
-495.581	800.000	-0.053	0.146
-494.566	58.369	-0.237	0.231
-493.551	157.963	0.140	0.193
-492.537	-200.000	-0.051	0.308
-491.522	-138.003	0.373	-0.041
-490.508	-36.905	0.348	-0.186
-489.493	-187.136	0.138	0.002
-488.478	25.102	0.179	-0.148
-487.464	-113.407	0.276	-0.054
-486.449	678.306	0.129	-0.334
-485.435	800.000	0.068	0.201
-484.420	-40.694	0.432	0.223
-483.405	-200.000	0.012	-0.222
-482.391	-11.646	-0.092	0.060
-481.376	70.775	0.127	-0.130
-480.362	-140.290	0.255	-0.026
-479.347	362.204	-0.098	-0.195
-478.332	-200.000	-0.030	-0.145
-477.318	-117.282	-0.357	0.064
-476.303	-129.835	0.027	-0.004
-475.289	606.879	-0.134	0.333
-474.274	-132.656	-0.381	0.048
-473.259	281.213	0.091	0.162
-472.245	12.440	0.010	-0.008
-471.230	22.429	-0.267	0.217
-470.216	-58.808	-0.188	-0.081
-469.201	101.663	-0.114	-0.132
-468.186	-68.574	-0.180	0.069
-467.172	-177.695	-0.406	0.010
-466.157	180.025	0.139	0.202
-465.143	596.122	0.134	-0.328
-464.128	-13.127	-0.139	-0.089
-463.113	-60.551	0.206	-0.087
-462.099	506.531	0.101	0.232
-461.084	-32.813	-0.062	0.034
-460.070	125.083	0.264	-0.330
-459.055	-200.000	0.033	-0.157
-458.040	37.081	-0.245	-0.215
-457.026	-85.713	0.055	0.017
-456.011	800.000	0.056	-0.171
-454.997	149.509	0.104	-0.140
-453.982	-191.913	-0.130	-0.001
-452.968	-200.000	0.014	-0.074
-451.953	-89.357	0.431	0.126
-450.938	-200.000	0.011	0.203
-449.924	55.498	-0.117	0.113
-448.909	-200.000	-0.043	0.189
-447.895	-200.000	0.002	0.171
-446.880	800.000	-0.032	0.123
-445.865	180.109	0.169	-0.246
-444.851	69.790	-0.116	0.119
-443.836	628.357	-0.058	0.146
-442.822	-200.000	-0.005	0.425
-441.807	-200.000	0.037	-0.243
-440.792	-4.677	-0.261	-0.179
-439.778	-35.147	0.132	-0.071
-438.763	800.000	-0.020	-0.056
-437.749	1.204	0.182	0.130
-436.734	25.266	0.066	-0.055
-435.719	-90.802	-0.233	-0.067
-434.705	120.592	-0.255	-0.315
-433.690	3.503	-0.238	0.172
-432.676	7.645	-0.173	0.129
-431.661	386.866	0.129	0.265
-430.646	455.582	-0.063	0.138
-429.632	800.000	0.033	-0.128
-428.617	-108.366	0.456	-0.098
-427.603	108.485	-0.186	-0.220
-426.588	150.947	0.242	-0.327
-425.573	800.000	-0.120	0.431
-424.559	-46.173	0.133	0.065
-423.544	-96.090	0.259	-0.068
-422.530	-85.707	0.089	0.027
-421.515	52.053	-0.152	0.144
-420.500	603.371	-0.109	0.270
-419.486	-160.337	0.304	-0.016
-418.471	-63.668	0.174	-0.071
-417.457	-176.141	-0.271	0.007
-416.442	-200.000	-0.032	0.287
-415.428	-72.073	0.335	-0.123
-414.413	-118.606	-0.083	-0.014
-413.398	800.000	-0.058	-0.228
-412.384	-200.000	0.008	0.083
-411.369	-200.000	-0.040	0.476
-410.355	-200.000	-0.036	-0.172
-409.340	338.386	0.097	-0.187
-408.325	-42.339	0.258	-0.130
-407.311	-24.525	-0.124	0.073
-406.296	365.963	0.064	0.127
-405.282	-200.000	-0.018	0.386
-404.267	-133.454	0.380	0.047
-403.252	289.852	0.133	-0.240
-402.238	333.114	-0.063	-0.121
-401.223	-31.775	-0.323	-0.179
-400.209	800.000	0.038	0.147
-399.194	446.642	0.065	0.142
-398.179	-57.959	-0.235	-0.102
-397.165	-23.636	0.255	-0.151
-396.150	-200.000	0.022	-0.216
-395.136	149.160	0.195	0.261
-394.121	-77.484	0.127	0.044
-393.106	-200.000	0.011	-0.156
-392.092	800.000	-0.038	-0.136
-391.077	-165.660	0.258	0.011
-390.063	-200.000	-0.007	-0.361
-389.048	-29.302	0.332	-0.188
-388.033	-134.178	0.085	0.010
-387.019	800.000	0.067	0.232
-386.004	-13.584	0.228	0.146
-384.990	-200.000	-0.021	0.220
-383.975	463.329	0.030	0.066
-382.960	-164.771	0.191	-0.009
-381.946	-179.055	-0.098	0.002
-380.931	-133.863	-0.075	-0.009
-379.917	276.068	-0.070	0.123
-378.902	-135.483	-0.274	0.032
-377.888	-72.049	0.110	-0.040
-376.873	-50.709	-0.288	0.134
-375.858	-200.000	-0.001	0.052
-374.844	-175.273	0.232	0.006
-373.829	-200.000	-0.024	0.134
-372.815	-200.000	0.006	0.428
-371.800	-114.279	0.287	-0.055
-370.785	125.714	-0.187	0.234
-369.771	-67.045	-0.466	-0.182
-368.756	40.120	0.143	0.127
-367.742	-200.000	-0.013	-0.338
-366.727	-200.000	0.011	-0.376
-365.712	79.076	-0.195	0.207
-364.698	-71.695	-0.402	-0.148
-363.683	491.485	-0.085	0.192
-362.669	46.428	-0.058	0.053
-361.654	7.993	-0.284	0.211
-360.639	-200.000	0.023	-0.111
-359.625	-119.444	-0.402	-0.069
-358.610	294.977	0.126	-0.227
-357.596	-36.381	-0.040	-0.021
-356.581	287.081	0.208	-0.371
-355.566	-200.000	0.017	0.288
-354.552	-78.389	0.232	-0.079
-353.537	800.000	0.043	0.133
-352.523	-153.515	0.211	-0.014
-351.508	116.614	-0.189	0.229
-350.493	-29.466	0.111	0.063
-349.479	217.731	-0.049	-0.077
-348.464	-126.590	-0.133	-0.020
-347.450	49.596	0.150	0.140
-346.435	199.462	-0.150	0.227
-345.420	800.000	-0.119	-0.329
-344.406	-200.000	-0.046	0.326
-343.391	-40.663	-0.065	-0.033
-342.377	800.000	-0.103	-0.306
-341.362	-49.567	-0.278	0.131
-340.348	152.411	0.161	-0.218
-339.333	-200.000	-0.053	-0.312
-338.318	-80.505	0.160	-0.053
-337.304	-200.000	-0.088	-0.415
-336.289	-200.000	0.027	0.251
-335.275	-96.010	-0.332	0.087
-334.260	241.422	0.102	-0.169
-333.245	-8.548	-0.180	0.119
-332.231	-60.583	0.209	-0.087
-331.216	-83.262	-0.031	-0.010
-330.202	359.923	0.043	-0.085
-329.187	692.834	-0.095	-0.247
-328.172	-200.000	-0.037	0.180
-327.158	141.232	-0.042	0.054
-326.143	-181.711	0.121	-0.002
-325.129	-200.000	-0.015	0.081
-324.114	-92.104	-0.258	-0.072
-323.099	470.353	-0.114	0.254
-322.085	800.000	-0.031	0.124
-321.070	-38.086	0.054	0.028
-320.056	49.930	0.088	-0.082
-319.041	-200.000	0.016	-0.075
-318.026	307.532	0.123	0.227
-317.012	71.595	0.309	0.317
-315.997	-200.000	-0.012	-0.223
-314.983	-136.730	0.157	-0.018
-313.968	363.655	-0.028	0.055
-312.953	-107.943	-0.187	0.040
-311.939	437.616	0.179	-0.384
-310.924	-7.689	-0.291	0.194
-309.910	-200.000	-0.018	-0.132
-308.895	80.799	-0.050	-0.053
-307.880	800.000	-0.082	0.271
-306.866	-200.000	0.072	0.317
-305.851	-191.938	0.022	-0.000
-304.837	711.337	0.046	-0.121
-303.822	800.000	0.071	0.217
-302.807	67.083	0.156	0.157
-301.793	175.354	0.066	-0.094
-300.778	129.064	-0.091	0.115
-299.764	-56.979	0.156	0.068
-298.749	-35.174	-0.073	0.039
-297.735	-200.000	-0.005	0.361
-296.720	800.000	0.098	0.303
-295.705	-149.552	0.201	-0.016
-294.691	96.252	0.047	-0.053
-293.676	67.280	-0.019	0.019
-292.662	-8.328	-0.118	0.078
-291.647	199.877	0.102	-0.154
-290.632	800.000	0.062	-0.232
-289.618	-138.188	-0.238	0.026
-288.603	-52.057	0.320	-0.146
-287.589	599.397	0.054	0.131
-286.574	-200.000	0.018	-0.108
-285.559	16.585	0.161	0.125
-284.545	-133.166	0.361	-0.045
-283.530	800.000	-0.093	-0.288
-282.516	89.280	0.044	-0.048
-281.501	-126.030	0.352	-0.052
-280.486	218.087	0.174	-0.274
-279.472	58.456	-0.060	-0.058
-278.457	-200.000	0.011	-0.237
-277.443	108.718	-0.051	-0.060
-276.428	-200.000	-0.006	0.312
-275.413	65.671	0.061	-0.061
-274.399	-97.352	0.229	-0.059
-273.384	694.004	0.049	-0.127
-272.370	116.419	0.140	0.169
-271.355	334.229	-0.059	0.113
-270.340	-154.122	0.499	-0.033
-269.326	-200.000	0.015	0.373
-268.311	-99.326	0.195	-0.048
-267.297	800.000	-0.020	-0.087
-266.282	19.282	0.177	-0.140
-265.267	22.445	-0.276	0.223
-264.253	800.000	0.100	0.329
-263.238	-14.697	-0.270	-0.171
-262.224	-200.000	0.075	-0.377
-261.209	7.306	0.224	0.165
-260.195	800.000	-0.058	-0.225
-259.180	-200.000	0.005	0.192
-258.165	-67.703	0.376	0.145
-257.151	698.983	0.093	0.240
-256.136	-200.000	-0.027	-0.193
-255.122	-200.000	0.016	-0.181
-254.107	-200.000	-0.002	-0.234
-253.092	800.000	-0.088	-0.331
-252.078	-200.000	-0.005	0.146
-251.063	800.000	0.094	0.263
-250.049	250.087	0.030	-0.050
-249.034	150.924	0.148	-0.198
-248.019	66.288	-0.155	0.155
-247.005	-76.433	0.109	-0.038
-245.990	12.629	-0.059	-0.045
-244.976	198.853	0.117	-0.176
-243.961	-67.196	0.045	0.017
-242.946	800.000	0.052	-0.215
-241.932	62.591	0.115	-0.113
-240.917	46.920	-0.084	0.077
-239.903	256.856	-0.176	-0.298
-238.888	-34.849	-0.308	-0.165
-237.873	-30.782	-0.324	-0.180
-236.859	-17.543	-0.039	-0.024
-235.844	130.989	-0.047	0.059
-234.830	-200.000	-0.050	0.325
-233.815	85.019	-0.203	0.219
-232.800	404.668	0.102	0.211
-231.786	718.659	-0.102	0.266
-230.771	115.318	0.202	0.243
-229.757	622.317	-0.016	0.041
-228.742	-20.489	-0.275	0.166
-227.727	21.633	0.118	0.094
-226.713	-67.081	-0.128	-0.049
-225.698	174.190	0.085	-0.121
-224.684	800.000	0.056	-0.194
-223.669	800.000	-0.014	0.041
-222.655	800.000	-0.089	-0.274
-221.640	-8.045	-0.195	-0.129
-220.625	313.288	0.225	0.417
-219.611	9.024	0.212	-0.157
-218.596	-200.000	-0.055	-0.264
-217.582	-60.999	0.230	-0.096
-216.567	-160.601	-0.418	0.022
-215.552	-107.948	0.342	-0.073
-214.538	212.262	0.122	0.188
-213.523	37.915	0.184	-0.161
-212.509	83.889	-0.172	-0.185
-211.494	195.561	-0.103	-0.154
-210.479	-200.000	0.022	-0.270
-209.465	-200.000	0.028	-0.142
-208.450	-41.965	-0.110	-0.056
-207.436	-149.531	0.054	-0.004
-206.421	-200.000	-0.069	-0.348
-205.406	29.035	0.352	-0.293
-204.392	-37.709	0.009	0.005
-203.377	-62.346	-0.562	0.230
-202.363	68.667	-0.086	0.087
-201.348	-146.230	0.321	0.028
-200.333	-171.176	0.137	0.005
-199.319	-200.000	-0.004	0.303
-198.304	-25.642	0.197	-0.114
-197.290	-110.943	0.290	-0.059
-196.275	-47.138	0.234	0.112
-195.260	352.894	-0.114	-0.221
-194.246	170.065	0.078	-0.109
-193.231	-24.701	-0.235	0.137
-192.217	-46.408	-0.126	-0.061
-191.202	8.851	-0.153	-0.113
-190.187	69.767	0.255	0.258
-189.173	-200.000	-0.011	0.164
-188.158	49.559	0.078	0.072
-187.144	-154.147	0.144	-0.010
-186.129	73.271	-0.167	-0.172
-185.114	-16.936	0.193	0.120
-184.100	-31.041	-0.091	0.050
-183.085	-25.809	-0.416	0.241
-182.071	-44.927	0.130	0.064
-181.056	183.614	-0.042	0.061
-180.042	9.730	0.096	0.071
-179.027	-26.394	-0.171	0.098
-178.012	-153.574	-0.132	0.009
-176.998	-200.000	0.062	-0.324
-175.983	-18.315	0.141	-0.086
-174.969	-200.000	0.018	0.124
-173.954	-31.766	-0.189	0.104
-172.939	-39.182	0.350	0.181
-171.925	56.322	0.300	-0.286
-170.910	9.018	-0.197	-0.146
-169.896	-73.043	-0.156	0.056
-168.881	14.091	-0.172	-0.131
-167.866	139.661	0.253	-0.327
-166.852	-142.227	-0.114	0.011
-165.837	-51.776	-0.243	-0.111
-164.823	800.000	-0.047	-0.162
-163.808	-131.967	0.154	0.020
-162.793	1.252	0.218	-0.154
-161.779	-186.928	-0.366	0.005
-160.764	-60.739	0.241	-0.100
-159.750	-10.499	0.067	0.043
-158.735	234.963	-0.228	0.369
-157.720	40.037	-0.172	0.151
-156.706	46.609	-0.090	0.082
-155.691	800.000	-0.050	-0.197
-154.677	34.322	0.082	0.070
-153.662	-103.966	0.185	0.042
-152.647	-200.000	-0.012	0.066
-151.633	-200.000	-0.052	0.318
-150.618	23.736	0.216	0.175
-149.604	-190.988	-0.182	0.002
-148.589	-61.138	-0.341	0.141
-147.574	-92.783	0.265	0.073
-146.560	800.000	0.057	-0.195
-145.545	341.031	-0.051	-0.097
-144.531	-90.619	0.328	-0.093
-143.516	-75.308	0.179	0.063
-142.502	-122.530	0.266	-0.042
-141.487	157.922	0.086	0.117
-140.472	219.085	0.195	0.306
-139.458	83.587	-0.148	-0.159
-138.443	-3.741	0.132	-0.090
-137.429	-102.763	-0.059	0.014
-136.414	800.000	-0.074	-0.203
-135.399	-124.958	0.129	-0.020
-134.385	-200.000	0.009	-0.089
-133.370	-200.000	0.038	0.171
-132.356	130.017	0.083	-0.103
-131.341	66.126	0.373	-0.371
-130.326	-200.000	0.011	-0.291
-129.312	800.000	0.046	-0.141
-128.297	161.392	0.211	0.289
-127.283	-142.184	-0.140	-0.014
-126.268	26.741	-0.280	0.230
-125.253	-200.000	0.044	0.393
-124.239	199.920	0.085	0.127
-123.224	-200.000	-0.014	-0.136
-122.210	79.215	0.099	-0.104
-121.195	-48.055	-0.049	0.023
-120.180	1.554	-0.117	0.082
-119.166	80.252	-0.096	0.101
-118.151	-28.585	-0.244	-0.137
-117.137	149.923	-0.079	0.104
-116.122	-165.645	0.160	0.007
-115.107	219.155	0.235	0.367
-114.093	-200.000	-0.032	-0.180
-113.078	-92.690	-0.322	0.088
-112.064	800.000	0.118	0.339
-111.049	-200.000	-0.006	0.092
-110.034	69.703	-0.161	0.163
-109.020	-47.065	-0.350	-0.167
-108.005	-108.366	0.206	-0.044
-106.991	-178.091	-0.182	-0.004
-105.976	-74.627	0.212	-0.075
-104.962	-15.927	0.284	-0.177
-103.947	-145.404	0.196	-0.017
-102.932	-167.548	-0.131	0.005
-101.918	-200.000	-0.034	0.281
-100.903	-121.957	0.114	0.018
-99.889	-60.109	0.153	0.064
-98.874	-64.212	0.043	0.017
-97.859	190.144	0.077	0.113
-96.845	421.867	0.121	0.254
-95.830	81.906	-0.118	-0.125
-94.816	800.000	-0.054	0.186
-93.801	800.000	-0.098	0.279
-92.786	-200.000	0.012	-0.144
-91.772	-7.630	-0.312	-0.207
-90.757	-40.566	-0.129	0.066
-89.743	-200.000	0.034	0.241
-88.728	-24.428	0.129	-0.075
-87.713	-68.062	-0.085	-0.032
-86.699	46.680	-0.295	-0.268
-85.684	-200.000	0.004	-0.214
-84.670	192.401	0.117	-0.173
-83.655	-135.654	-0.061	0.007
-82.640	-200.000	0.005	0.034
-81.626	-200.000	0.046	-0.229
-80.611	-200.000	-0.007	0.155
-79.597	117.509	-0.116	0.140
-78.582	-45.513	0.306	-0.148
-77.567	-200.000	0.025	0.143
-76.553	-93.340	-0.131	-0.036
-75.538	183.062	-0.152	0.220
-74.524	562.448	-0.023	-0.054
-73.509	-81.867	0.309	0.099
-72.494	-200.000	-0.053	0.238
-71.480	-200.000	-0.012	0.275
-70.465	-110.415	0.549	0.112
-69.451	113.326	0.085	-0.101
-68.436	800.000	0.056	-0.189
-67.422	45.310	-0.138	-0.125
-66.407	-1.697	0.028	0.019
-65.392	-18.388	0.196	0.120
-64.378	-151.548	-0.251	0.018
-63.363	-170.163	-0.392	-0.014
-62.349	-52.926	-0.055	-0.025
-61.334	93.625	-1.060	-1.173
-60.319	19.082	0.547	0.428
-59.305	200.670	-0.704	-1.058
-58.290	252.698	0.758	1.262
-57.276	800.000	0.500	1.399
-56.261	-200.000	115.883	643.233
-55.246	504.071	1536.145	3472.710
-54.232	176.637	2704.754	3841.457
-53.217	105.761	2147.897	2481.668
-52.203	37.981	1584.038	1375.869
-51.188	29.879	1326.508	1104.038
-50.173	27.061	1288.110	1055.686
-49.159	52.809	1346.632	1257.523
-48.144	51.289	1359.762	1260.712
-47.130	30.045	1313.966	1094.403
-46.115	26.728	1295.866	1059.927
-45.100	26.478	1291.390	1054.765
-44.086	26.409	1288.362	1051.846
-43.071	26.361	1285.828	1049.458
-42.057	26.237	1284.451	1047.576
-41.042	26.290	1282.839	1046.526
-40.027	26.335	1280.715	1045.011
-39.013	26.401	1279.002	1043.955
-37.998	26.302	1277.240	1041.902
-36.984	26.383	1275.562	1040.957
-35.969	26.554	1273.558	1040.268
-34.954	26.535	1271.715	1038.610
-33.940	26.423	1270.937	1037.290
-32.925	26.526	1269.209	1036.431
-31.911	26.596	1267.553	1035.436
-30.896	26.612	1266.231	1034.407
-29.881	26.644	1264.968	1033.517
-28.867	26.648	1263.371	1032.194
-27.852	26.596	1262.221	1030.917
-26.838	26.593	1260.892	1029.772
-25.823	26.606	1259.703	1028.834
-24.809	26.623	1257.890	1027.412
-23.794	26.612	1256.657	1026.297
-22.779	26.516	1255.790	1025.008
-21.765	26.600	1254.662	1024.519
-20.750	26.579	1253.017	1023.017
-19.736	26.497	1251.852	1021.566
-18.721	26.395	1250.904	1020.171
-17.706	26.516	1249.918	1020.013
-16.692	26.613	1248.494	1019.353
-15.677	26.459	1247.447	1017.592
-14.663	26.475	1246.185	1016.612
-13.648	26.374	1245.420	1015.380
-12.633	26.452	1244.172	1014.761
-11.619	26.495	1242.967	1013.980
-10.604	26.499	1242.606	1013.668
-9.590	26.461	1241.273	1012.325
-8.575	26.356	1240.806	1011.316
-7.560	26.431	1239.585	1010.703
-6.546	26.524	1238.749	1010.500
-5.531	26.339	1238.064	1008.871
-4.517	26.590	1236.643	1009.072
-3.502	26.491	1236.236	1008.147
-2.487	26.438	1235.440	1007.161
-1.473	26.358	1231.442	1003.421
-0.458	24.893	1216.734	983.352
0.556	21.632	1200.535	947.004
1.571	18.264	1206.066	932.954
2.586	17.356	1220.978	939.393
3.600	17.032	1209.377	928.613
4.615	12.730	1138.772	852.108
5.629	6.018	1068.702	766.924
6.644	3.371	1050.495	741.072
7.659	3.123	1048.536	738.436
8.673	3.048	1047.625	737.371
9.688	3.239	1045.873	736.985
10.702	3.309	1044.175	736.061
11.717	7.020	1049.199	757.329
12.731	14.543	1059.219	800.733
13.746	19.069	1064.853	826.712
14.761	19.688	1065.370	830.013
15.775	18.703	1063.820	824.009
16.790	17.894	1061.707	818.423
17.804	17.152	1060.027	813.500
18.819	16.865	1059.076	811.326
19.834	16.589	1058.810	809.732
20.848	16.632	1057.375	808.764
21.863	16.474	1056.739	807.453
22.877	16.206	1056.539	805.949
23.892	16.373	1055.311	805.736
24.907	16.245	1054.687	804.579
25.921	16.233	1053.761	803.747
26.936	16.327	1052.211	802.940
27.950	16.261	1050.964	801.602
28.965	16.338	1049.621	800.875
29.980	16.562	1047.924	800.567
30.994	16.527	1046.859	799.516
32.009	16.568	1046.219	799.152
33.023	16.586	1044.738	798.034
34.038	16.366	1044.105	796.442
35.053	16.375	1043.230	795.746
36.067	16.305	1042.245	794.595
37.082	16.369	1041.488	794.249
38.096	16.460	1041.067	794.286
39.111	16.444	1040.082	793.391
40.126	16.327	1038.494	791.560
41.140	16.144	1037.398	789.800
42.155	16.078	1036.046	788.390
43.169	15.939	1035.065	786.925
44.184	16.060	1034.004	786.611
45.199	15.986	1033.142	785.544
46.213	16.211	1032.311	785.888
47.228	16.392	1031.027	785.684
48.242	16.364	1030.238	784.885
49.257	16.309	1029.301	783.845
50.271	16.332	1028.700	783.425
51.286	16.518	1027.548	783.338
52.301	16.274	1026.872	781.624
53.315	16.329	1025.491	780.759
54.330	16.160	1024.438	779.108
55.344	16.111	1024.088	778.548
56.359	16.194	1022.524	777.669
57.374	16.186	1021.672	776.916
58.388	16.086	1020.796	775.722
59.403	15.857	1020.583	774.439
60.417	15.997	1019.138	773.918
61.432	15.978	1018.521	773.293
62.447	15.890	1017.486	772.037
63.461	15.733	1016.857	770.771
64.476	15.895	1015.970	770.771
65.490	15.798	1015.042	769.552
66.505	15.918	1014.250	769.433
67.520	15.976	1013.808	769.297
68.534	15.821	1013.231	768.081
69.549	15.903	1012.483	767.823
70.563	15.965	1011.031	766.934
71.578	15.809	1010.576	765.812
72.593	15.659	1009.934	764.576
73.607	15.695	1009.381	764.255
74.622	15.800	1008.779	764.207
75.636	15.757	1008.128	763.451
76.651	15.823	1006.884	762.742
77.666	15.786	1006.659	762.333
78.680	15.851	1005.733	761.860
79.695	15.867	1005.140	761.416
80.709	15.959	1004.819	761.522
81.724	16.048	1004.118	761.325
82.739	16.273	1003.333	761.678
83.753	16.302	1003.118	761.577
84.768	16.598	1002.135	762.095
85.782	16.500	1001.804	761.338
86.797	16.489	1000.547	760.266
87.812	16.402	999.196	758.782
88.826	16.436	998.177	758.091
89.841	16.437	997.721	757.682
90.855	16.592	996.659	757.504
91.870	16.556	995.924	756.716
92.884	16.669	994.703	756.226
93.899	16.563	993.784	754.989
94.914	16.622	993.338	754.846
95.928	16.515	992.390	753.581
96.943	16.430	991.849	752.727
97.957	16.416	990.853	751.840
98.972	16.416	989.806	750.981
99.987	16.486	988.947	750.572
101.001	16.433	987.790	749.392
102.016	16.406	987.158	748.727
103.030	16.533	986.849	748.991
104.045	16.395	986.504	748.052
105.060	16.409	984.916	746.843
106.074	16.155	983.837	744.837
107.089	16.080	982.550	743.464
108.103	16.108	981.629	742.825
109.118	16.048	980.690	741.786
110.133	15.997	979.809	740.829
111.147	15.901	979.733	740.286
112.162	16.111	978.344	740.090
113.176	16.263	977.549	740.090
114.191	16.170	977.278	739.412
115.206	16.190	976.045	738.502
116.220	16.131	975.413	737.701
117.235	16.085	974.622	736.835
118.249	16.107	973.154	735.757
119.264	16.081	972.402	735.012
120.279	16.035	971.923	734.382
121.293	15.861	971.152	732.978
122.308	15.854	970.229	732.186
123.322	15.950	968.795	731.454
124.337	15.928	967.847	730.577
125.352	15.987	966.760	729.952
126.366	15.899	965.869	728.831
127.381	15.920	964.768	728.028
128.395	15.870	963.940	727.120
129.410	15.967	963.028	726.787
130.424	15.947	962.622	726.332
131.439	16.022	961.917	726.058
132.454	16.130	961.009	725.775
133.468	16.184	959.848	725.066
134.483	16.055	959.419	724.124
135.497	16.150	958.336	723.649
136.512	16.213	957.486	723.214
137.527	16.151	956.966	722.488
138.541	16.146	956.292	721.896
139.556	16.299	955.429	721.837
140.570	16.473	955.002	722.192
141.585	16.501	953.635	721.212
142.600	16.451	953.245	720.640
143.614	16.546	952.899	720.720
144.629	16.612	951.969	720.236
145.643	16.569	950.861	719.151
146.658	16.336	950.332	717.697
147.673	16.286	949.441	716.749
148.687	16.243	948.128	715.511
149.702	16.113	947.541	714.453
150.716	16.137	946.604	713.787
151.731	16.225	945.362	713.158
152.746	16.184	945.626	713.118
153.760	16.301	944.545	712.735
154.775	16.315	944.234	712.498
155.789	16.532	943.381	712.704
156.804	16.453	942.792	711.865
157.819	16.470	942.011	711.282
158.833	16.655	940.798	711.081
159.848	16.655	940.478	710.778
160.862	16.601	939.331	709.622
161.877	16.339	938.165	707.579
162.892	16.311	937.413	706.831
163.906	16.308	936.305	705.923
164.921	16.302	935.478	705.210
165.935	16.321	935.339	705.124
166.950	16.353	934.177	704.320
167.964	16.506	932.709	703.788
168.979	16.351	931.704	702.323
169.994	16.380	931.250	702.036
171.008	16.610	930.336	702.242
172.023	16.702	930.217	702.473
173.037	16.674	929.388	701.668
174.052	16.578	928.463	700.508
175.067	16.360	928.092	699.266
176.081	16.442	927.242	698.900
177.096	16.414	926.711	698.324
178.110	16.344	925.910	697.368
179.125	16.450	925.289	697.278
180.140	16.569	925.185	697.629
181.154	16.517	924.714	696.997
182.169	16.638	924.593	697.344
183.183	16.514	924.360	696.595
184.198	16.782	922.755	696.426
185.213	16.750	922.021	695.677
186.227	16.824	921.171	695.280
187.242	16.940	920.542	695.216
188.256	16.956	920.416	695.127
189.271	16.868	919.686	694.153
190.286	16.544	918.359	691.767
191.300	16.418	917.474	690.523
192.315	16.238	916.889	689.288
193.329	16.283	916.418	689.054
194.344	16.545	915.984	689.738
195.359	16.641	915.496	689.701
196.373	16.708	915.150	689.651
197.388	16.743	914.629	689.338
198.402	16.984	913.730	689.582
199.417	17.004	913.268	689.252
200.432	17.131	913.202	689.658
201.446	17.089	912.113	688.601
202.461	17.170	911.832	688.657
203.475	17.129	911.199	687.955
204.490	16.948	910.491	686.623
205.504	17.004	909.527	686.066
206.519	17.015	908.435	685.225
207.534	16.864	908.198	684.374
208.548	16.926	907.620	684.129
209.563	16.846	907.151	683.394
210.577	16.966	906.374	683.230
211.592	17.090	905.721	683.174
212.607	17.252	905.122	683.313
213.621	17.143	904.208	682.127
214.636	17.298	903.562	682.202
215.650	17.188	902.854	681.166
216.665	17.159	902.450	680.682
217.680	17.329	901.770	680.790
218.694	17.376	900.770	680.166
219.709	17.155	900.483	679.002
220.723	17.364	899.692	679.182
221.738	17.223	899.101	678.114
222.753	17.146	898.889	677.585
223.767	17.417	897.740	677.739
224.782	17.464	897.456	677.651
225.796	17.430	897.320	677.356
226.811	17.306	896.384	676.094
227.826	17.222	895.526	675.057
228.840	17.243	894.302	674.155
229.855	17.209	894.168	673.860
230.869	17.193	893.102	672.935
231.884	17.167	892.381	672.226
232.899	17.205	891.698	671.804
233.913	17.138	891.086	671.018
234.928	17.095	890.671	670.477
235.942	17.081	889.791	669.699
236.957	17.135	889.327	669.506
237.972	16.990	889.034	668.653
238.986	17.093	888.229	668.392
240.001	17.034	887.852	667.818
241.015	17.261	886.755	667.828
242.030	17.213	886.840	667.645
243.045	17.324	885.857	667.280
244.059	17.238	885.295	666.462
245.074	17.358	884.638	666.376
246.088	17.412	884.489	666.418
247.103	17.443	883.622	665.825
248.117	17.706	883.109	666.410
249.132	17.849	882.757	666.643
250.147	18.013	882.112	666.736
251.161	17.919	881.178	665.605
252.176	17.864	880.861	665.092
253.190	18.092	880.066	665.320
254.205	18.010	879.792	664.736
255.220	17.987	879.117	664.079
256.234	17.946	878.569	663.447
257.249	18.060	877.347	662.907
258.263	17.966	876.714	662.008
259.278	18.131	875.852	661.937
260.293	17.964	876.100	661.417
261.307	18.116	875.303	661.347
262.322	18.136	874.513	660.769
263.336	18.168	874.055	660.488
264.351	18.179	873.380	659.961
265.366	18.243	872.810	659.718
266.380	18.145	871.968	658.644
267.395	18.182	871.255	658.191
268.409	18.208	870.292	657.504
269.424	18.055	869.613	656.347
270.439	18.013	869.047	655.699
271.453	18.081	867.860	655.005
272.468	17.923	867.719	654.238
273.482	18.168	866.914	654.509
274.497	18.025	866.701	653.746
275.512	18.060	866.080	653.353
276.526	17.974	865.444	652.486
277.541	18.097	865.127	652.658
278.555	18.265	864.683	652.908
279.570	18.362	863.833	652.575
280.585	18.325	863.491	652.121
281.599	18.208	862.238	650.670
282.614	18.218	861.606	650.176
283.628	18.067	861.095	649.156
284.643	18.191	860.544	649.155
285.657	18.167	859.845	648.481
286.672	18.254	859.282	648.329
287.687	18.270	858.722	647.909
288.701	18.076	858.545	646.984
289.716	18.272	857.471	646.858
290.730	18.183	857.322	646.352
291.745	18.186	856.593	645.755
292.760	18.424	855.734	645.950
293.774	18.500	855.457	645.969
294.789	18.280	854.815	644.597
295.803	18.363	853.408	643.791
296.818	18.271	853.091	643.152
297.833	18.398	852.112	642.832
298.847	18.365	851.644	642.300
299.862	18.422	851.821	642.588
300.876	18.433	850.792	641.799
301.891	18.708	850.301	642.400
302.906	18.749	850.160	642.389
303.920	18.758	849.916	642.180
304.935	18.865	848.734	641.630
305.949	18.776	848.109	640.770
306.964	18.553	847.606	639.503
307.979	18.622	847.224	639.416
308.993	18.796	846.464	639.433
310.008	18.815	845.398	638.641
311.022	18.619	844.983	637.541
312.037	18.535	844.660	636.932
313.052	18.400	844.020	635.891
314.066	18.417	843.365	635.404
315.081	18.470	843.076	635.327
316.095	18.496	842.118	634.645
317.110	18.514	841.714	634.349
318.125	18.537	841.345	634.102
319.139	18.504	840.618	633.374
320.154	18.447	840.279	632.854
321.168	18.363	839.926	632.221
322.183	18.486	839.399	632.220
323.197	18.545	839.010	632.090
324.212	18.559	837.840	631.206
325.227	18.619	837.820	631.355
326.241	18.555	837.067	630.498
327.256	18.557	836.256	629.837
328.270	18.648	836.177	630.054
329.285	18.481	835.571	628.931
330.300	18.553	834.734	628.507
331.314	18.625	834.563	628.589
332.329	18.563	834.603	628.337
333.343	18.923	833.132	628.488
334.358	18.872	833.083	628.211
335.373	18.806	832.913	627.786
336.387	18.976	832.601	628.117
337.402	18.902	832.316	627.574
338.416	18.935	832.081	627.462
339.431	19.077	831.467	627.461
340.446	19.151	830.941	627.277
341.460	19.143	830.855	627.127
342.475	19.217	830.154	626.813
343.489	19.162	829.887	626.357
344.504	19.283	829.546	626.483
345.519	19.266	828.951	625.916
346.533	19.323	828.666	625.854
347.548	19.167	827.886	624.644
348.562	19.052	827.234	623.681
349.577	19.094	826.060	622.890
350.592	18.921	825.766	621.988
351.606	18.942	824.923	621.373
352.621	18.946	824.367	620.915
353.635	18.876	824.452	620.672
354.650	19.015	823.312	620.258
355.665	19.066	822.849	620.040
356.679	19.120	822.284	619.752
357.694	19.224	821.760	619.679
358.708	19.092	821.250	618.764
359.723	19.172	820.561	618.477
360.738	19.234	819.876	618.130
361.752	19.149	819.849	617.748
362.767	19.411	818.596	617.687
363.781	19.622	818.232	618.114
364.796	19.465	818.199	617.474
365.810	19.576	817.815	617.524
366.825	19.480	817.514	616.898
367.840	19.413	817.226	616.390
368.854	19.304	816.554	615.436
369.869	19.446	815.901	615.397
370.883	19.471	815.561	615.176
371.898	19.582	815.210	615.251
372.913	19.746	814.584	615.308
373.927	19.432	814.741	614.255
374.942	19.641	813.899	614.311
375.956	19.745	813.225	614.116
376.971	19.735	812.830	613.728
377.986	19.778	812.614	613.663
379.000	19.837	812.035	613.379
380.015	19.822	811.674	613.000
381.029	19.852	810.658	612.284
382.044	19.798	810.197	611.692
383.059	19.790	809.784	611.299
384.073	19.808	809.222	610.883
385.088	19.671	808.103	609.499
386.102	19.596	807.748	608.915
387.117	19.685	807.162	608.732
388.132	19.625	806.656	608.085
389.146	19.656	806.028	607.668
390.161	19.835	805.901	608.148
391.175	19.944	805.529	608.196
392.190	19.701	804.971	606.869
393.205	19.719	804.352	606.411
394.219	19.589	803.923	605.579
395.234	19.636	803.546	605.404
396.248	19.546	803.195	604.772
397.263	19.600	802.083	604.070
398.278	19.517	801.840	603.541
399.292	19.478	801.686	603.237
400.307	19.389	801.656	602.851
401.321	19.593	800.558	602.684
402.336	19.510	800.231	602.093
403.350	19.830	799.770	602.811
404.365	19.810	799.545	602.515
405.380	19.968	799.126	602.697
406.394	20.063	798.344	602.385
407.409	20.043	798.287	602.217
408.423	20.271	798.007	602.748
409.438	20.211	797.693	602.247
410.453	20.146	797.330	601.695
411.467	20.144	796.787	601.224
412.482	20.273	796.387	601.317
413.496	20.273	795.963	600.942
414.511	20.292	796.163	601.105
415.526	20.326	795.034	600.318
416.540	20.155	794.696	599.420
417.555	20.308	794.114	599.458
418.569	20.192	793.960	598.887
419.584	20.287	793.121	598.529
420.599	20.461	792.750	598.794
421.613	162.515	1370.995	1796.651
422.628	140.886	1455.236	1796.726
