DTS Sentinel unit serial number:	SN413079Multiplexer serial number:	ORYXHardware model number:	OX4-SRSoftware version number:	ORYX F/W v4.00 Oryx Data Collector v3.7.2.0data status	okinstallation	princeton_trtdifferential loss correction	single-endedforward channel	channel 1reverse channel	N/Adate	2019/09/14time	06:58:36forward acquisition time	60.00reverse acquisition time	0.00gamma	496.2192k internal	0.2336k external	0.2336temperature offset calibration	1.0078default loss term (dB/km)	0.3790temperature slope calibration	1.0000multiplexer offset coefficient	1.0000multiplexer slope coefficient	1.0000fibre end	0.00T internal ref (°C)	26.19T ext. ref 1 (°C)	3.43T ext. ref 2 (°C)	21.00length (m)	temperature (°C)	Stokes	anti-Stokes-747.200	-151.862	-0.371	-0.027
-746.185	302.353	0.107	-0.199
-745.171	594.149	0.084	0.208
-744.156	-200.000	0.074	0.341
-743.142	494.827	0.095	0.220
-742.127	-34.328	-0.256	-0.141
-741.112	450.623	-0.151	0.334
-740.098	63.710	-0.245	0.247
-739.083	447.733	0.050	0.111
-738.069	800.000	-0.080	0.264
-737.054	-200.000	-0.089	-0.411
-736.039	155.165	-0.251	0.346
-735.025	-6.874	0.298	0.203
-734.010	84.381	-0.292	-0.321
-732.996	-20.057	0.063	0.039
-731.981	253.296	-0.231	-0.397
-730.966	-200.000	0.040	-0.305
-729.952	-188.106	-0.244	0.003
-728.937	-52.653	-0.199	-0.092
-727.923	-47.700	0.259	0.126
-726.908	106.832	-0.190	-0.226
-725.894	-200.000	0.015	-0.123
-724.879	-200.000	0.011	-0.106
-723.864	-6.809	-0.044	0.030
-722.850	4.940	-0.132	0.097
-721.835	-94.583	-0.252	0.069
-720.821	-200.000	-0.034	-0.181
-719.806	407.484	-0.119	-0.252
-718.791	-84.273	-0.096	-0.030
-717.777	-74.829	-0.254	-0.092
-716.762	-200.000	0.008	-0.156
-715.748	-70.009	-0.087	0.033
-714.733	-200.000	0.015	-0.212
-713.718	-11.563	0.120	0.079
-712.704	-149.059	0.194	-0.016
-711.689	77.328	-0.079	-0.084
-710.675	-179.737	-0.170	0.004
-709.660	-162.760	-0.191	0.009
-708.645	800.000	-0.051	-0.209
-707.631	-63.118	-0.053	-0.022
-706.616	800.000	-0.030	0.126
-705.602	56.581	-0.110	0.107
-704.587	-35.436	0.220	0.120
-703.572	73.023	-0.177	0.185
-702.558	365.693	0.059	0.120
-701.543	-196.511	0.025	0.000
-700.529	-200.000	-0.008	0.230
-699.514	789.693	-0.038	0.104
-698.499	36.970	-0.124	-0.110
-697.485	763.005	0.053	-0.143
-696.470	140.757	-0.055	-0.072
-695.456	207.523	-0.147	0.230
-694.441	-14.426	0.178	-0.115
-693.426	-71.143	-0.085	-0.032
-692.412	188.738	0.084	0.126
-691.397	-71.278	0.180	0.068
-690.383	2.685	0.219	0.159
-689.368	-173.261	-0.232	-0.007
-688.354	800.000	-0.023	0.083
-687.339	-100.933	0.134	0.033
-686.324	297.469	-0.052	0.096
-685.310	58.430	0.111	-0.109
-684.295	800.000	-0.069	0.202
-683.281	555.135	-0.106	0.255
-682.266	-196.745	0.244	0.002
-681.251	-155.456	0.081	0.005
-680.237	35.178	0.015	0.013
-679.222	8.411	0.120	-0.090
-678.208	-127.650	-0.155	-0.022
-677.193	194.721	-0.051	0.077
-676.178	344.491	0.072	0.141
-675.164	-135.579	-0.085	0.010
-674.149	107.002	0.231	-0.275
-673.135	113.088	0.156	-0.190
-672.120	-115.264	0.251	0.047
-671.105	346.790	-0.013	0.025
-670.091	-153.211	0.168	-0.012
-669.076	156.442	-0.181	0.250
-668.062	-51.403	-0.116	0.054
-667.047	72.130	0.205	0.214
-666.032	-122.029	-0.429	0.071
-665.018	-200.000	0.023	-0.240
-664.003	-109.857	0.343	0.072
-662.989	-145.060	-0.078	0.007
-661.974	-68.440	-0.374	0.145
-660.959	139.244	-0.162	-0.213
-659.945	-200.000	0.046	-0.436
-658.930	-200.000	0.002	-0.220
-657.916	102.606	0.097	-0.114
-656.901	-4.781	-0.031	-0.022
-655.886	33.320	-0.202	0.175
-654.872	800.000	-0.022	-0.066
-653.857	-44.325	0.134	0.067
-652.843	-61.364	-0.251	-0.106
-651.828	64.280	0.070	0.070
-650.814	215.279	-0.073	-0.116
-649.799	1.453	0.193	-0.139
-648.784	-123.092	-0.282	0.045
-647.770	-70.674	-0.157	-0.059
-646.755	-94.931	-0.120	-0.032
-645.741	178.188	0.188	-0.275
-644.726	614.991	0.089	0.223
-643.711	79.843	-0.091	-0.097
-642.697	223.147	0.138	-0.223
-641.682	-89.008	-0.086	0.026
-640.668	-200.000	0.013	-0.282
-639.653	800.000	0.016	-0.049
-638.638	-81.525	0.178	-0.059
-637.624	-70.290	0.250	-0.095
-636.609	114.900	0.078	0.095
-635.595	-159.236	0.224	0.013
-634.580	-61.376	0.371	0.156
-633.565	660.826	-0.123	-0.316
-632.551	263.479	-0.200	0.347
-631.536	-37.476	-0.200	0.107
-630.522	-61.069	0.292	-0.123
-629.507	76.249	0.126	-0.133
-628.492	-108.935	0.104	-0.022
-627.478	1.289	-0.126	-0.091
-626.463	190.438	0.257	-0.386
-625.449	-98.700	-0.611	-0.156
-624.434	157.548	-0.124	-0.172
-623.419	2.265	-0.026	0.019
-622.405	-90.968	-0.373	-0.107
-621.390	-25.246	-0.054	-0.032
-620.376	-89.914	-0.409	0.120
-619.361	33.834	0.293	0.255
-618.346	-200.000	0.038	-0.176
-617.332	157.370	-0.054	-0.075
-616.317	-98.165	-0.168	-0.043
-615.303	-73.492	-0.158	-0.057
-614.288	-43.670	-0.080	0.040
-613.273	-156.695	-0.377	0.023
-612.259	304.538	0.025	-0.046
-611.244	30.571	0.088	-0.075
-610.230	67.407	-0.128	0.131
-609.215	-50.237	-0.279	-0.132
-608.201	-154.885	0.153	-0.010
-607.186	-200.000	0.001	-0.200
-606.171	-42.669	0.204	0.104
-605.157	-101.071	0.239	0.058
-604.142	190.177	0.167	-0.251
-603.128	-74.569	-0.275	-0.099
-602.113	232.361	0.158	-0.259
-601.098	301.248	0.146	-0.268
-600.084	-200.000	0.013	-0.103
-599.069	-200.000	-0.070	0.339
-598.055	163.235	-0.130	-0.182
-597.040	-2.978	-0.072	0.050
-596.025	-43.121	0.474	0.240
-595.011	-167.771	-0.150	0.006
-593.996	784.946	-0.106	0.290
-592.982	-200.000	-0.022	0.317
-591.967	209.959	0.089	0.140
-590.952	201.500	0.096	0.148
-589.938	-116.373	-0.154	-0.028
-588.923	364.065	0.047	-0.095
-587.909	-52.974	0.320	-0.147
-586.894	-200.000	-0.020	0.162
-585.879	30.135	-0.041	-0.035
-584.865	-58.928	-0.268	-0.116
-583.850	142.466	0.118	-0.156
-582.836	642.009	-0.091	0.232
-581.821	-7.328	-0.116	-0.078
-580.806	800.000	-0.076	-0.253
-579.792	-183.655	0.253	0.004
-578.777	-75.173	0.145	-0.052
-577.763	-6.660	0.128	-0.087
-576.748	800.000	-0.066	-0.238
-575.733	117.527	-0.104	-0.127
-574.719	-131.003	-0.180	-0.024
-573.704	163.801	-0.109	0.153
-572.690	15.779	0.046	-0.036
-571.675	-61.970	-0.163	0.068
-570.661	-200.000	0.028	0.408
-569.646	7.493	-0.194	0.145
-568.631	-200.000	0.017	0.211
-567.617	107.687	-0.111	0.132
-566.602	88.884	-0.053	0.059
-565.588	140.274	-0.016	-0.021
-564.573	-40.026	-0.345	-0.179
-563.558	-30.315	0.058	-0.033
-562.544	-2.262	0.114	-0.080
-561.529	-200.000	-0.043	-0.223
-560.515	-187.581	0.201	0.003
-559.500	800.000	0.036	-0.130
-558.485	-88.829	0.309	-0.091
-557.471	800.000	0.085	-0.319
-556.456	-200.000	0.026	-0.237
-555.442	800.000	-0.017	-0.065
-554.427	22.860	0.068	-0.056
-553.412	170.126	0.034	0.048
-552.398	241.788	-0.120	-0.199
-551.383	18.012	0.190	-0.151
-550.369	800.000	-0.021	0.058
-549.354	224.568	0.080	-0.129
-548.339	74.716	-0.222	-0.232
-547.325	-200.000	-0.117	0.000
-546.310	220.073	-0.102	0.162
-545.296	-105.778	0.344	0.077
-544.281	68.767	-0.219	-0.224
-543.266	-76.760	-0.191	0.067
-542.252	-70.034	-0.109	0.041
-541.237	-118.953	0.184	0.032
-540.223	81.089	0.264	0.284
-539.208	800.000	-0.072	0.201
-538.193	782.809	-0.015	0.042
-537.179	276.742	0.156	0.277
-536.164	800.000	0.107	-0.413
-535.150	-200.000	-0.055	-0.278
-534.135	-23.586	-0.252	-0.151
-533.121	47.214	-0.117	-0.109
-532.106	-97.602	-0.262	0.068
-531.091	-21.660	-0.096	-0.058
-530.077	-5.320	0.216	-0.148
-529.062	361.862	-0.043	-0.086
-528.048	-33.685	0.232	0.128
-527.033	171.177	0.058	-0.083
-526.018	-175.486	-0.065	0.002
-525.004	718.159	-0.016	-0.042
-523.989	-29.890	-0.235	0.133
-522.975	-200.000	0.052	-0.444
-521.960	460.275	-0.147	-0.327
-520.945	58.274	-0.026	0.025
-519.931	170.182	0.233	0.332
-518.916	58.391	-0.147	-0.144
-517.902	-200.000	0.050	-0.251
-516.887	617.615	0.043	0.106
-515.872	-92.070	-0.125	0.035
-514.858	31.565	-0.259	0.222
-513.843	-115.137	0.028	-0.005
-512.829	-28.669	0.248	0.142
-511.814	52.072	0.182	0.172
-510.799	-200.000	0.010	0.156
-509.785	800.000	-0.044	0.129
-508.770	-36.361	-0.288	-0.154
-507.756	-2.344	0.274	-0.191
-506.741	102.183	0.117	0.136
-505.726	-62.984	-0.156	-0.064
-504.712	599.351	0.085	-0.210
-503.697	-95.204	0.402	0.108
-502.683	149.917	-0.064	0.087
-501.668	-33.679	0.221	0.121
-500.653	-162.822	-0.169	0.008
-499.639	800.000	-0.048	0.189
-498.624	-200.000	0.019	0.150
-497.610	703.839	-0.049	0.129
-496.595	488.438	0.115	0.261
-495.581	120.433	0.182	0.224
-494.566	-200.000	-0.192	-0.000
-493.551	299.978	-0.139	-0.254
-492.537	-39.067	-0.269	-0.141
-491.522	-116.253	0.231	0.043
-490.508	-32.441	0.173	0.096
-489.493	349.874	-0.089	0.174
-488.478	-200.000	0.060	0.331
-487.464	245.734	-0.056	-0.095
-486.449	-105.850	0.368	-0.083
-485.435	76.487	-0.106	0.112
-484.420	451.878	0.050	0.111
-483.405	-102.279	-0.170	0.041
-482.391	-98.358	-0.606	-0.154
-481.376	-3.478	0.077	0.053
-480.362	97.666	0.127	-0.146
-479.347	-39.434	0.119	-0.062
-478.332	-91.426	0.148	-0.042
-477.318	800.000	-0.042	-0.130
-476.303	-100.702	-0.148	-0.036
-475.289	-122.143	0.321	-0.052
-474.274	257.053	0.012	0.021
-473.259	17.843	-0.214	-0.169
-472.245	110.449	0.073	-0.087
-471.230	166.022	-0.086	0.120
-470.216	-165.563	0.326	-0.014
-469.201	110.819	0.109	0.130
-468.186	-125.613	-0.281	0.042
-467.172	355.777	0.096	-0.190
-466.157	-37.471	-0.243	-0.129
-465.143	-200.000	0.035	-0.384
-464.128	-136.294	-0.178	-0.021
-463.113	-43.702	0.195	0.098
-462.099	800.000	-0.108	-0.326
-461.084	-200.000	0.028	0.225
-460.070	663.468	0.169	0.432
-459.055	-102.847	0.241	-0.057
-458.040	-127.700	-0.053	-0.008
-457.026	-74.710	0.301	0.107
-456.011	103.663	0.106	0.124
-454.997	-124.427	-0.124	-0.019
-453.982	-200.000	0.054	-0.281
-452.968	800.000	-0.054	0.196
-451.953	677.869	0.013	-0.034
-450.938	174.217	-0.192	-0.276
-449.924	390.566	-0.081	0.167
-448.909	132.168	0.112	-0.144
-447.895	182.313	-0.075	-0.110
-446.880	32.568	0.138	-0.119
-445.865	71.811	0.091	0.094
-444.851	349.512	0.059	0.116
-443.836	-14.449	0.097	-0.062
-442.822	800.000	0.162	-0.489
-441.807	336.119	-0.042	-0.080
-440.792	126.163	0.173	0.217
-439.778	-35.535	-0.218	-0.117
-438.763	-72.905	0.337	-0.123
-437.749	267.827	0.088	-0.153
-436.734	-76.829	0.349	0.121
-435.719	701.376	0.040	-0.104
-434.705	275.076	-0.078	0.137
-433.690	155.099	0.139	-0.189
-432.676	-200.000	-0.046	0.411
-431.661	800.000	0.119	-0.329
-430.646	-200.000	0.006	-0.095
-429.632	-200.000	0.061	0.308
-428.617	-200.000	0.066	0.308
-427.603	71.648	0.144	0.148
-426.588	18.278	-0.275	-0.217
-425.573	-60.885	-0.286	0.120
-424.559	106.480	0.064	0.075
-423.544	-25.885	-0.077	0.045
-422.530	800.000	-0.063	-0.220
-421.515	-48.344	-0.277	-0.133
-420.500	800.000	-0.074	-0.225
-419.486	-200.000	-0.023	0.162
-418.471	59.149	0.157	0.153
-417.457	-32.001	0.051	0.028
-416.442	453.576	-0.081	0.177
-415.428	-62.167	-0.307	0.127
-414.413	283.786	-0.182	0.324
-413.398	405.046	0.046	-0.095
-412.384	-135.075	-0.283	0.034
-411.369	-32.241	-0.228	0.126
-410.355	800.000	0.069	-0.213
-409.340	-149.188	0.328	0.026
-408.325	-138.208	-0.226	-0.025
-407.311	-146.046	-0.288	-0.025
-406.296	117.720	0.229	0.279
-405.282	-4.055	0.254	-0.174
-404.267	-10.792	-0.211	-0.138
-403.252	224.133	-0.049	0.078
-402.238	-113.657	-0.216	-0.042
-401.223	-15.454	-0.093	0.059
-400.209	-38.754	-0.414	0.216
-399.194	-169.344	-0.130	-0.005
-398.179	65.283	0.287	0.288
-397.165	-107.921	0.180	-0.039
-396.150	-169.694	0.140	0.005
-395.136	317.177	0.190	0.356
-394.121	19.636	0.256	0.204
-393.106	18.008	0.255	0.201
-392.092	85.026	0.134	0.145
-391.077	-200.000	-0.021	-0.142
-390.063	-69.664	-0.071	0.027
-389.048	202.644	0.175	-0.267
-388.033	424.132	0.195	0.415
-387.019	-4.909	-0.218	0.149
-386.004	800.000	0.034	0.098
-384.990	22.721	-0.142	-0.115
-383.975	-5.427	0.241	0.164
-382.960	-102.335	0.099	-0.023
-381.946	121.763	0.167	-0.206
-380.931	-162.154	-0.302	-0.015
-379.917	-194.691	-0.189	0.001
-378.902	350.943	-0.103	-0.202
-377.888	-52.270	0.230	-0.106
-376.873	-200.000	0.027	-0.149
-375.858	125.876	0.038	0.047
-374.844	-98.326	0.284	0.072
-373.829	800.000	-0.037	-0.134
-372.815	-200.000	0.003	-0.207
-371.800	69.917	0.212	-0.217
-370.785	126.817	-0.044	-0.055
-369.771	-200.000	-0.063	-0.316
-368.756	351.468	-0.104	-0.205
-367.742	-118.826	-0.071	-0.012
-366.727	127.402	0.056	-0.071
-365.712	800.000	0.058	-0.238
-364.698	681.608	0.135	-0.347
-363.683	-70.756	0.273	-0.102
-362.669	24.401	0.148	0.121
-361.654	43.316	0.268	-0.242
-360.639	724.603	0.040	0.105
-359.625	800.000	-0.175	-0.580
-358.610	194.961	-0.035	-0.052
-357.596	57.204	0.023	0.023
-356.581	134.678	-0.201	-0.258
-355.566	-200.000	-0.060	0.406
-354.552	-200.000	-0.077	-0.342
-353.537	800.000	0.058	0.222
-352.523	58.839	-0.292	0.284
-351.508	-91.903	0.054	0.015
-350.493	800.000	-0.098	-0.316
-349.479	100.838	0.292	0.336
-348.464	756.959	-0.088	-0.236
-347.450	-143.194	-0.148	-0.014
-346.435	-200.000	-0.007	-0.168
-345.420	-63.634	-0.119	-0.048
-344.406	379.041	0.047	-0.095
-343.391	-100.771	-0.353	-0.086
-342.377	-200.000	-0.015	0.406
-341.362	-200.000	0.004	0.110
-340.348	68.354	-0.114	0.115
-339.333	267.892	0.132	0.228
-338.318	463.024	0.107	-0.235
-337.304	-8.541	-0.335	-0.223
-336.289	-200.000	0.081	0.354
-335.275	-85.843	-0.155	0.047
-334.260	-95.828	-0.195	0.052
-333.245	-200.000	0.021	0.226
-332.231	156.108	-0.219	0.299
-331.216	394.260	0.036	0.074
-330.202	75.805	0.212	-0.221
-329.187	800.000	-0.049	0.156
-328.172	-58.035	-0.076	-0.033
-327.158	-60.553	-0.332	-0.139
-326.143	800.000	0.063	0.183
-325.129	-39.946	0.095	-0.049
-324.114	307.652	0.073	-0.134
-323.099	-52.867	-0.007	-0.003
-322.085	234.289	-0.127	-0.207
-321.070	-200.000	-0.010	0.107
-320.056	800.000	-0.037	-0.130
-319.041	80.829	0.166	-0.176
-318.026	-132.958	0.046	0.006
-317.012	-200.000	-0.065	0.298
-315.997	200.265	0.025	-0.038
-314.983	-179.121	-0.396	0.009
-313.968	305.341	-0.117	0.215
-312.953	74.781	0.256	-0.266
-311.939	-61.716	0.105	-0.043
-310.924	800.000	-0.022	0.083
-309.910	-200.000	0.013	-0.168
-308.895	-79.670	-0.312	-0.104
-307.880	-200.000	0.009	0.062
-306.866	800.000	0.100	0.321
-305.851	397.952	-0.029	0.059
-304.837	-200.000	-0.034	-0.200
-303.822	-121.998	0.289	-0.047
-302.807	-200.000	0.023	-0.400
-301.793	-5.573	-0.217	-0.147
-300.778	-31.670	-0.245	0.136
-299.764	56.601	-0.117	-0.113
-298.749	7.424	-0.305	-0.225
-297.735	200.807	-0.102	0.155
-296.720	155.428	0.081	0.111
-295.705	-44.659	-0.144	0.071
-294.691	800.000	0.040	0.121
-293.676	406.802	0.143	0.299
-292.662	279.800	-0.109	0.192
-291.647	-200.000	0.015	-0.270
-290.632	-149.083	0.171	-0.014
-289.618	309.689	-0.166	-0.307
-288.603	-200.000	-0.000	-0.286
-287.589	-200.000	-0.067	-0.365
-286.574	158.236	-0.286	0.391
-285.559	-88.463	-0.147	-0.043
-284.545	-84.393	-0.196	-0.061
-283.530	-45.241	-0.136	-0.066
-282.516	-81.474	0.263	0.085
-281.501	91.174	-0.037	-0.041
-280.486	404.145	0.060	0.125
-279.472	-39.015	-0.194	-0.100
-278.457	157.211	-0.182	0.248
-277.443	-200.000	0.020	0.209
-276.428	-200.000	0.024	0.279
-275.413	-200.000	-0.036	0.313
-274.399	18.001	0.088	0.069
-273.384	-200.000	-0.005	0.132
-272.370	800.000	0.050	-0.205
-271.355	62.089	0.086	-0.084
-270.340	42.155	-0.222	-0.198
-269.326	-97.235	0.159	0.041
-268.311	111.875	-0.092	0.109
-267.297	-26.849	-0.324	-0.187
-266.282	800.000	-0.083	0.241
-265.267	250.291	0.171	0.287
-264.253	271.667	0.062	-0.108
-263.238	-146.460	-0.220	0.019
-262.224	-184.270	-0.209	0.003
-261.209	74.892	0.056	-0.058
-260.195	455.712	0.051	-0.111
-259.180	162.935	-0.083	0.114
-258.165	-67.093	0.162	-0.063
-257.151	-200.000	-0.036	0.173
-256.136	470.719	0.126	-0.280
-255.122	-200.000	0.017	0.088
-254.107	-96.582	0.251	0.065
-253.092	800.000	0.080	0.240
-252.078	-200.000	-0.037	-0.246
-251.063	-182.181	0.345	-0.006
-250.049	-170.164	-0.161	0.006
-249.034	218.532	-0.183	-0.287
-248.019	176.549	-0.024	0.034
-247.005	350.202	-0.052	-0.102
-245.990	-200.000	0.071	-0.361
-244.976	-131.449	-0.156	-0.020
-243.961	25.409	0.043	-0.035
-242.946	-200.000	0.037	-0.228
-241.932	33.976	0.120	0.103
-240.917	800.000	-0.048	0.180
-239.903	151.875	0.160	-0.215
-238.888	800.000	0.109	0.457
-237.873	-105.480	0.166	-0.037
-236.859	340.535	-0.116	0.224
-235.844	-8.283	0.123	-0.082
-234.830	800.000	0.033	0.129
-233.815	477.595	-0.228	0.508
-232.800	-78.525	0.165	0.056
-231.786	-98.831	0.254	-0.064
-230.771	562.486	-0.034	0.081
-229.757	89.585	-0.157	0.172
-228.742	800.000	0.101	0.380
-227.727	62.633	-0.114	-0.112
-226.713	126.131	-0.215	-0.267
-225.698	-149.592	0.350	-0.027
-224.684	-200.000	0.006	0.312
-223.669	-26.724	0.241	0.139
-222.655	133.142	0.131	0.167
-221.640	-123.304	0.369	-0.058
-220.625	-200.000	-0.006	0.182
-219.611	800.000	-0.043	-0.126
-218.596	45.856	0.057	0.052
-217.582	164.423	-0.185	0.256
-216.567	280.341	-0.156	0.274
-215.552	63.836	0.083	0.083
-214.538	213.677	0.069	0.107
-213.523	-9.292	-0.379	-0.249
-212.509	-23.191	0.251	-0.149
-211.494	215.190	0.128	0.200
-210.479	-200.000	-0.007	-0.209
-209.465	800.000	0.014	-0.053
-208.450	-26.773	0.387	-0.223
-207.436	-200.000	-0.003	0.176
-206.421	37.947	0.051	0.045
-205.406	21.235	0.078	0.062
-204.392	280.296	0.170	0.299
-203.377	-200.000	-0.008	0.042
-202.363	-200.000	0.014	0.091
-201.348	-90.962	-0.105	0.030
-200.333	560.881	0.115	0.274
-199.319	800.000	0.112	0.312
-198.304	-112.149	-0.295	0.058
-197.290	-37.891	0.285	0.149
-196.275	6.328	0.372	0.271
-195.260	-96.660	-0.310	-0.080
-194.246	23.437	-0.014	-0.012
-193.231	-200.000	-0.004	-0.063
-192.217	446.532	0.039	-0.085
-191.202	-200.000	-0.010	0.316
-190.187	-71.011	0.285	0.105
-189.173	686.032	-0.072	-0.184
-188.158	176.557	-0.123	0.175
-187.144	-200.000	-0.028	-0.171
-186.129	53.886	0.190	0.179
-185.114	800.000	-0.013	0.047
-184.100	-9.574	0.132	0.086
-183.085	-73.030	-0.094	-0.034
-182.071	-24.204	0.207	-0.121
-181.056	-69.884	0.289	0.108
-180.042	800.000	0.021	0.065
-179.027	-75.516	-0.346	-0.121
-178.012	391.963	0.060	-0.123
-176.998	637.596	-0.046	-0.116
-175.983	4.351	0.324	0.233
-174.969	156.323	-0.046	0.062
-173.954	31.020	0.069	-0.058
-172.939	800.000	0.087	-0.287
-171.925	-200.000	-0.009	0.284
-170.910	-18.393	-0.364	0.223
-169.896	28.551	-0.202	-0.168
-168.881	-5.930	-0.452	-0.304
-167.866	83.410	-0.197	-0.211
-166.852	98.250	-0.018	0.021
-165.837	-200.000	-0.023	0.118
-164.823	-64.561	0.166	0.066
-163.808	367.678	-0.031	0.061
-162.793	-68.640	-0.112	0.043
-161.779	800.000	0.023	0.072
-160.764	-200.000	-0.018	-0.175
-159.750	53.322	-0.075	0.071
-158.735	-200.000	-0.026	0.319
-157.720	-123.902	-0.160	0.025
-156.706	178.442	0.124	-0.178
-155.691	-200.000	0.053	0.357
-154.677	-51.910	0.386	0.176
-153.662	-200.000	-0.020	-0.265
-152.647	-171.834	0.167	-0.005
-151.633	800.000	-0.015	0.044
-150.618	704.334	0.056	-0.145
-149.604	63.154	-0.117	-0.115
-148.589	66.147	0.123	0.123
-147.574	-29.519	-0.214	-0.120
-146.560	-61.844	-0.239	-0.098
-145.545	59.551	0.044	-0.043
-144.531	419.646	0.040	0.085
-143.516	56.482	-0.181	-0.173
-142.502	800.000	-0.071	0.219
-141.487	-147.291	-0.251	0.021
-140.472	800.000	0.039	-0.163
-139.458	-200.000	-0.054	0.286
-138.443	211.310	0.030	0.047
-137.429	405.853	0.079	0.164
-136.414	-47.942	0.034	0.016
-135.399	554.135	-0.044	0.103
-134.385	-200.000	0.008	0.235
-133.370	94.508	0.225	0.250
-132.356	800.000	0.066	0.227
-131.341	-200.000	0.033	-0.444
-130.326	625.936	0.069	-0.172
-129.312	184.762	0.228	0.332
-128.297	218.830	0.156	0.244
-127.283	-122.207	0.172	-0.028
-126.268	182.639	-0.110	-0.160
-125.253	-200.000	0.004	-0.060
-124.239	-1.699	-0.055	-0.038
-123.224	-58.116	0.225	-0.096
-122.210	-109.980	0.373	0.077
-121.195	88.446	-0.236	0.257
-120.180	-7.512	0.199	-0.132
-119.166	-123.947	0.132	0.020
-118.151	-200.000	-0.004	0.074
-117.137	100.528	-0.020	-0.023
-116.122	-200.000	-0.036	0.357
-115.107	681.391	-0.045	-0.115
-114.093	-149.068	-0.045	0.004
-113.078	-20.594	-0.124	-0.074
-112.064	11.820	0.342	-0.258
-111.049	-75.093	-0.189	0.066
-110.034	-191.241	-0.135	-0.001
-109.020	-82.571	-0.185	-0.059
-108.005	-36.832	0.034	-0.018
-106.991	-122.550	0.149	0.024
-105.976	-200.000	0.006	0.248
-104.962	-200.000	0.028	-0.191
-103.947	-200.000	-0.038	-0.452
-102.932	-200.000	0.016	-0.163
-101.918	252.945	-0.116	-0.194
-100.903	-3.122	0.213	-0.145
-99.889	39.675	0.165	0.145
-98.874	416.802	0.034	-0.071
-97.859	-165.840	0.116	0.005
-96.845	-81.525	0.079	0.026
-95.830	786.575	-0.056	-0.151
-94.816	-124.319	-0.164	-0.025
-93.801	17.838	-0.385	-0.300
-92.786	179.255	-0.067	-0.096
-91.772	231.758	-0.084	0.135
-90.757	202.886	0.020	0.030
-89.743	-74.025	0.364	0.129
-88.728	652.100	0.134	0.337
-87.713	116.169	0.167	0.200
-86.699	-119.183	-0.157	0.027
-85.684	-159.334	0.124	0.007
-84.670	32.968	-0.220	-0.186
-83.655	-153.078	-0.315	-0.022
-82.640	800.000	-0.049	0.175
-81.626	-58.251	-0.186	-0.079
-80.611	-73.207	-0.133	-0.048
-79.597	109.638	-0.122	0.142
-78.582	94.246	0.253	0.281
-77.567	-110.174	-0.145	0.030
-76.553	452.796	0.128	0.278
-75.538	52.017	0.040	0.038
-74.524	110.985	0.151	-0.178
-73.509	242.465	-0.026	-0.043
-72.494	800.000	0.057	0.160
-71.480	-148.818	-0.180	-0.014
-70.465	129.055	0.155	-0.194
-69.451	325.012	-0.091	0.171
-68.436	-200.000	-0.010	0.169
-67.422	405.807	-0.082	0.168
-66.407	324.870	0.193	-0.360
-65.392	800.000	-0.035	-0.103
-64.378	334.692	-0.169	0.319
-63.363	-109.296	0.272	0.056
-62.349	51.558	0.123	0.114
-61.334	88.805	-1.186	-1.290
-60.319	12.006	0.802	0.603
-59.305	541.368	-0.397	-0.925
-58.290	266.696	0.787	1.344
-57.276	351.428	0.538	1.041
-56.261	-200.000	117.117	637.678
-55.246	481.345	1553.637	3447.043
-54.232	173.354	2724.315	3839.861
-53.217	105.023	2160.446	2491.009
-52.203	38.097	1590.006	1382.548
-51.188	29.684	1331.929	1107.924
-50.173	26.680	1293.728	1058.583
-49.159	52.272	1352.959	1260.878
-48.144	50.732	1366.134	1263.910
-47.130	29.516	1320.007	1096.830
-46.115	26.172	1301.729	1061.973
-45.100	26.232	1296.382	1057.919
-44.086	26.047	1293.899	1054.770
-43.071	26.080	1291.529	1052.985
-42.057	26.009	1289.767	1051.095
-41.042	26.134	1287.053	1049.566
-40.027	26.003	1286.482	1048.299
-39.013	26.029	1284.288	1046.624
-37.998	26.066	1282.602	1045.419
-36.984	26.103	1281.240	1044.482
-35.969	26.138	1279.643	1043.343
-34.954	26.144	1277.544	1041.622
-33.940	26.139	1276.212	1040.467
-32.925	26.228	1274.512	1039.554
-31.911	26.251	1273.111	1038.502
-30.896	26.233	1271.988	1037.439
-29.881	26.310	1270.330	1036.489
-28.867	26.369	1268.966	1035.674
-27.852	26.305	1267.694	1034.224
-26.838	26.301	1266.296	1033.024
-25.823	26.331	1264.275	1031.502
-24.809	26.246	1263.701	1030.510
-23.794	26.243	1262.727	1029.659
-22.779	26.302	1260.730	1028.323
-21.765	26.288	1259.916	1027.539
-20.750	26.363	1258.247	1026.562
-19.736	26.130	1257.589	1024.664
-18.721	26.196	1255.926	1023.642
-17.706	26.134	1254.885	1022.399
-16.692	26.214	1253.537	1021.713
-15.677	26.074	1253.338	1020.720
-14.663	26.145	1251.676	1019.729
-13.648	26.157	1250.526	1018.820
-12.633	26.117	1249.645	1017.836
-11.619	26.095	1248.980	1017.131
-10.604	26.083	1247.874	1016.122
-9.590	26.140	1246.818	1015.543
-8.575	26.138	1245.937	1014.772
-7.560	26.168	1245.051	1014.178
-6.546	26.195	1244.364	1013.733
-5.531	26.219	1243.467	1013.096
-4.517	26.184	1242.418	1012.003
-3.502	26.139	1241.645	1011.078
-2.487	26.284	1240.175	1010.656
-1.473	26.143	1236.397	1006.752
-0.458	24.631	1221.962	986.615
0.556	21.354	1205.495	949.504
1.571	18.024	1211.203	935.712
2.586	17.049	1226.406	941.965
3.600	16.863	1214.298	931.561
4.615	12.761	1142.991	855.514
5.629	6.165	1072.717	770.607
6.644	3.543	1055.347	745.406
7.659	3.283	1053.077	742.484
8.673	3.350	1052.490	742.325
9.688	3.545	1050.469	741.770
10.702	3.545	1048.855	740.567
11.717	7.209	1053.598	761.491
12.731	14.386	1063.214	803.079
13.746	18.738	1069.065	828.474
14.761	19.472	1069.626	832.376
15.775	18.661	1068.002	827.130
16.790	17.693	1065.669	820.593
17.804	16.947	1064.077	815.706
18.819	16.593	1063.211	813.272
19.834	16.497	1062.316	812.054
20.848	16.325	1061.764	810.734
21.863	16.123	1060.638	808.832
22.877	15.991	1059.951	807.604
23.892	16.024	1059.396	807.267
24.907	15.940	1058.701	806.264
25.921	16.059	1057.001	805.467
26.936	15.997	1056.470	804.696
27.950	16.047	1054.838	803.619
28.965	16.132	1053.085	802.620
29.980	16.298	1052.110	802.594
30.994	16.232	1051.009	801.372
32.009	16.240	1049.942	800.521
33.023	16.328	1048.750	799.958
34.038	16.071	1047.906	798.031
35.053	16.137	1046.711	797.362
36.067	16.261	1045.652	797.067
37.082	16.101	1045.116	795.834
38.096	16.218	1044.633	795.950
39.111	16.346	1043.894	795.918
40.126	16.114	1042.243	793.497
41.140	15.982	1041.156	791.979
42.155	15.846	1039.757	790.207
43.169	15.753	1039.036	789.153
44.184	15.712	1037.826	787.971
45.199	15.919	1036.702	788.015
46.213	15.878	1035.677	786.975
47.228	16.044	1034.841	787.047
48.242	16.216	1033.530	786.785
49.257	16.064	1033.006	785.608
50.271	16.223	1031.567	785.182
51.286	16.131	1031.208	784.411
52.301	16.030	1030.634	783.433
53.315	16.056	1029.240	782.426
54.330	15.946	1027.761	780.724
55.344	15.882	1027.514	780.169
56.359	15.906	1026.401	779.367
57.374	15.922	1025.434	778.636
58.388	15.862	1024.395	777.504
59.403	15.805	1024.051	776.909
60.417	15.954	1023.001	776.731
61.432	15.758	1022.505	775.384
62.447	15.619	1021.684	774.054
63.461	15.563	1021.035	773.232
64.476	15.618	1019.808	772.490
65.490	15.682	1018.939	772.055
66.505	15.684	1018.784	771.881
67.520	15.717	1017.740	771.171
68.534	15.706	1016.891	770.413
69.549	15.687	1016.060	769.627
70.563	15.734	1015.183	769.107
71.578	15.553	1014.723	767.864
72.593	15.560	1013.930	767.229
73.607	15.627	1013.126	766.857
74.622	15.720	1012.509	766.746
75.636	15.563	1012.160	765.698
76.651	15.640	1011.137	765.209
77.666	15.717	1010.461	764.980
78.680	15.562	1010.062	763.905
79.695	15.641	1009.382	763.681
80.709	15.760	1008.773	763.693
81.724	15.803	1008.116	763.325
82.739	15.971	1007.239	763.353
83.753	16.036	1006.606	763.102
84.768	16.239	1005.487	763.104
85.782	16.276	1004.732	762.628
86.797	16.219	1003.823	761.616
87.812	16.099	1002.985	760.370
88.826	16.066	1002.170	759.539
89.841	16.236	1000.851	759.233
90.855	16.256	1000.389	758.907
91.870	16.282	999.279	758.116
92.884	16.294	998.574	757.568
93.899	16.210	997.965	756.659
94.914	16.360	997.140	756.641
95.928	16.358	995.777	755.532
96.943	16.298	995.110	754.687
97.957	16.264	994.456	753.975
98.972	16.362	993.031	753.263
99.987	16.229	992.366	752.098
101.001	16.206	991.862	751.549
102.016	16.270	990.720	750.903
103.030	16.260	990.213	750.407
104.045	16.259	989.697	749.945
105.060	16.083	988.700	748.341
106.074	15.928	987.677	746.814
107.089	15.996	986.497	746.158
108.103	15.838	985.448	744.598
109.118	15.800	984.635	743.751
110.133	15.845	983.808	743.259
111.147	15.844	982.569	742.254
112.162	15.917	982.432	742.407
113.176	15.958	981.844	742.075
114.191	16.004	980.804	741.426
115.206	15.857	980.019	740.122
116.220	15.820	979.505	739.506
117.235	15.905	978.148	738.788
118.249	15.911	977.607	738.341
119.264	15.853	976.910	737.496
120.279	15.703	975.850	735.972
121.293	15.900	974.690	735.896
122.308	15.757	974.298	734.910
123.322	15.763	972.812	733.747
124.337	15.837	972.032	733.418
125.352	15.544	971.172	731.427
126.366	15.714	969.595	730.916
127.381	15.703	969.102	730.431
128.395	15.707	968.220	729.719
129.410	15.786	967.281	729.288
130.424	15.900	966.401	729.055
131.439	15.939	965.661	728.601
132.454	15.892	965.408	728.141
133.468	15.913	964.648	727.596
134.483	15.901	963.219	726.403
135.497	15.988	962.337	726.047
136.512	15.859	961.540	724.827
137.527	15.755	960.966	723.882
138.541	15.958	960.330	724.212
139.556	16.084	959.181	723.820
140.570	16.031	959.166	723.519
141.585	16.214	958.152	723.474
142.600	16.304	957.135	723.029
143.614	16.339	956.607	722.715
144.629	16.322	955.392	721.660
145.643	16.391	954.211	720.999
146.658	16.204	953.779	719.811
147.673	16.205	952.443	718.744
148.687	16.128	952.383	718.306
149.702	16.034	950.929	716.748
150.716	15.966	950.393	715.991
151.731	15.952	949.863	715.468
152.746	16.076	949.234	715.458
153.760	16.181	947.977	714.893
154.775	16.090	948.105	714.537
155.789	16.227	947.082	714.285
156.804	16.210	946.494	713.707
157.819	16.376	945.712	713.757
158.833	16.438	944.927	713.360
159.848	16.374	944.621	712.798
160.862	16.465	943.166	712.022
161.877	16.281	941.892	710.221
162.892	16.242	941.062	709.368
163.906	16.132	940.190	708.188
164.921	16.100	939.479	707.453
165.935	16.133	938.787	707.007
166.950	16.298	937.663	706.790
167.964	16.175	936.832	705.587
168.979	16.200	935.816	704.865
169.994	16.310	934.684	704.408
171.008	16.286	934.624	704.198
172.023	16.335	933.907	703.801
173.037	16.477	933.000	703.647
174.052	16.484	932.090	702.926
175.067	16.179	932.297	701.751
176.081	16.167	931.181	700.798
177.096	16.063	930.498	699.792
178.110	16.163	930.245	699.957
179.125	16.198	929.665	699.601
180.140	16.254	929.242	699.455
181.154	16.318	929.069	699.527
182.169	16.485	928.163	699.475
183.183	16.537	927.288	698.966
184.198	16.408	926.753	697.969
185.213	16.561	925.918	697.909
186.227	16.534	925.848	697.686
187.242	16.655	924.863	697.377
188.256	16.564	924.580	696.731
189.271	16.745	923.419	696.538
190.286	16.285	922.322	693.759
191.300	16.104	921.577	692.393
192.315	16.158	920.806	691.973
193.329	16.081	920.442	691.323
194.344	16.159	920.063	691.298
195.359	16.379	919.029	691.358
196.373	16.509	918.609	691.515
197.388	16.711	918.143	691.928
198.402	16.683	917.813	691.504
199.417	16.760	917.263	691.341
200.432	16.918	916.574	691.407
201.446	16.861	916.512	691.066
202.461	17.070	915.575	691.149
203.475	16.932	915.098	690.166
204.490	16.745	914.156	688.636
205.504	16.667	913.655	687.880
206.519	16.694	912.487	687.050
207.534	16.691	911.917	686.548
208.548	16.680	911.343	686.011
209.563	16.554	911.071	685.236
210.577	16.775	910.054	685.302
211.592	16.954	909.311	685.404
212.607	17.014	908.271	684.804
213.621	16.861	908.090	683.988
214.636	16.849	907.458	683.403
215.650	16.952	906.864	683.310
216.665	17.037	905.991	682.935
217.680	17.074	905.582	682.715
218.694	17.088	904.845	682.153
219.709	17.058	904.110	681.419
220.723	17.004	903.299	680.534
221.738	17.074	902.567	680.200
222.753	16.955	902.521	679.630
223.767	17.104	901.680	679.530
224.782	17.169	901.109	679.303
225.796	17.351	900.543	679.543
226.811	17.123	900.245	678.347
227.826	16.984	899.280	677.006
228.840	17.093	898.256	676.608
229.855	17.118	897.221	675.867
230.869	17.100	896.616	675.280
231.884	17.030	896.164	674.602
232.899	17.010	895.234	673.762
233.913	16.778	894.703	672.385
234.928	16.949	894.092	672.542
235.942	16.912	893.031	671.541
236.957	16.937	893.043	671.588
237.972	16.910	892.029	670.661
238.986	17.055	891.403	670.702
240.001	16.995	891.070	670.154
241.015	17.084	890.218	669.805
242.030	17.022	889.964	669.310
243.045	17.199	889.145	669.333
244.059	17.086	888.595	668.414
245.074	17.105	888.047	668.018
246.088	17.160	887.825	668.007
247.103	17.293	886.965	667.827
248.117	17.370	886.861	667.990
249.132	17.564	886.458	668.390
250.147	17.673	885.584	668.097
251.161	17.608	884.898	667.266
252.176	17.645	884.679	667.189
253.190	17.842	883.771	667.213
254.205	17.795	882.991	666.384
255.220	17.908	882.089	666.085
256.234	17.808	881.197	664.960
257.249	17.736	881.240	664.656
258.263	17.883	880.228	664.403
259.278	17.801	879.586	663.544
260.293	17.771	878.988	662.916
261.307	17.875	878.249	662.703
262.322	17.749	878.212	662.129
263.336	17.851	877.585	661.993
264.351	18.051	876.155	661.630
265.366	17.921	876.230	661.124
266.380	17.859	875.304	660.129
267.395	17.878	874.725	659.705
268.409	17.665	873.929	658.226
269.424	17.783	873.070	657.976
270.439	17.945	872.263	657.933
271.453	17.919	871.625	657.294
272.468	17.781	871.184	656.370
273.482	17.735	870.487	655.611
274.497	17.820	869.925	655.457
275.512	17.883	869.283	655.155
276.526	17.935	868.970	655.060
277.541	17.920	868.453	654.555
278.555	18.041	868.094	654.692
279.570	18.069	867.355	654.184
280.585	18.087	866.079	653.234
281.599	17.948	865.612	652.293
282.614	17.990	865.164	652.055
283.628	17.941	864.600	651.385
284.643	17.846	864.277	650.724
285.657	18.076	863.308	650.813
286.672	18.094	862.355	650.105
287.687	17.989	861.987	649.371
288.701	18.042	861.583	649.210
289.716	18.097	861.005	648.926
290.730	17.980	860.826	648.290
291.745	18.051	860.076	647.935
292.760	18.200	859.388	647.924
293.774	18.219	858.751	647.458
294.789	18.155	858.232	646.769
295.803	17.967	857.709	645.607
296.818	17.984	856.950	645.042
297.833	18.214	855.958	645.108
298.847	18.180	855.509	644.585
299.862	18.236	854.883	644.265
300.876	18.210	854.479	643.807
301.891	18.379	853.889	643.939
302.906	18.457	853.079	643.564
303.920	18.440	852.774	643.215
304.935	18.626	852.556	643.689
305.949	18.451	851.827	642.429
306.964	18.364	850.952	641.384
307.979	18.485	850.597	641.515
308.993	18.447	850.219	641.030
310.008	18.564	849.485	640.855
311.022	18.537	848.513	639.966
312.037	18.340	847.804	638.638
313.052	18.403	847.700	638.739
314.066	18.272	846.824	637.534
315.081	18.257	846.468	637.155
316.095	18.275	845.276	636.269
317.110	18.378	844.525	636.030
318.125	18.218	844.600	635.434
319.139	18.204	844.266	635.075
320.154	18.284	843.678	634.875
321.168	18.274	843.191	634.415
322.183	18.505	842.598	634.766
323.197	18.265	842.446	633.709
324.212	18.351	841.588	633.324
325.227	18.368	840.713	632.672
326.241	18.311	840.313	632.105
327.256	18.297	839.963	631.734
328.270	18.353	839.317	631.399
329.285	18.456	838.712	631.269
330.300	18.461	837.884	630.609
331.314	18.500	837.599	630.482
332.329	18.652	837.314	630.769
333.343	18.532	837.001	630.038
334.358	18.504	836.381	629.409
335.373	18.550	836.267	629.439
336.387	18.759	835.783	629.783
337.402	18.874	835.236	629.740
338.416	18.853	835.381	629.715
339.431	18.873	834.812	629.304
340.446	18.890	834.373	628.980
341.460	18.823	834.270	628.601
342.475	18.966	833.677	628.622
343.489	19.106	832.913	628.500
344.504	18.944	833.116	628.006
345.519	19.142	832.098	627.905
346.533	18.959	831.572	626.788
347.548	19.063	831.078	626.739
348.562	18.843	830.540	625.476
349.577	18.888	829.665	624.924
350.592	18.752	829.027	623.895
351.606	18.788	828.471	623.552
352.621	18.816	828.002	623.244
353.635	18.812	827.280	622.634
354.650	18.769	826.857	622.102
355.665	18.886	826.061	621.872
356.679	18.939	825.703	621.740
357.694	19.048	825.050	621.588
358.708	18.914	824.233	620.431
359.723	18.876	823.900	619.990
360.738	19.074	823.031	619.996
361.752	19.152	822.727	619.991
362.767	19.283	821.982	619.846
363.781	19.247	821.950	619.639
364.796	19.349	821.148	619.346
365.810	19.371	820.773	619.087
366.825	19.437	820.572	619.117
367.840	19.552	819.904	618.972
368.854	19.292	819.635	617.781
369.869	19.292	819.147	617.359
370.883	19.185	818.771	616.638
371.898	19.269	818.511	616.688
372.913	19.473	817.696	616.748
373.927	19.309	817.366	615.859
374.942	19.347	816.906	615.595
375.956	19.515	816.160	615.576
376.971	19.649	816.066	615.929
377.986	19.593	815.530	615.271
379.000	19.460	815.569	614.770
380.015	19.587	814.632	614.464
381.029	19.702	813.946	614.299
382.044	19.584	813.140	613.219
383.059	19.703	812.925	613.422
384.073	19.642	812.209	612.614
385.088	19.537	811.315	611.510
386.102	19.468	811.066	611.025
387.117	19.567	810.091	610.587
388.132	19.419	809.942	609.899
389.146	19.437	809.408	609.505
390.161	19.679	809.098	610.072
391.175	19.574	808.568	609.250
392.190	19.456	808.295	608.571
393.205	19.628	807.493	608.521
394.219	19.625	807.096	608.157
395.234	19.394	806.788	607.058
396.248	19.316	806.435	606.463
397.263	19.402	805.735	606.187
398.278	19.301	805.544	605.634
399.292	19.441	804.904	605.592
400.307	19.353	804.307	604.780
401.321	19.618	803.959	605.392
402.336	19.529	803.684	604.821
403.350	19.548	802.952	604.285
404.365	19.673	802.968	604.679
405.380	19.741	802.553	604.551
406.394	19.849	801.721	604.250
407.409	19.975	801.168	604.216
408.423	19.982	801.260	604.257
409.438	19.908	801.086	603.815
410.453	19.938	800.584	603.489
411.467	20.016	800.037	603.295
412.482	20.205	799.397	603.415
413.496	20.147	799.155	602.977
414.511	20.150	798.755	602.634
415.526	20.193	798.099	602.233
416.540	20.000	798.180	601.572
417.555	20.104	797.613	601.451
418.569	20.022	797.556	601.072
419.584	20.179	796.889	601.058
420.599	20.087	796.245	600.200
421.613	162.068	1371.174	1794.967
422.628	140.595	1454.951	1795.048
