DTS Sentinel unit serial number:	SN413079Multiplexer serial number:	ORYXHardware model number:	OX4-SRSoftware version number:	ORYX F/W v4.00 Oryx Data Collector v3.7.2.0data status	okinstallation	princeton_trtdifferential loss correction	single-endedforward channel	channel 1reverse channel	N/Adate	2019/09/12time	16:00:11forward acquisition time	60.00reverse acquisition time	0.00gamma	496.2192k internal	0.2298k external	0.2298temperature offset calibration	1.0084default loss term (dB/km)	0.3790temperature slope calibration	1.0000multiplexer offset coefficient	1.0000multiplexer slope coefficient	1.0000fibre end	0.00T internal ref (°C)	39.03T ext. ref 1 (°C)	2.51T ext. ref 2 (°C)	31.93length (m)	temperature (°C)	Stokes	anti-Stokes-747.200	800.000	-0.041	-0.173
-746.185	-70.557	-0.145	0.056
-745.171	-148.066	0.213	-0.018
-744.156	134.264	0.270	0.357
-743.142	379.186	-0.075	0.156
-742.127	-200.000	-0.004	0.169
-741.112	-57.714	0.319	-0.142
-740.098	263.060	-0.018	-0.032
-739.083	286.195	0.041	-0.075
-738.069	-10.801	0.117	-0.079
-737.054	-200.000	-0.003	-0.530
-736.039	139.331	-0.119	-0.159
-735.025	470.631	0.067	0.154
-734.010	-97.569	-0.353	-0.093
-732.996	-36.351	-0.227	-0.125
-731.981	726.897	-0.128	-0.347
-730.966	-156.867	-0.181	-0.011
-729.952	-200.000	0.014	0.215
-728.937	279.363	-0.053	0.097
-727.923	35.333	0.096	-0.086
-726.908	-76.555	-0.148	-0.053
-725.894	-72.062	-0.173	0.066
-724.879	-133.347	-0.122	0.016
-723.864	-177.055	0.094	0.002
-722.850	26.565	-0.182	0.156
-721.835	80.287	-0.112	-0.123
-720.821	-200.000	-0.002	0.113
-719.806	-119.671	-0.117	0.021
-718.791	800.000	0.012	0.047
-717.777	-200.000	-0.053	-0.257
-716.762	350.593	0.187	-0.378
-715.748	3.344	-0.171	-0.127
-714.733	23.553	0.124	0.104
-713.718	49.831	0.191	-0.184
-712.704	-5.707	-0.059	0.041
-711.689	-59.594	0.062	-0.027
-710.675	359.145	0.195	-0.398
-709.660	-137.052	-0.251	0.029
-708.645	-200.000	0.098	-0.499
-707.631	-200.000	-0.020	0.090
-706.616	800.000	0.031	-0.092
-705.602	-80.166	-0.144	-0.049
-704.587	-200.000	-0.038	-0.218
-703.572	57.550	-0.208	0.207
-702.558	-200.000	0.041	-0.202
-701.543	-152.145	-0.105	0.008
-700.529	-200.000	-0.025	0.287
-699.514	219.381	0.116	-0.188
-698.499	105.027	-0.073	-0.087
-697.485	51.940	0.088	0.085
-696.470	-127.403	0.378	-0.056
-695.456	518.744	0.127	-0.303
-694.441	-83.423	-0.379	-0.124
-693.426	145.206	0.141	0.192
-692.412	-186.194	0.334	0.005
-691.397	109.960	-0.195	0.238
-690.383	301.274	-0.172	0.324
-689.368	424.052	-0.045	-0.098
-688.354	-200.000	-0.085	-0.403
-687.339	-37.817	0.209	-0.113
-686.324	17.057	-0.202	0.163
-685.310	-139.596	-0.127	0.014
-684.295	-131.956	-0.246	0.033
-683.281	272.972	0.046	-0.084
-682.266	99.199	-0.219	-0.258
-681.251	763.895	0.050	-0.138
-680.237	-86.808	-0.607	0.189
-679.222	-143.593	0.192	0.019
-678.208	-59.305	0.114	-0.050
-677.193	-131.406	-0.220	0.030
-676.178	174.298	-0.193	-0.284
-675.164	-43.368	-0.184	0.095
-674.149	-91.068	0.218	-0.064
-673.135	-200.000	-0.030	0.275
-672.120	-182.429	0.129	0.002
-671.105	220.388	0.128	-0.208
-670.091	-185.834	0.209	0.003
-669.076	-200.000	0.016	0.091
-668.062	94.055	0.135	-0.155
-667.047	16.493	-0.320	0.257
-666.032	128.413	-0.339	-0.439
-665.018	-136.586	-0.194	0.023
-664.003	-200.000	-0.030	0.527
-662.989	-104.984	0.013	0.003
-661.974	-62.571	-0.060	-0.025
-660.959	-200.000	0.008	0.197
-659.945	-24.802	-0.211	-0.127
-658.930	-69.003	-0.537	0.211
-657.916	-141.752	0.345	-0.035
-656.901	201.901	-0.068	0.106
-655.886	-200.000	0.034	0.219
-654.872	546.288	0.054	-0.131
-653.857	-77.284	-0.089	0.031
-652.843	23.513	-0.289	0.242
-651.828	205.737	0.004	-0.007
-650.814	461.180	-0.104	0.237
-649.799	-200.000	-0.003	0.038
-648.784	-200.000	-0.017	-0.134
-647.770	800.000	-0.073	-0.304
-646.755	-35.782	-0.296	0.163
-645.741	54.144	0.218	0.213
-644.726	-79.657	0.070	-0.024
-643.711	-72.064	0.219	0.083
-642.697	-0.212	-0.189	-0.137
-641.682	-55.164	-0.292	-0.134
-640.668	646.712	0.065	-0.168
-639.653	-91.689	-0.198	-0.057
-638.638	64.000	-0.152	-0.155
-637.624	-200.000	0.060	-0.336
-636.609	55.539	0.110	0.108
-635.595	-66.053	-0.122	-0.050
-634.580	-108.153	-0.137	-0.030
-633.565	-200.000	-0.018	-0.448
-632.551	57.487	-0.120	0.119
-631.536	-40.143	0.198	0.105
-630.522	-200.000	0.027	-0.157
-629.507	-50.830	0.059	0.028
-628.492	302.137	0.100	0.188
-627.478	-39.206	-0.145	0.078
-626.463	-67.569	-0.092	-0.037
-625.449	-200.000	-0.030	-0.351
-624.434	800.000	0.088	-0.256
-623.419	-200.000	0.001	-0.182
-622.405	432.981	-0.030	0.066
-621.390	-200.000	0.009	0.098
-620.376	240.882	-0.063	0.107
-619.361	-89.334	-0.204	-0.061
-618.346	-200.000	-0.008	-0.299
-617.332	51.959	0.090	-0.087
-616.317	-85.211	-0.373	-0.118
-615.303	-141.502	-0.378	-0.039
-614.288	-123.750	-0.545	0.088
-613.273	-104.695	-0.265	-0.062
-612.259	-119.515	0.225	0.040
-611.244	-43.523	-0.028	-0.014
-610.230	274.143	0.142	0.255
-609.215	327.717	0.112	-0.219
-608.201	302.073	0.078	0.147
-607.186	-200.000	0.005	0.326
-606.171	546.132	-0.121	-0.295
-605.157	-73.543	0.072	0.027
-604.142	800.000	0.074	0.217
-603.128	134.352	-0.224	0.295
-602.113	-200.000	-0.024	0.334
-601.098	128.111	-0.063	-0.081
-600.084	800.000	0.038	0.130
-599.069	90.085	-0.036	0.041
-598.055	83.074	0.127	0.140
-597.040	-81.449	-0.347	-0.116
-596.025	-40.643	0.200	-0.105
-595.011	-200.000	-0.299	-0.001
-593.996	1.586	0.464	-0.339
-592.982	422.431	0.131	-0.286
-591.967	707.185	-0.071	0.191
-590.952	174.900	0.055	-0.081
-589.938	-135.744	0.016	0.002
-588.923	-105.010	0.166	-0.039
-587.909	800.000	0.079	-0.324
-586.894	-200.000	0.006	-0.271
-585.879	96.109	0.090	0.104
-584.865	69.318	-0.163	0.170
-583.850	501.343	0.087	0.205
-582.836	-200.000	-0.024	0.155
-581.821	-99.966	0.143	-0.036
-580.806	-139.026	-0.245	-0.027
-579.792	185.769	-0.077	-0.116
-578.777	152.410	-0.211	-0.292
-577.763	655.766	-0.129	-0.335
-576.748	-0.686	0.281	-0.202
-575.733	17.634	0.020	0.016
-574.719	-200.000	-0.039	-0.278
-573.704	33.920	0.151	-0.133
-572.690	-200.000	0.082	0.377
-571.675	-200.000	0.039	0.318
-570.661	-200.000	0.025	0.119
-569.646	-83.988	0.195	0.063
-568.631	-200.000	0.044	-0.327
-567.617	-116.127	0.276	-0.052
-566.602	800.000	-0.114	0.387
-565.588	274.222	-0.158	0.283
-564.573	-200.000	0.002	-0.031
-563.558	623.895	-0.061	0.155
-562.544	42.024	0.061	0.056
-561.529	616.381	-0.080	-0.204
-560.515	46.002	0.237	0.222
-559.500	800.000	-0.056	-0.173
-558.485	-78.663	0.101	-0.035
-557.471	57.478	-0.120	-0.119
-556.456	-7.117	-0.059	-0.040
-555.442	-79.716	0.212	-0.072
-554.427	-87.667	-0.280	-0.086
-553.412	-200.000	0.012	0.156
-552.398	-143.211	0.154	0.015
-551.383	-63.790	-0.135	-0.056
-550.369	-23.541	0.241	-0.147
-549.354	50.413	0.260	-0.249
-548.339	248.494	0.047	0.080
-547.325	-34.375	0.390	-0.217
-546.310	2.292	-0.110	0.080
-545.296	153.939	-0.022	0.030
-544.281	-200.000	0.041	0.194
-543.266	-11.797	0.106	-0.071
-542.252	-200.000	0.001	-0.248
-541.237	172.260	-0.152	-0.222
-540.223	800.000	0.073	0.298
-539.208	13.859	-0.135	0.106
-538.193	-200.000	0.000	-0.203
-537.179	-193.598	0.116	-0.001
-536.164	68.876	-0.186	0.194
-535.150	-121.565	0.191	0.032
-534.135	-200.000	-0.263	0.000
-533.121	197.721	-0.221	-0.341
-532.106	-200.000	0.012	0.064
-531.091	248.414	-0.047	-0.081
-530.077	-172.043	0.147	0.005
-529.062	-41.881	0.187	0.097
-528.048	-139.378	-0.363	0.039
-527.033	532.120	0.073	-0.174
-526.018	-46.793	0.266	-0.132
-525.004	-60.256	0.192	0.083
-523.989	42.324	0.109	0.101
-522.975	13.392	0.205	-0.161
-521.960	-68.349	0.176	-0.069
-520.945	-154.411	0.146	-0.010
-519.931	-111.406	0.298	-0.062
-518.916	-23.899	-0.254	-0.154
-517.902	-200.000	0.013	-0.417
-516.887	78.113	-0.158	-0.171
-515.872	-116.199	0.309	-0.058
-514.858	108.458	-0.160	0.193
-513.843	-48.766	-0.203	0.099
-512.829	-174.988	0.258	0.007
-511.814	-22.339	0.189	-0.116
-510.799	385.304	-0.059	0.123
-509.785	-148.495	-0.270	0.022
-508.770	647.582	-0.095	0.246
-507.756	-86.174	0.298	0.093
-506.741	430.385	-0.170	-0.371
-505.726	-134.782	0.299	0.037
-504.712	-127.064	-0.176	-0.026
-503.697	-200.000	-0.005	0.152
-502.683	-200.000	-0.003	0.166
-501.668	-63.390	0.231	0.096
-500.653	-84.570	-0.176	0.056
-499.639	-79.975	-0.215	0.073
-498.624	-62.907	0.165	-0.069
-497.610	-48.117	0.084	-0.041
-496.595	-88.537	0.529	-0.159
-495.581	79.799	-0.133	0.144
-494.566	-111.531	0.343	-0.071
-493.551	-39.428	0.136	-0.072
-492.537	-126.354	-0.160	-0.024
-491.522	-200.000	-0.021	-0.200
-490.508	-33.460	-0.073	0.041
-489.493	-39.370	-0.183	0.097
-488.478	63.381	0.157	0.159
-487.464	175.825	-0.050	0.073
-486.449	800.000	0.016	0.054
-485.435	205.767	0.166	-0.261
-484.420	-200.000	0.010	-0.114
-483.405	19.659	-0.189	-0.154
-482.391	6.976	0.226	0.170
-481.376	132.588	-0.223	-0.291
-480.362	192.113	0.052	0.080
-479.347	800.000	-0.043	0.137
-478.332	-190.065	-0.516	0.006
-477.318	-200.000	0.035	-0.185
-476.303	-38.625	0.141	-0.075
-475.289	-146.616	0.300	0.026
-474.274	-193.012	0.233	0.002
-473.259	-47.744	-0.191	0.094
-472.245	-41.733	0.228	-0.118
-471.230	-180.273	0.271	-0.006
-470.216	-83.708	-0.371	0.119
-469.201	167.579	-0.016	-0.024
-468.186	309.983	-0.058	-0.110
-467.172	-54.139	0.281	-0.129
-466.157	66.842	-0.073	-0.075
-465.143	186.791	-0.172	0.258
-464.128	800.000	-0.008	-0.024
-463.113	-124.946	0.226	0.035
-462.099	240.033	-0.162	-0.273
-461.084	656.111	0.023	0.059
-460.070	-200.000	-0.022	0.482
-459.055	-77.197	-0.083	-0.029
-458.040	556.808	-0.054	0.130
-457.026	-57.087	-0.246	0.109
-456.011	387.821	0.043	0.090
-454.997	227.904	-0.252	-0.413
-453.982	-200.000	-0.038	-0.233
-452.968	-85.449	-0.252	-0.079
-451.953	714.508	0.005	-0.013
-450.938	-200.000	-0.055	-0.256
-449.924	-143.578	-0.394	0.038
-448.909	800.000	0.060	0.217
-447.895	-200.000	-0.086	0.624
-446.880	-200.000	0.050	-0.467
-445.865	-200.000	0.023	0.158
-444.851	-200.000	-0.010	-0.107
-443.836	278.155	-0.170	-0.305
-442.822	-35.056	0.265	0.146
-441.807	-130.735	-0.194	-0.026
-440.792	59.497	0.101	-0.101
-439.778	107.569	-0.133	0.160
-438.763	133.021	0.094	0.123
-437.749	537.425	0.038	-0.091
-436.734	608.606	0.218	0.549
-435.719	83.037	-0.096	0.106
-434.705	-200.000	0.031	0.237
-433.690	363.225	-0.178	0.361
-432.676	551.941	-0.073	0.178
-431.661	172.424	0.065	0.095
-430.646	-40.793	0.139	0.072
-429.632	-166.873	-0.169	0.007
-428.617	-27.788	-0.049	0.029
-427.603	-43.036	0.097	-0.049
-426.588	219.296	0.029	-0.047
-425.573	330.507	-0.019	-0.036
-424.559	455.754	-0.085	-0.189
-423.544	-24.343	-0.050	-0.030
-422.530	346.258	0.163	0.323
-421.515	108.263	-0.084	0.101
-420.500	800.000	-0.091	-0.305
-419.486	79.363	-0.079	0.086
-418.471	143.374	0.138	-0.185
-417.457	413.893	0.061	-0.130
-416.442	-65.372	-0.123	-0.050
-415.428	319.792	-0.176	-0.337
-414.413	-200.000	-0.029	0.304
-413.398	-74.356	-0.220	-0.080
-412.384	-200.000	0.094	-0.000
-411.369	213.464	0.128	0.204
-410.355	129.484	0.134	-0.172
-409.340	-118.331	-0.074	-0.013
-408.325	294.319	-0.099	-0.183
-407.311	800.000	-0.033	0.108
-406.296	-52.213	0.366	-0.171
-405.282	800.000	-0.084	-0.350
-404.267	-111.166	-0.303	-0.062
-403.252	624.890	-0.092	-0.234
-402.238	-82.294	-0.217	0.071
-401.223	91.641	-0.128	0.145
-400.209	553.200	0.061	0.148
-399.194	-35.409	-0.233	-0.128
-398.179	-157.122	0.214	0.013
-397.165	-120.670	0.157	0.027
-396.150	-125.742	-0.212	0.032
-395.136	118.101	0.218	-0.270
-394.121	308.419	-0.060	0.113
-393.106	-200.000	0.007	0.153
-392.092	-10.555	-0.203	-0.136
-391.077	-104.628	-0.052	-0.012
-390.063	-52.655	0.161	0.075
-389.048	409.395	0.061	0.130
-388.033	19.738	0.372	0.301
-387.019	43.428	-0.073	-0.067
-386.004	272.681	-0.078	0.138
-384.990	573.796	-0.142	0.349
-383.975	106.926	-0.135	0.161
-382.960	409.236	0.094	-0.200
-381.946	-47.774	0.262	-0.128
-380.931	-200.000	-0.003	-0.248
-379.917	277.420	0.203	0.363
-378.902	-200.000	-0.006	0.120
-377.888	188.077	-0.147	-0.220
-376.873	-124.584	-0.252	-0.039
-375.858	-196.862	0.374	-0.002
-374.844	-100.128	-0.062	0.015
-373.829	-122.253	-0.403	-0.066
-372.815	-103.765	-0.304	-0.071
-371.800	-200.000	-0.010	0.062
-370.785	-83.220	-0.228	0.074
-369.771	110.687	0.127	-0.154
-368.756	-200.000	-0.029	-0.351
-367.742	-200.000	-0.017	-0.234
-366.727	386.783	-0.050	0.104
-365.712	320.986	-0.021	-0.040
-364.698	31.821	-0.022	-0.019
-363.683	-200.000	0.005	-0.165
-362.669	103.345	0.074	-0.088
-361.654	27.649	-0.222	0.188
-360.639	-126.010	0.150	-0.023
-359.625	-131.016	-0.260	-0.035
-358.610	-42.006	0.158	0.081
-357.596	125.405	-0.040	0.051
-356.581	527.525	-0.104	-0.248
-355.566	330.321	-0.160	-0.310
-354.552	-134.463	0.220	0.027
-353.537	-118.442	-0.195	-0.035
-352.523	-63.736	0.063	-0.026
-351.508	522.042	-0.161	0.379
-350.493	578.324	-0.023	0.057
-349.479	-25.671	-0.167	0.099
-348.464	-200.000	0.026	-0.143
-347.450	422.447	-0.115	-0.249
-346.435	-160.353	0.134	-0.007
-345.420	-200.000	0.033	-0.185
-344.406	-200.000	0.010	0.082
-343.391	-200.000	-0.069	-0.329
-342.377	124.980	-0.207	-0.262
-341.362	-200.000	-0.013	-0.279
-340.348	-200.000	-0.017	-0.322
-339.333	800.000	0.074	0.318
-338.318	-124.726	0.339	-0.053
-337.304	42.319	-0.161	0.147
-336.289	-200.000	-0.027	-0.351
-335.275	-148.593	0.147	0.012
-334.260	800.000	0.064	0.271
-333.245	-200.000	-0.016	-0.157
-332.231	-200.000	-0.011	0.074
-331.216	64.216	0.110	-0.111
-330.202	-40.458	0.054	-0.028
-329.187	157.782	0.089	0.124
-328.172	-200.000	0.010	0.311
-327.158	716.777	-0.036	0.097
-326.143	-200.000	0.077	-0.000
-325.129	800.000	0.166	-0.492
-324.114	-200.000	0.001	-0.023
-323.099	363.249	-0.012	0.024
-322.085	78.877	0.066	0.071
-321.070	-200.000	-0.005	-0.189
-320.056	-167.292	0.175	-0.007
-319.041	-52.188	-0.191	0.089
-318.026	-200.000	-0.001	0.014
-317.012	800.000	0.023	-0.087
-315.997	90.695	-0.190	-0.214
-314.983	-200.000	-0.007	-0.048
-313.968	225.455	0.046	0.075
-312.953	-200.000	0.009	0.053
-311.939	348.594	0.044	-0.088
-310.924	257.709	0.113	0.195
-309.910	-200.000	0.197	-0.000
-308.895	86.374	0.197	0.218
-307.880	18.246	0.181	0.145
-306.866	213.284	-0.202	0.321
-305.851	24.218	0.188	0.156
-304.837	647.592	-0.065	-0.167
-303.822	-200.000	0.033	0.214
-302.807	-29.736	-0.070	-0.040
-301.793	800.000	-0.070	0.228
-300.778	800.000	0.074	0.318
-299.764	-77.791	-0.155	0.054
-298.749	-166.977	-0.218	0.009
-297.735	144.894	0.070	0.094
-296.720	114.731	0.071	-0.086
-295.705	-200.000	0.007	0.068
-294.691	-103.161	0.185	0.044
-293.676	394.634	0.110	-0.230
-292.662	251.199	0.147	-0.250
-291.647	-200.000	-0.044	0.287
-290.632	742.158	0.075	0.203
-289.618	-148.805	-0.010	0.001
-288.603	-34.965	-0.219	-0.120
-287.589	-71.780	-0.101	-0.038
-286.574	259.002	0.049	0.085
-285.559	246.325	-0.074	-0.126
-284.545	-200.000	-0.001	-0.003
-283.530	-200.000	-0.057	-0.304
-282.516	-5.611	-0.153	0.105
-281.501	25.132	-0.042	0.035
-280.486	-200.000	0.003	-0.049
-279.472	800.000	-0.048	-0.211
-278.457	800.000	-0.069	0.246
-277.443	0.941	-0.353	0.254
-276.428	46.145	-0.037	0.035
-275.413	57.103	-0.071	0.069
-274.399	18.834	0.256	-0.206
-273.384	276.546	0.086	-0.154
-272.370	492.208	0.003	-0.008
-271.355	-96.319	-0.262	-0.069
-270.340	800.000	0.067	-0.186
-269.326	-200.000	-0.024	0.306
-268.311	800.000	-0.058	-0.215
-267.297	-200.000	0.002	0.196
-266.282	149.597	0.088	0.119
-265.267	83.532	-0.079	-0.086
-264.253	12.782	0.072	0.055
-263.238	-77.245	-0.180	0.063
-262.224	-200.000	0.068	0.446
-261.209	-78.191	-0.133	0.046
-260.195	443.330	0.041	-0.089
-259.180	489.106	-0.025	0.058
-258.165	202.766	-0.132	-0.205
-257.151	290.463	-0.082	-0.150
-256.136	-57.661	0.391	-0.172
-255.122	-200.000	0.024	-0.283
-254.107	111.314	-0.107	0.129
-253.092	769.071	-0.031	0.085
-252.078	695.635	0.061	-0.160
-251.063	-137.521	-0.092	0.010
-250.049	-200.000	-0.016	0.418
-249.034	-25.671	0.237	-0.140
-248.019	-19.168	0.144	-0.090
-247.005	236.585	-0.177	-0.294
-245.990	-200.000	0.019	-0.242
-244.976	-147.233	0.285	-0.024
-243.961	-200.000	0.031	-0.192
-242.946	16.446	-0.165	0.130
-241.932	-42.292	-0.125	-0.064
-240.917	-116.511	0.452	0.083
-239.903	374.822	-0.067	-0.137
-238.888	-127.959	0.151	0.022
-237.873	19.594	0.192	0.154
-236.859	28.106	0.098	-0.083
-235.844	-200.000	-0.008	-0.081
-234.830	-16.823	0.348	-0.220
-233.815	-200.000	-0.022	0.113
-232.800	14.841	-0.217	0.170
-231.786	10.102	-0.216	0.164
-230.771	35.538	0.181	-0.159
-229.757	-140.058	-0.277	-0.029
-228.742	-200.000	-0.012	0.229
-227.727	-81.912	-0.208	-0.068
-226.713	-43.798	-0.150	0.076
-225.698	101.898	-0.147	0.172
-224.684	-121.448	0.063	0.011
-223.669	-200.000	-0.005	0.073
-222.655	324.807	0.156	0.299
-221.640	63.442	-0.132	0.133
-220.625	561.032	0.097	-0.234
-219.611	-170.246	0.292	0.010
-218.596	-200.000	-0.047	0.518
-217.582	-14.193	-0.293	0.189
-216.567	-200.000	0.087	0.442
-215.552	14.087	-0.170	0.133
-214.538	-28.392	-0.169	0.098
-213.523	674.835	0.089	-0.232
-212.509	-156.479	0.181	-0.011
-211.494	-117.362	-0.531	-0.096
-210.479	-200.000	-0.014	-0.117
-209.465	-8.668	0.393	0.263
-208.450	-54.276	0.025	0.011
-207.436	104.993	0.233	0.275
-206.421	658.165	-0.114	0.293
-205.406	-118.815	0.194	0.034
-204.392	-200.000	0.006	-0.228
-203.377	-98.003	-0.102	-0.026
-202.363	44.708	0.120	0.111
-201.348	-103.404	-0.038	-0.009
-200.333	449.044	0.134	0.296
-199.319	10.367	-0.077	0.059
-198.304	-200.000	0.020	-0.095
-197.290	-142.694	0.046	0.005
-196.275	9.160	0.102	-0.077
-195.260	-125.001	0.175	0.027
-194.246	541.793	-0.085	-0.203
-193.231	383.163	0.207	-0.425
-192.217	425.524	-0.092	-0.198
-191.202	168.507	-0.151	-0.214
-190.187	-200.000	-0.008	-0.082
-189.173	64.532	0.130	0.131
-188.158	-200.000	0.021	-0.203
-187.144	74.505	-0.077	0.081
-186.129	800.000	0.132	0.428
-185.114	370.359	-0.077	0.157
-184.100	109.819	0.153	0.183
-183.085	-127.364	0.128	-0.019
-182.071	-200.000	0.029	-0.236
-181.056	-85.151	-0.218	0.068
-180.042	301.053	-0.050	0.092
-179.027	373.232	-0.085	0.173
-178.012	-26.696	0.128	-0.075
-176.998	800.000	-0.057	0.162
-175.983	208.661	0.089	-0.139
-174.969	-117.885	-0.271	-0.048
-173.954	800.000	-0.076	0.290
-172.939	511.853	0.111	0.258
-171.925	800.000	0.081	0.306
-170.910	198.058	0.182	-0.277
-169.896	41.455	-0.129	0.116
-168.881	800.000	0.069	0.289
-167.866	29.661	-0.232	-0.197
-166.852	329.216	0.079	0.152
-165.837	133.949	0.176	0.227
-164.823	-200.000	-0.035	0.610
-163.808	-44.587	0.360	0.180
-162.793	190.549	-0.088	0.132
-161.779	-200.000	0.027	-0.169
-160.764	-200.000	0.005	0.099
-159.750	49.345	-0.253	-0.238
-158.735	8.599	0.206	0.155
-157.720	-125.007	-0.302	0.046
-156.706	-200.000	-0.026	-0.292
-155.691	36.411	0.066	0.058
-154.677	-25.264	0.496	0.293
-153.662	-49.164	0.171	-0.081
-152.647	-89.531	0.280	0.082
-151.633	-200.000	0.002	0.226
-150.618	-200.000	-0.028	-0.266
-149.604	8.923	0.110	0.083
-148.589	800.000	0.014	-0.045
-147.574	-145.278	0.361	0.033
-146.560	309.647	-0.166	0.310
-145.545	-149.033	-0.296	-0.024
-144.531	800.000	-0.062	0.212
-143.516	2.912	-0.071	-0.051
-142.502	800.000	-0.094	-0.319
-141.487	-87.244	0.282	-0.085
-140.472	-126.933	0.220	-0.032
-139.458	-62.013	0.125	-0.052
-138.443	-200.000	-0.007	0.113
-137.429	148.540	-0.172	0.231
-136.414	-80.518	0.151	0.050
-135.399	48.369	-0.147	-0.137
-134.385	-115.591	0.185	0.035
-133.370	76.547	-0.087	0.092
-132.356	101.090	-0.227	0.263
-131.341	594.094	0.099	0.245
-130.326	-108.482	-0.108	0.023
-129.312	800.000	-0.058	-0.235
-128.297	-69.901	-0.065	0.025
-127.283	-137.362	-0.205	-0.023
-126.268	-149.092	0.197	0.016
-125.253	-104.920	0.161	0.037
-124.239	112.116	0.060	-0.073
-123.224	240.360	-0.081	0.135
-122.210	-100.015	0.213	0.053
-121.195	-91.035	-0.207	0.059
-120.180	610.742	-0.091	0.226
-119.166	-59.310	0.127	0.055
-118.151	-98.423	-0.224	0.057
-117.137	-200.000	0.016	0.278
-116.122	120.870	-0.153	-0.190
-115.107	256.320	-0.236	0.403
-114.093	-200.000	-0.013	0.315
-113.078	46.604	0.209	0.194
-112.064	482.073	0.092	-0.209
-111.049	800.000	0.106	0.330
-110.034	89.918	0.085	-0.094
-109.020	98.627	-0.042	0.048
-108.005	-151.507	0.379	0.028
-106.991	147.032	-0.260	0.348
-105.976	137.366	-0.205	-0.267
-104.962	-133.985	-0.050	0.006
-103.947	235.613	-0.093	0.153
-102.932	-124.187	0.119	0.019
-101.918	13.987	0.072	-0.056
-100.903	-3.764	-0.051	0.035
-99.889	449.396	0.033	-0.073
-98.874	495.507	-0.036	-0.082
-97.859	442.847	0.023	0.051
-96.845	-150.761	-0.104	-0.008
-95.830	90.488	0.113	0.126
-94.816	-47.926	-0.337	0.162
-93.801	258.036	0.122	0.210
-92.786	-107.037	0.257	0.057
-91.772	2.570	0.228	0.164
-90.757	697.026	-0.188	0.490
-89.743	16.631	0.117	-0.092
-88.728	-200.000	-0.019	0.211
-87.713	85.612	-0.093	-0.101
-86.699	-47.468	0.114	-0.055
-85.684	800.000	0.039	0.153
-84.670	-31.139	-0.210	0.118
-83.655	606.102	0.068	0.169
-82.640	-17.353	0.041	0.026
-81.626	-200.000	0.050	0.300
-80.611	442.321	0.151	0.329
-79.597	5.943	0.233	-0.172
-78.582	-60.665	-0.172	0.073
-77.567	170.907	0.029	-0.041
-76.553	387.096	0.123	0.252
-75.538	-84.454	0.202	-0.064
-74.524	323.973	0.126	-0.240
-73.509	186.298	0.146	0.217
-72.494	800.000	-0.042	0.167
-71.480	-86.729	0.109	0.033
-70.465	41.755	-0.093	-0.084
-69.451	172.185	-0.132	-0.188
-68.436	-10.335	0.210	-0.139
-67.422	71.469	-0.092	0.095
-66.407	92.564	-0.208	0.233
-65.392	-200.000	-0.023	0.324
-64.378	35.573	0.059	0.052
-63.363	-200.000	-0.002	0.057
-62.349	220.277	0.086	0.137
-61.334	140.819	-0.683	-0.896
-60.319	128.154	0.434	0.549
-59.305	800.000	-0.202	-0.793
-58.290	-200.000	0.168	0.746
-57.276	629.643	0.566	1.423
-56.261	-200.000	84.724	512.003
-55.246	493.557	1364.040	3108.660
-54.232	148.431	2575.702	3455.577
-53.217	113.790	2212.592	2671.432
-52.203	49.905	1670.228	1564.819
-51.188	42.343	1404.693	1268.420
-50.173	39.074	1360.807	1208.671
-49.159	57.520	1402.985	1361.607
-48.144	63.227	1421.193	1414.786
-47.130	42.832	1379.784	1248.767
-46.115	39.140	1362.779	1210.640
-45.100	38.926	1358.129	1205.144
-44.086	38.911	1355.542	1202.711
-43.071	38.823	1353.527	1200.334
-42.057	38.798	1351.162	1198.041
-41.042	38.836	1349.588	1196.826
-40.027	39.016	1347.877	1196.359
-39.013	38.881	1346.022	1193.847
-37.998	38.923	1344.415	1192.627
-36.984	39.004	1342.328	1191.221
-35.969	39.035	1340.536	1189.771
-34.954	39.004	1338.928	1188.111
-33.940	39.052	1337.258	1186.870
-32.925	39.073	1335.848	1185.700
-31.911	39.134	1334.921	1185.194
-30.896	39.167	1333.184	1183.806
-29.881	39.177	1331.685	1182.486
-28.867	39.194	1330.086	1181.122
-27.852	39.095	1328.929	1179.454
-26.838	39.132	1327.322	1178.200
-25.823	39.128	1325.985	1176.943
-24.809	39.113	1324.362	1175.367
-23.794	38.993	1323.463	1173.806
-22.779	39.135	1321.298	1172.687
-21.765	39.152	1320.294	1171.851
-20.750	39.148	1318.729	1170.390
-19.736	38.972	1317.815	1168.489
-18.721	38.982	1316.695	1167.508
-17.706	39.071	1315.073	1166.554
-16.692	38.957	1314.449	1165.275
-15.677	39.088	1313.037	1164.755
-14.663	39.024	1311.882	1163.303
-13.648	39.047	1310.556	1162.216
-12.633	38.962	1310.201	1161.352
-11.619	38.951	1309.280	1160.427
-10.604	38.963	1308.327	1159.604
-9.590	38.943	1307.369	1158.595
-8.575	38.883	1306.174	1157.132
-7.560	39.004	1305.099	1156.851
-6.546	38.982	1304.494	1156.135
-5.531	38.939	1303.781	1155.205
-4.517	39.006	1302.688	1154.585
-3.502	38.905	1302.188	1153.501
-2.487	38.933	1300.574	1152.191
-1.473	38.904	1296.186	1148.092
-0.458	36.960	1280.417	1122.829
0.556	32.927	1258.556	1073.231
1.571	28.253	1261.187	1048.679
2.586	26.895	1275.770	1052.839
3.600	25.917	1264.918	1038.162
4.615	18.984	1189.097	938.167
5.629	7.998	1107.477	817.583
6.644	2.884	1084.747	774.972
7.659	2.497	1082.019	771.007
8.673	2.295	1080.231	768.652
9.688	2.345	1078.801	767.817
10.702	2.669	1077.718	768.599
11.717	9.161	1088.005	808.642
12.731	19.789	1103.584	874.153
13.746	25.099	1109.785	905.898
14.761	25.836	1110.419	910.059
15.775	25.798	1109.837	909.309
16.790	25.580	1109.342	907.728
17.804	25.655	1108.092	907.002
18.819	25.863	1107.778	907.708
19.834	25.817	1107.404	907.095
20.848	25.879	1107.133	907.102
21.863	25.862	1106.712	906.590
22.877	25.761	1106.167	905.558
23.892	25.800	1104.839	904.587
24.907	25.925	1104.142	904.562
25.921	25.786	1103.036	902.881
26.936	25.798	1101.855	901.894
27.950	25.699	1100.472	900.187
28.965	25.602	1098.782	898.237
29.980	25.702	1097.135	897.310
30.994	25.928	1096.026	897.449
32.009	25.936	1095.266	896.790
33.023	25.729	1094.150	894.769
34.038	25.717	1093.063	893.741
35.053	25.802	1092.468	893.594
36.067	25.934	1091.676	893.522
37.082	25.921	1090.990	892.819
38.096	26.022	1090.384	892.744
39.111	26.200	1089.700	892.986
40.126	25.973	1087.940	890.343
41.140	25.734	1086.222	887.677
42.155	25.404	1085.254	885.185
43.169	25.416	1084.650	884.671
44.184	25.510	1083.193	883.865
45.199	25.513	1082.296	883.074
46.213	25.529	1081.731	882.611
47.228	25.534	1081.094	882.038
48.242	25.673	1080.030	881.772
49.257	25.765	1079.327	881.574
50.271	26.022	1078.257	881.878
51.286	25.942	1077.722	880.972
52.301	25.907	1076.707	879.890
53.315	25.860	1075.903	878.927
54.330	25.802	1075.006	877.834
55.344	25.950	1073.999	877.653
56.359	25.812	1073.044	876.125
57.374	25.528	1072.566	874.280
58.388	25.551	1071.665	873.578
59.403	25.531	1070.633	872.564
60.417	25.320	1070.089	871.018
61.432	25.467	1069.807	871.425
62.447	25.496	1068.899	870.747
63.461	25.662	1067.735	870.527
64.476	25.609	1066.539	869.215
65.490	25.536	1065.633	868.047
66.505	25.412	1065.324	867.123
67.520	25.602	1064.425	867.228
68.534	25.331	1063.818	865.355
69.549	25.080	1062.572	863.052
70.563	25.102	1061.389	862.123
71.578	25.092	1060.820	861.536
72.593	24.844	1059.832	859.467
73.607	24.960	1059.401	859.598
74.622	25.411	1058.529	860.975
75.636	25.441	1057.813	860.461
76.651	25.220	1057.293	858.904
77.666	25.102	1056.667	857.755
78.680	25.325	1055.678	857.941
79.695	25.270	1055.569	857.514
80.709	25.395	1054.350	857.046
81.724	25.324	1053.808	856.190
82.739	25.369	1053.197	855.833
83.753	25.739	1053.155	857.485
84.768	26.068	1052.076	858.095
85.782	26.259	1050.670	857.782
86.797	26.113	1050.179	856.612
87.812	26.066	1049.137	855.464
88.826	25.888	1048.372	853.919
89.841	26.185	1046.892	854.042
90.855	26.114	1046.197	853.064
91.870	25.993	1045.383	851.756
92.884	26.047	1043.925	850.745
93.899	25.854	1043.293	849.247
94.914	26.102	1042.432	849.636
95.928	25.991	1041.597	848.360
96.943	25.679	1040.262	845.732
97.957	25.413	1039.463	843.758
98.972	25.300	1037.976	841.944
99.987	25.668	1037.061	842.852
101.001	25.749	1036.494	842.698
102.016	25.724	1035.949	842.063
103.030	25.679	1034.854	840.887
104.045	25.629	1033.809	839.729
105.060	25.390	1032.480	837.462
106.074	25.589	1031.922	837.864
107.089	25.908	1031.930	839.281
108.103	25.799	1030.726	837.721
109.118	25.486	1029.715	835.372
110.133	25.533	1028.316	834.380
111.147	25.273	1027.325	832.297
112.162	25.257	1025.992	831.069
113.176	25.528	1025.638	831.964
114.191	25.413	1024.796	830.673
115.206	24.990	1023.849	827.881
116.220	25.054	1022.846	827.290
117.235	25.128	1022.027	826.896
118.249	25.194	1021.265	826.510
119.264	25.152	1020.358	825.509
120.279	25.215	1019.451	824.992
121.293	25.386	1018.737	825.129
122.308	25.410	1018.090	824.640
123.322	25.192	1016.998	822.684
124.337	25.019	1015.865	820.903
125.352	24.649	1013.846	817.504
126.366	24.479	1013.238	816.168
127.381	25.235	1012.996	819.355
128.395	25.673	1012.948	821.242
129.410	25.748	1012.132	820.851
130.424	25.861	1010.885	820.279
131.439	25.720	1010.015	818.862
132.454	25.769	1008.970	818.162
133.468	25.696	1008.235	817.165
134.483	25.775	1007.426	816.792
135.497	25.907	1007.119	817.069
136.512	26.028	1005.783	816.461
137.527	26.115	1004.997	816.147
138.541	26.054	1004.440	815.344
139.556	26.041	1003.870	814.751
140.570	26.112	1002.795	814.129
141.585	26.070	1001.487	812.806
142.600	26.120	1000.332	812.019
143.614	26.273	1000.058	812.412
144.629	26.329	999.310	811.987
145.643	26.285	997.575	810.308
146.658	25.974	996.428	807.911
147.673	25.913	995.451	806.774
148.687	25.825	994.475	805.518
149.702	25.806	993.275	804.390
150.716	25.686	992.816	803.412
151.731	25.866	991.815	803.332
152.746	25.984	991.306	803.374
153.760	26.155	990.916	803.748
154.775	26.229	989.985	803.253
155.789	26.198	989.192	802.398
156.804	26.172	988.261	801.460
157.819	26.124	987.348	800.435
158.833	26.410	986.607	801.030
159.848	26.295	985.652	799.675
160.862	26.097	984.685	797.945
161.877	26.081	983.660	796.972
162.892	26.221	982.776	796.801
163.906	26.025	981.791	795.068
164.921	26.027	980.616	794.057
165.935	26.150	979.902	793.950
166.950	26.014	979.066	792.604
167.964	26.079	978.490	792.354
168.979	26.002	976.925	790.680
169.994	25.871	976.002	789.286
171.008	26.200	975.575	790.310
172.023	26.234	974.730	789.708
173.037	25.998	973.554	787.655
174.052	25.887	972.593	786.322
175.067	25.877	971.751	785.528
176.081	25.810	971.613	785.057
177.096	25.998	970.846	785.182
178.110	25.661	969.640	782.674
179.125	25.472	968.957	781.234
180.140	25.603	968.563	781.416
181.154	25.623	968.518	781.394
182.169	25.971	968.054	782.464
183.183	26.170	968.089	783.285
184.198	25.963	967.165	781.572
185.213	26.079	966.038	781.092
186.227	26.131	965.495	780.811
187.242	26.193	964.766	780.418
188.256	26.319	964.170	780.413
189.271	26.264	963.554	779.609
190.286	25.934	962.254	777.066
191.300	25.249	960.454	772.592
192.315	24.440	959.202	768.038
193.329	24.405	958.319	767.114
194.344	25.365	959.279	771.941
195.359	25.969	959.072	774.300
196.373	26.159	958.386	774.495
197.388	26.047	957.978	773.616
198.402	26.079	956.925	772.834
199.417	26.107	956.349	772.419
200.432	25.707	955.678	770.099
201.446	25.620	954.738	768.900
202.461	25.778	954.088	768.984
203.475	24.800	952.660	763.594
204.490	24.121	950.818	759.157
205.504	24.885	951.593	762.968
206.519	25.509	951.373	765.381
207.534	25.626	950.819	765.363
208.548	26.177	950.676	767.524
209.563	25.773	950.092	765.267
210.577	25.670	949.341	764.158
211.592	26.308	948.891	766.437
212.607	26.192	948.069	765.213
213.621	26.287	947.316	764.938
214.636	26.267	946.956	764.499
215.650	26.002	945.995	762.532
216.665	26.268	945.414	763.120
217.680	26.015	944.905	761.576
218.694	25.771	943.417	759.278
219.709	25.701	942.749	758.377
220.723	26.034	941.999	759.109
221.738	26.041	941.583	758.739
222.753	25.876	941.562	757.961
223.767	26.117	940.960	758.419
224.782	26.265	940.425	758.542
225.796	26.273	939.902	758.090
226.811	25.724	938.231	754.372
227.826	25.049	937.145	750.607
228.840	25.214	936.588	750.785
229.855	25.286	935.997	750.545
230.869	24.915	934.650	747.852
231.884	25.442	934.727	750.045
232.899	26.089	934.641	752.609
233.913	26.018	934.317	751.988
234.928	25.845	933.749	750.742
235.942	25.801	933.188	750.042
236.957	25.673	931.764	748.298
237.972	25.650	931.435	747.874
238.986	25.632	931.094	747.457
240.001	25.603	930.330	746.658
241.015	25.789	929.830	746.961
242.030	25.961	929.291	747.176
243.045	26.084	928.718	747.158
244.059	26.080	928.566	746.954
245.074	25.944	927.409	745.393
246.088	25.590	926.613	743.224
247.103	25.869	925.967	743.793
248.117	26.379	926.384	746.170
249.132	26.701	925.852	747.002
250.147	26.762	925.404	746.827
251.161	26.939	925.077	747.225
252.176	26.847	924.374	746.213
253.190	26.989	923.710	746.196
254.205	27.088	923.698	746.524
255.220	27.144	922.350	745.598
256.234	26.977	921.754	744.365
257.249	26.796	921.100	743.032
258.263	26.906	920.523	742.951
259.278	27.011	919.781	742.713
260.293	27.016	919.520	742.459
261.307	26.856	918.678	741.059
262.322	26.737	917.593	739.634
263.336	25.923	916.000	734.965
264.351	24.934	913.942	729.227
265.366	25.053	913.724	729.471
266.380	26.125	914.322	734.247
267.395	26.515	914.116	735.604
268.409	26.414	913.345	734.506
269.424	26.664	912.630	734.882
270.439	26.748	911.708	734.414
271.453	26.771	911.740	734.469
272.468	27.027	911.284	735.074
273.482	27.036	910.683	734.558
274.497	26.578	909.602	731.771
275.512	26.086	908.864	729.127
276.526	26.478	908.848	730.629
277.541	26.763	908.168	731.171
278.555	26.561	907.743	729.949
279.570	26.408	906.610	728.355
280.585	26.633	905.814	728.558
281.599	26.593	905.228	727.862
282.614	25.891	903.706	723.754
283.628	25.947	903.386	723.660
284.643	26.402	903.253	725.315
285.657	25.940	901.730	722.178
286.672	25.743	900.856	720.627
287.687	26.318	900.719	722.752
288.701	26.366	900.381	722.608
289.716	25.884	899.842	720.186
290.730	25.861	899.203	719.521
291.745	25.597	898.163	717.568
292.760	25.981	898.088	718.979
293.774	26.994	898.391	723.196
294.789	27.293	898.294	724.243
295.803	27.279	897.739	723.675
296.818	27.383	896.810	723.275
297.833	26.823	895.721	720.110
298.847	26.600	895.042	718.616
299.862	27.128	894.923	720.551
300.876	27.328	894.373	720.836
301.891	27.203	893.684	719.725
302.906	26.668	893.135	717.103
303.920	26.802	892.604	717.141
304.935	27.288	892.459	718.882
305.949	27.155	891.464	717.491
306.964	26.992	891.013	716.424
307.979	27.038	890.382	716.032
308.993	27.306	890.537	717.152
310.008	27.380	889.589	716.616
311.022	27.111	888.870	714.913
312.037	27.081	888.008	714.039
313.052	26.805	887.277	712.304
314.066	25.759	885.498	706.711
315.081	25.440	884.990	704.990
316.095	26.347	885.396	708.811
317.110	26.936	885.162	710.867
318.125	26.080	883.459	706.091
319.139	25.014	882.347	700.970
320.154	24.870	881.910	699.997
321.168	25.690	882.450	703.571
322.183	26.499	882.000	706.310
323.197	26.785	881.579	707.025
324.212	27.014	881.136	707.500
325.227	26.883	880.985	706.807
326.241	26.756	880.305	705.703
327.256	26.685	879.975	705.101
328.270	26.571	878.994	703.809
329.285	26.476	877.659	702.310
330.300	26.230	877.281	700.990
331.314	26.562	876.809	701.838
332.329	26.858	876.909	703.002
333.343	27.199	876.502	703.935
334.358	27.070	875.927	702.915
335.373	27.113	875.864	702.966
336.387	27.280	875.987	703.647
337.402	27.562	875.551	704.326
338.416	27.468	875.224	703.638
339.431	27.658	874.835	703.997
340.446	27.705	874.419	703.779
341.460	27.684	873.703	703.060
342.475	27.434	873.124	701.569
343.489	27.526	872.682	701.507
344.504	27.706	872.681	702.137
345.519	28.097	872.283	703.258
346.533	28.054	871.453	702.362
347.548	27.857	871.320	701.437
348.562	27.908	870.530	700.934
349.577	27.721	870.165	699.860
350.592	27.786	869.430	699.457
351.606	27.846	868.321	698.734
352.621	27.593	867.502	697.044
353.635	27.657	866.989	696.814
354.650	27.177	865.091	693.399
355.665	26.069	863.615	687.929
356.679	26.385	863.596	689.060
357.694	27.082	862.787	691.006
358.708	26.874	862.548	689.963
359.723	27.193	862.494	691.069
360.738	27.524	861.986	691.859
361.752	27.498	861.720	691.484
362.767	27.865	861.416	692.573
363.781	28.154	861.188	693.422
364.796	28.268	860.530	693.266
365.810	28.388	860.277	693.452
366.825	28.330	859.898	692.868
367.840	27.989	858.962	690.763
368.854	27.575	858.114	688.454
369.869	27.672	857.329	688.133
370.883	27.692	857.058	687.929
371.898	27.630	856.959	687.554
372.913	27.668	856.181	687.012
373.927	27.754	855.922	687.067
374.942	27.774	855.725	686.923
375.956	27.882	855.371	686.987
376.971	28.091	854.770	687.226
377.986	28.352	854.337	687.799
379.000	28.152	854.021	686.732
380.015	28.126	853.117	685.847
381.029	28.148	852.480	685.355
382.044	28.291	851.883	685.350
383.059	28.361	851.390	685.157
384.073	28.265	850.770	684.236
385.088	28.289	850.051	683.691
386.102	27.986	849.380	681.960
387.117	28.063	848.557	681.524
388.132	27.666	847.229	678.920
389.146	27.220	846.734	676.802
390.161	27.405	846.819	677.500
391.175	27.890	846.643	679.103
392.190	27.603	845.386	676.970
393.205	26.344	842.969	670.310
394.219	24.724	841.467	663.053
395.234	24.684	841.196	662.634
396.248	26.141	842.741	669.196
397.263	27.693	843.653	675.614
398.278	27.595	842.992	674.663
399.292	27.462	842.570	673.774
400.307	27.498	841.808	673.239
401.321	27.585	841.542	673.288
402.336	27.958	841.521	674.589
403.350	28.372	841.570	676.097
404.365	28.753	841.374	677.282
405.380	28.940	841.092	677.685
406.394	29.120	840.278	677.632
407.409	28.754	839.922	675.938
408.423	28.752	839.651	675.655
409.438	28.875	839.195	675.678
410.453	28.927	838.641	675.363
411.467	28.815	838.205	674.541
412.482	28.897	838.080	674.683
413.496	28.948	837.518	674.359
414.511	28.855	837.075	673.602
415.526	28.937	836.442	673.331
416.540	28.877	835.686	672.445
417.555	28.711	835.019	671.241
418.569	28.618	834.927	670.767
419.584	28.532	834.177	669.792
420.599	28.447	833.541	668.910
421.613	100.767	1275.990	1407.516
422.628	87.429	1340.466	1407.680
