DTS Sentinel unit serial number:	SN413079Multiplexer serial number:	ORYXHardware model number:	OX4-SRSoftware version number:	ORYX F/W v4.00 Oryx Data Collector v3.7.2.0data status	okinstallation	princeton_trtdifferential loss correction	single-endedforward channel	channel 1reverse channel	N/Adate	2019/09/14time	05:42:35forward acquisition time	60.00reverse acquisition time	0.00gamma	496.2192k internal	0.2334k external	0.2334temperature offset calibration	1.0080default loss term (dB/km)	0.3790temperature slope calibration	1.0000multiplexer offset coefficient	1.0000multiplexer slope coefficient	1.0000fibre end	0.00T internal ref (°C)	26.94T ext. ref 1 (°C)	3.39T ext. ref 2 (°C)	21.68length (m)	temperature (°C)	Stokes	anti-Stokes-747.200	-46.747	-0.154	0.076
-746.185	-72.563	0.114	0.042
-745.171	-25.716	-0.215	-0.128
-744.156	-171.551	-0.125	-0.004
-743.142	-58.325	-0.100	-0.044
-742.127	69.178	-0.182	0.188
-741.112	161.327	-0.055	0.077
-740.098	-138.138	-0.207	-0.023
-739.083	5.421	0.147	0.109
-738.069	-159.838	0.153	-0.008
-737.054	72.636	0.191	0.200
-736.039	-169.657	-0.200	-0.007
-735.025	-73.514	0.156	-0.057
-734.010	-137.599	-0.173	-0.020
-732.996	94.239	-0.211	-0.241
-731.981	-6.090	-0.084	0.058
-730.966	-200.000	0.029	-0.205
-729.952	800.000	0.116	-0.396
-728.937	-128.133	-0.048	-0.007
-727.923	-200.000	-0.092	-0.422
-726.908	-200.000	0.007	-0.284
-725.894	-114.249	0.360	0.070
-724.879	611.772	-0.104	-0.262
-723.864	22.333	-0.381	0.313
-722.850	-200.000	0.012	0.171
-721.835	800.000	-0.054	-0.178
-720.821	800.000	-0.087	-0.329
-719.806	40.100	-0.350	-0.316
-718.791	143.290	0.305	-0.407
-717.777	-47.749	0.155	0.075
-716.762	285.296	-0.250	0.452
-715.748	-58.158	0.085	-0.037
-714.733	-81.458	0.207	0.069
-713.718	57.613	-0.135	-0.133
-712.704	-7.504	0.379	-0.257
-711.689	599.467	0.092	-0.229
-710.675	-200.000	-0.035	-0.202
-709.660	-139.864	0.274	0.029
-708.645	71.306	0.181	-0.189
-707.631	630.850	0.097	-0.247
-706.616	-200.000	-0.058	-0.437
-705.602	-181.533	-0.243	0.005
-704.587	-89.711	-0.145	-0.043
-703.572	301.546	-0.052	0.097
-702.558	-200.000	-0.038	-0.431
-701.543	-133.962	-0.188	-0.023
-700.529	-200.000	0.005	-0.091
-699.514	-200.000	-0.020	-0.351
-698.499	-120.343	0.224	-0.038
-697.485	-200.000	-0.013	0.198
-696.470	739.541	-0.070	-0.188
-695.456	258.953	-0.137	0.238
-694.441	-22.953	-0.181	-0.109
-693.426	4.898	0.200	-0.147
-692.412	-101.780	-0.128	-0.031
-691.397	800.000	-0.097	-0.277
-690.383	270.093	0.088	0.155
-689.368	-200.000	-0.026	0.166
-688.354	-200.000	-0.021	0.129
-687.339	-189.805	-0.403	-0.005
-686.324	-138.599	-0.123	-0.014
-685.310	-145.647	0.182	-0.016
-684.295	800.000	0.014	-0.042
-683.281	-200.000	0.019	-0.342
-682.266	101.552	-0.189	0.221
-681.251	-14.255	0.081	-0.052
-680.237	-86.716	-0.180	0.055
-679.222	-25.203	0.067	0.040
-678.208	402.794	0.187	0.395
-677.193	-73.540	0.328	0.120
-676.178	-102.624	-0.203	0.049
-675.164	-95.982	0.111	-0.030
-674.149	12.719	-0.366	0.283
-673.135	497.398	0.103	0.237
-672.120	75.609	0.057	-0.060
-671.105	800.000	0.093	0.278
-670.091	-66.127	-0.336	0.134
-669.076	62.922	-0.447	-0.448
-668.062	-105.352	0.282	-0.064
-667.047	288.068	0.194	0.351
-666.032	800.000	0.036	0.124
-665.018	592.508	0.142	-0.352
-664.003	493.776	0.075	0.172
-662.989	-68.555	-0.107	-0.042
-661.974	-65.368	-0.227	-0.091
-660.959	72.726	0.066	-0.069
-659.945	35.819	-0.179	-0.158
-658.930	-55.540	0.393	-0.177
-657.916	800.000	-0.130	-0.460
-656.901	-58.026	0.156	-0.068
-655.886	-86.532	-0.235	0.072
-654.872	21.489	0.150	0.122
-653.857	7.504	0.219	0.164
-652.843	-131.817	-0.202	-0.026
-651.828	9.841	0.146	-0.111
-650.814	-200.000	-0.329	-0.002
-649.799	345.090	0.125	0.247
-648.784	-128.426	-0.294	-0.042
-647.770	644.336	0.049	0.125
-646.755	-200.000	-0.013	-0.172
-645.741	-158.621	0.182	0.011
-644.726	-41.930	-0.268	0.138
-643.711	193.451	-0.088	0.133
-642.697	-98.016	-0.129	-0.033
-641.682	259.964	0.143	0.248
-640.668	-34.883	-0.051	0.028
-639.653	490.659	0.052	-0.120
-638.638	-69.950	-0.102	-0.039
-637.624	-107.381	0.027	-0.006
-636.609	201.521	0.124	-0.192
-635.595	-200.000	0.003	0.023
-634.580	-200.000	-0.043	-0.323
-633.565	68.665	0.180	-0.185
-632.551	531.715	0.062	0.146
-631.536	-200.000	0.012	0.155
-630.522	-200.000	-0.004	-0.135
-629.507	-116.962	-0.116	0.021
-628.492	75.632	0.158	0.167
-627.478	115.256	0.086	0.105
-626.463	143.005	-0.078	0.104
-625.449	-56.898	-0.190	-0.084
-624.434	-177.044	-0.095	0.002
-623.419	686.451	0.113	-0.296
-622.405	800.000	0.056	-0.221
-621.390	-200.000	0.016	0.164
-620.376	48.924	0.336	0.316
-619.361	-42.812	0.198	0.100
-618.346	-54.499	0.157	0.071
-617.332	-200.000	-0.031	0.223
-616.317	-86.172	-0.157	-0.048
-615.303	129.286	-0.089	-0.114
-614.288	-104.736	-0.155	-0.036
-613.273	800.000	-0.106	0.295
-612.259	-130.535	-0.055	-0.007
-611.244	572.813	0.053	0.129
-610.230	162.381	0.284	0.398
-609.215	-200.000	-0.008	0.186
-608.201	800.000	0.021	0.070
-607.186	-15.298	0.188	-0.120
-606.171	-51.136	-0.154	-0.072
-605.157	66.921	0.174	0.178
-604.142	-134.824	-0.206	-0.025
-603.128	800.000	0.151	0.431
-602.113	358.028	0.075	0.150
-601.098	40.017	0.126	-0.113
-600.084	-200.000	-0.024	-0.291
-599.069	24.588	-0.208	0.172
-598.055	-109.095	-0.433	0.092
-597.040	-97.572	0.082	0.021
-596.025	-43.676	-0.299	-0.151
-595.011	194.597	-0.116	0.175
-593.996	-37.575	0.273	-0.146
-592.982	-154.562	-0.276	-0.018
-591.967	66.921	-0.058	0.059
-590.952	-200.000	0.036	-0.171
-589.938	-200.000	-0.023	0.113
-588.923	-57.317	-0.228	-0.100
-587.909	689.448	-0.044	-0.114
-586.894	40.428	-0.148	0.133
-585.879	-36.648	-0.335	-0.180
-584.865	135.054	-0.164	-0.213
-583.850	173.064	-0.321	0.462
-582.836	458.722	-0.149	-0.330
-581.821	-44.891	0.118	-0.059
-580.806	419.510	-0.075	-0.161
-579.792	-200.000	-0.034	0.156
-578.777	-200.000	0.059	0.277
-577.763	800.000	-0.027	-0.107
-576.748	-4.115	0.087	-0.060
-575.733	145.845	-0.021	-0.027
-574.719	614.463	0.114	-0.284
-573.704	30.833	0.153	-0.131
-572.690	100.821	-0.235	0.273
-571.675	-106.409	-0.170	-0.038
-570.661	-2.847	-0.247	-0.172
-569.646	58.732	-0.177	0.174
-568.631	74.047	0.263	0.276
-567.617	37.942	0.133	0.118
-566.602	-49.462	0.119	0.057
-565.588	-119.069	-0.012	0.002
-564.573	-21.127	-0.175	0.107
-563.558	262.161	0.101	-0.175
-562.544	800.000	0.071	0.246
-561.529	800.000	0.036	-0.099
-560.515	-94.229	-0.281	-0.077
-559.500	179.102	0.104	-0.152
-558.485	2.543	0.058	0.042
-557.471	-60.860	-0.250	-0.105
-556.456	-105.249	0.291	-0.066
-555.442	102.749	0.159	0.185
-554.427	776.476	0.069	0.188
-553.412	800.000	-0.175	0.498
-552.398	-200.000	-0.027	0.139
-551.383	-62.382	0.324	-0.134
-550.369	-200.000	0.038	-0.359
-549.354	174.633	-0.048	0.069
-548.339	37.272	0.146	0.129
-547.325	44.450	-0.140	-0.128
-546.310	-42.575	0.102	0.052
-545.296	85.130	0.084	-0.092
-544.281	-180.420	-0.309	-0.006
-543.266	233.748	-0.143	-0.235
-542.252	10.740	0.029	-0.022
-541.237	-28.752	-0.083	0.047
-540.223	-120.543	-0.038	-0.006
-539.208	43.178	-0.182	0.165
-538.193	-200.000	0.050	-0.222
-537.179	107.119	0.074	0.088
-536.164	-138.209	-0.298	0.033
-535.150	145.810	-0.090	-0.120
-534.135	800.000	0.089	0.247
-533.121	-114.696	0.262	0.050
-532.106	380.984	-0.170	-0.347
-531.091	-15.864	-0.100	0.063
-530.077	439.251	0.083	-0.181
-529.062	-19.428	-0.182	0.112
-528.048	-200.000	0.009	0.157
-527.033	-200.000	0.008	0.039
-526.018	-34.195	0.182	0.100
-525.004	51.636	0.346	0.328
-523.989	623.711	0.006	0.016
-522.975	-4.665	-0.181	-0.124
-521.960	50.580	0.079	-0.074
-520.945	-60.348	-0.131	-0.055
-519.931	252.707	0.133	-0.226
-518.916	-200.000	-0.009	-0.299
-517.902	-200.000	-0.007	-0.380
-516.887	392.151	0.121	-0.251
-515.872	-115.387	0.152	-0.029
-514.858	260.210	-0.139	-0.239
-513.843	730.347	-0.108	-0.288
-512.829	85.877	-0.149	0.163
-511.814	-104.797	0.179	0.041
-510.799	64.182	-0.186	0.186
-509.785	800.000	-0.052	0.179
-508.770	-41.188	0.104	0.053
-507.756	-12.209	0.101	0.066
-506.741	-200.000	-0.046	0.213
-505.726	115.731	0.051	0.062
-504.712	-114.422	0.245	0.047
-503.697	-80.282	0.145	0.048
-502.683	143.676	0.121	0.161
-501.668	-107.001	-0.379	-0.083
-500.653	128.793	-0.233	-0.296
-499.639	-105.588	-0.191	0.043
-498.624	-132.149	0.297	-0.038
-497.610	112.841	-0.073	-0.089
-496.595	432.554	0.085	0.182
-495.581	-99.852	-0.163	0.041
-494.566	321.793	0.098	0.186
-493.551	800.000	0.025	-0.099
-492.537	-132.160	0.226	0.029
-491.522	-63.734	0.155	0.063
-490.508	619.920	-0.110	0.275
-489.493	800.000	-0.135	0.439
-488.478	3.267	-0.194	0.141
-487.464	39.041	0.276	-0.245
-486.449	-110.785	-0.262	-0.054
-485.435	164.479	0.088	0.124
-484.420	-200.000	0.024	0.109
-483.405	-200.000	-0.073	-0.463
-482.391	800.000	-0.103	0.358
-481.376	57.288	0.045	0.044
-480.362	-9.189	-0.108	-0.072
-479.347	181.010	-0.120	-0.175
-478.332	-107.114	0.176	-0.039
-477.318	-200.000	-0.009	0.180
-476.303	-2.226	-0.321	-0.224
-475.289	-200.000	0.000	0.116
-474.274	-25.201	0.447	0.263
-473.259	-110.276	-0.409	0.085
-472.245	-54.249	-0.068	-0.031
-471.230	115.697	-0.101	-0.123
-470.216	-200.000	0.005	0.037
-469.201	-33.573	-0.037	0.020
-468.186	275.607	-0.062	0.109
-467.172	-140.862	-0.268	0.027
-466.157	84.207	-0.116	0.126
-465.143	-200.000	-0.026	-0.305
-464.128	800.000	-0.087	0.291
-463.113	-73.040	0.180	-0.066
-462.099	-160.612	0.232	-0.012
-461.084	28.579	-0.120	-0.101
-460.070	-47.038	-0.206	-0.100
-459.055	-200.000	-0.006	0.280
-458.040	-58.224	-0.063	0.027
-457.026	41.108	0.308	-0.277
-456.011	393.373	0.106	-0.218
-454.997	46.174	-0.257	-0.237
-453.982	-168.528	0.172	-0.007
-452.968	278.731	0.173	0.306
-451.953	-107.914	0.069	-0.015
-450.938	-200.000	0.011	-0.068
-449.924	-51.445	-0.133	-0.062
-448.909	496.288	-0.032	-0.074
-447.895	800.000	-0.051	-0.166
-446.880	-99.200	0.257	0.065
-445.865	18.121	0.293	0.232
-444.851	-200.000	-0.043	0.408
-443.836	800.000	0.003	-0.012
-442.822	440.512	0.127	-0.276
-441.807	57.686	-0.150	-0.146
-440.792	234.586	-0.100	-0.163
-439.778	800.000	-0.160	0.479
-438.763	-48.710	0.311	0.148
-437.749	-23.649	-0.088	0.053
-436.734	-11.054	-0.086	-0.056
-435.719	-0.825	0.204	-0.143
-434.705	-50.936	0.091	-0.043
-433.690	2.881	-0.095	-0.068
-432.676	-3.347	-0.170	0.117
-431.661	-200.000	-0.006	-0.056
-430.646	-200.000	0.015	0.153
-429.632	-34.282	0.075	0.041
-428.617	125.340	-0.081	-0.102
-427.603	380.377	-0.053	0.107
-426.588	-122.768	-0.410	0.066
-425.573	607.411	0.072	-0.178
-424.559	-200.000	-0.016	0.099
-423.544	-200.000	-0.040	-0.315
-422.530	384.354	0.078	0.159
-421.515	-200.000	-0.032	0.161
-420.500	-40.362	-0.068	0.035
-419.486	-200.000	-0.011	0.078
-418.471	-200.000	-0.026	-0.130
-417.457	63.954	-0.198	-0.197
-416.442	-200.000	-0.034	0.220
-415.428	800.000	-0.061	-0.170
-414.413	-164.372	-0.200	-0.009
-413.398	301.164	0.083	0.153
-412.384	-74.604	-0.103	-0.037
-411.369	148.591	0.145	0.195
-410.355	800.000	-0.144	0.401
-409.340	45.713	-0.111	-0.102
-408.325	187.158	-0.033	-0.049
-407.311	-200.000	-0.000	0.388
-406.296	580.267	0.065	0.159
-405.282	752.310	-0.043	-0.116
-404.267	3.737	0.102	-0.074
-403.252	-200.000	0.008	0.154
-402.238	83.084	0.056	0.061
-401.223	-132.339	0.368	0.047
-400.209	800.000	0.104	-0.312
-399.194	-98.264	-0.156	0.040
-398.179	-88.728	0.469	0.138
-397.165	800.000	-0.075	0.310
-396.150	-200.000	0.048	-0.311
-395.136	30.621	0.220	0.187
-394.121	-69.227	-0.325	0.124
-393.106	-200.000	-0.006	-0.212
-392.092	87.451	-0.236	-0.258
-391.077	800.000	0.083	0.355
-390.063	-59.037	-0.250	0.107
-389.048	800.000	0.085	-0.250
-388.033	-113.582	-0.014	0.003
-387.019	27.853	0.345	0.288
-386.004	118.696	0.257	-0.314
-384.990	-53.060	-0.232	-0.106
-383.975	-200.000	-0.014	-0.117
-382.960	-200.000	0.029	0.183
-381.946	800.000	0.072	0.203
-380.931	202.475	0.219	0.335
-379.917	205.946	0.083	-0.129
-378.902	-119.875	-0.373	0.063
-377.888	-84.820	0.156	-0.049
-376.873	81.549	0.125	-0.134
-375.858	163.235	0.096	-0.134
-374.844	-44.245	0.062	-0.031
-373.829	362.871	-0.045	-0.090
-372.815	576.790	-0.103	-0.249
-371.800	-200.000	0.025	0.194
-370.785	154.633	-0.101	0.137
-369.771	-200.000	-0.036	0.254
-368.756	-57.809	-0.210	0.091
-367.742	-41.100	-0.068	0.035
-366.727	-200.000	0.019	0.210
-365.712	464.509	0.130	0.287
-364.698	12.696	-0.166	0.127
-363.683	-53.885	0.191	-0.086
-362.669	-82.217	0.293	0.094
-361.654	800.000	-0.080	-0.340
-360.639	6.733	-0.214	-0.157
-359.625	-200.000	0.015	-0.109
-358.610	-50.418	-0.155	-0.073
-357.596	800.000	-0.080	-0.254
-356.581	-200.000	0.021	0.217
-355.566	800.000	-0.024	0.065
-354.552	36.437	0.091	0.079
-353.537	800.000	-0.018	-0.054
-352.523	430.547	-0.089	-0.191
-351.508	-141.031	0.146	0.015
-350.493	-122.954	-0.102	0.016
-349.479	361.949	-0.092	-0.182
-348.464	-133.741	-0.366	0.045
-347.450	-112.152	0.176	-0.035
-346.435	251.671	-0.146	0.246
-345.420	-200.000	-0.122	0.001
-344.406	-30.752	0.193	0.108
-343.391	-25.866	-0.374	0.218
-342.377	800.000	-0.093	-0.349
-341.362	-65.706	-0.262	0.104
-340.348	-93.929	0.212	-0.058
-339.333	-34.951	0.178	-0.096
-338.318	-200.000	0.032	0.315
-337.304	436.451	-0.093	0.200
-336.289	38.795	0.237	-0.209
-335.275	3.756	-0.161	-0.116
-334.260	-23.343	0.157	0.093
-333.245	245.356	0.158	0.263
-332.231	-143.894	0.398	-0.037
-331.216	-7.976	0.196	0.131
-330.202	-200.000	-0.009	0.078
-329.187	46.422	0.271	-0.249
-328.172	-37.172	-0.263	0.139
-327.158	800.000	0.087	-0.237
-326.143	376.221	0.105	-0.213
-325.129	-200.000	0.035	-0.297
-324.114	198.120	-0.068	0.103
-323.099	-59.720	-0.104	-0.044
-322.085	-137.613	0.392	-0.044
-321.070	-200.000	0.044	-0.222
-320.056	-31.487	0.148	-0.082
-319.041	-133.600	-0.083	-0.010
-318.026	-200.000	0.018	-0.111
-317.012	475.395	-0.064	0.143
-315.997	-200.000	-0.045	-0.223
-314.983	-200.000	0.002	-0.114
-313.968	318.882	-0.210	-0.394
-312.953	34.729	-0.173	-0.150
-311.939	656.609	0.124	-0.315
-310.924	-53.487	0.185	-0.084
-309.910	-10.148	-0.124	-0.082
-308.895	-131.846	-0.342	0.044
-307.880	-132.948	-0.105	0.013
-306.866	-109.701	0.158	-0.033
-305.851	103.511	0.179	-0.208
-304.837	364.535	0.142	0.282
-303.822	44.243	0.088	0.080
-302.807	-79.557	-0.082	0.027
-301.793	-200.000	-0.008	0.409
-300.778	148.091	0.031	-0.041
-299.764	754.478	0.055	-0.146
-298.749	212.484	-0.107	0.166
-297.735	-48.659	-0.155	-0.073
-296.720	-18.360	0.224	0.138
-295.705	-33.645	0.071	0.039
-294.691	0.670	-0.112	-0.079
-293.676	399.953	0.264	-0.546
-292.662	800.000	0.066	-0.271
-291.647	-66.738	-0.405	0.158
-290.632	-200.000	-0.004	0.237
-289.618	-124.472	0.346	0.053
-288.603	-128.641	0.070	0.010
-287.589	-67.168	-0.174	-0.068
-286.574	-200.000	0.038	-0.358
-285.559	212.188	0.063	-0.099
-284.545	348.210	-0.051	0.100
-283.530	-200.000	-0.004	-0.262
-282.516	800.000	-0.087	0.302
-281.501	284.510	-0.076	-0.135
-280.486	-200.000	-0.011	0.369
-279.472	-75.608	0.254	-0.089
-278.457	-200.000	-0.068	0.328
-277.443	96.797	-0.069	-0.078
-276.428	73.469	0.167	0.172
-275.413	11.319	-0.197	0.149
-274.399	424.538	-0.097	0.206
-273.384	-59.305	-0.316	-0.134
-272.370	6.723	0.195	-0.143
-271.355	-8.488	0.140	0.093
-270.340	224.960	-0.130	0.208
-269.326	-61.252	0.094	-0.039
-268.311	-13.723	0.120	0.077
-267.297	-67.870	-0.230	0.089
-266.282	-157.702	0.282	0.017
-265.267	-96.837	-0.057	0.015
-264.253	-200.000	-0.008	-0.236
-263.238	34.614	-0.068	0.058
-262.224	-36.464	0.002	0.001
-261.209	800.000	-0.022	-0.092
-260.195	-1.621	-0.247	-0.172
-259.180	-81.003	-0.067	0.022
-258.165	-73.298	0.202	-0.073
-257.151	144.966	-0.196	0.259
-256.136	259.818	0.207	-0.352
-255.122	-79.179	0.212	-0.071
-254.107	133.635	0.089	-0.113
-253.092	-97.154	0.635	-0.164
-252.078	150.400	-0.082	-0.110
-251.063	210.609	0.103	-0.160
-250.049	54.394	0.172	-0.163
-249.034	727.662	-0.042	0.111
-248.019	-200.000	0.064	-0.365
-247.005	-87.064	0.322	0.097
-245.990	-44.562	0.163	0.080
-244.976	83.275	-0.052	-0.056
-243.961	-200.000	0.086	0.399
-242.946	36.779	0.140	-0.122
-241.932	-200.000	0.006	0.145
-240.917	-147.213	0.304	-0.026
-239.903	309.122	-0.108	0.199
-238.888	-157.610	0.156	-0.009
-237.873	-118.762	0.185	0.032
-236.859	401.052	-0.045	0.093
-235.844	46.892	0.073	-0.067
-234.830	-11.277	-0.171	-0.111
-233.815	-49.614	0.110	0.051
-232.800	-92.203	0.502	-0.139
-231.786	-200.000	0.001	0.063
-230.771	281.562	-0.027	0.048
-229.757	-88.629	-0.354	-0.104
-228.742	52.116	0.130	-0.122
-227.727	-75.769	-0.270	0.094
-226.713	-200.000	-0.028	-0.218
-225.698	-200.000	-0.024	-0.285
-224.684	-63.634	0.263	-0.106
-223.669	179.635	-0.163	0.235
-222.655	-130.504	0.110	-0.015
-221.640	-200.000	0.055	0.334
-220.625	-32.217	-0.262	0.144
-219.611	278.769	0.049	-0.087
-218.596	-16.080	0.196	-0.123
-217.582	352.580	0.192	-0.374
-216.567	-2.858	0.087	0.060
-215.552	-46.885	-0.102	-0.049
-214.538	147.861	0.089	-0.117
-213.523	68.188	-0.087	0.087
-212.509	100.991	0.135	-0.155
-211.494	-58.801	-0.197	-0.084
-210.479	-137.764	-0.098	-0.011
-209.465	-62.388	0.208	-0.085
-208.450	-161.473	0.047	0.002
-207.436	473.473	-0.081	-0.180
-206.421	68.016	-0.211	-0.213
-205.406	-180.206	-0.257	0.005
-204.392	304.890	-0.107	-0.195
-203.377	60.759	-0.188	-0.183
-202.363	-200.000	0.001	0.054
-201.348	-22.277	0.045	-0.027
-200.333	193.028	-0.139	-0.207
-199.319	-158.787	0.251	-0.014
-198.304	-157.928	0.176	0.010
-197.290	35.640	-0.265	-0.229
-196.275	287.545	0.127	0.226
-195.260	-94.630	-0.326	-0.087
-194.246	-92.174	-0.060	-0.017
-193.231	-13.568	0.159	0.101
-192.217	800.000	-0.021	-0.087
-191.202	-80.229	0.271	0.089
-190.187	-24.584	-0.098	0.057
-189.173	-68.572	0.287	-0.109
-188.158	-14.290	-0.075	0.048
-187.144	-74.959	0.213	-0.075
-186.129	205.642	0.109	-0.167
-185.114	87.368	-0.172	0.187
-184.100	-57.841	0.203	-0.087
-183.085	-124.856	0.173	-0.026
-182.071	-141.416	0.071	-0.007
-181.056	230.863	-0.135	0.217
-180.042	298.371	-0.054	0.098
-179.027	-200.000	0.006	-0.058
-178.012	599.970	-0.149	0.363
-176.998	-200.000	0.031	0.201
-175.983	218.521	0.069	-0.108
-174.969	-57.968	-0.126	-0.054
-173.954	15.897	0.329	0.255
-172.939	-200.000	-0.018	0.107
-171.925	16.506	0.108	0.084
-170.910	13.623	-0.145	-0.110
-169.896	-85.087	0.223	-0.069
-168.881	800.000	0.061	0.256
-167.866	6.973	-0.125	-0.091
-166.852	-2.277	0.357	-0.246
-165.837	-200.000	-0.037	-0.274
-164.823	26.309	0.099	-0.081
-163.808	-64.152	-0.071	0.028
-162.793	-200.000	0.040	-0.458
-161.779	-11.802	-0.207	0.134
-160.764	-89.124	-0.324	-0.094
-159.750	255.720	0.080	-0.134
-158.735	800.000	-0.010	0.042
-157.720	-200.000	-0.017	-0.168
-156.706	306.194	-0.068	0.125
-155.691	39.586	-0.135	0.119
-154.677	237.526	-0.063	0.102
-153.662	72.936	-0.275	-0.282
-152.647	35.934	-0.060	0.052
-151.633	47.868	-0.183	0.168
-150.618	-200.000	0.004	-0.124
-149.604	176.327	-0.059	-0.084
-148.589	485.608	0.097	0.218
-147.574	-83.266	0.134	0.042
-146.560	424.011	-0.022	0.046
-145.545	-119.172	-0.463	-0.079
-144.531	-200.000	0.010	0.232
-143.516	-88.145	-0.138	0.041
-142.502	800.000	-0.063	0.256
-141.487	84.952	0.167	-0.179
-140.472	800.000	-0.011	-0.039
-139.458	800.000	-0.005	-0.020
-138.443	-51.843	-0.157	0.072
-137.429	-23.209	0.108	0.063
-136.414	-6.109	0.126	-0.085
-135.399	-200.000	-0.018	-0.223
-134.385	58.214	-0.102	0.098
-133.370	157.721	0.182	-0.248
-132.356	110.599	-0.129	-0.152
-131.341	56.237	-0.070	-0.067
-130.326	178.990	0.136	0.194
-129.312	-200.000	0.016	-0.167
-128.297	-200.000	0.050	0.296
-127.283	229.167	0.041	0.066
-126.268	64.420	-0.157	0.155
-125.253	492.793	0.154	0.347
-124.239	7.969	0.075	0.055
-123.224	-85.034	0.034	0.010
-122.210	-97.696	0.456	-0.116
-121.195	27.691	0.248	0.204
-120.180	56.243	-0.214	0.204
-119.166	800.000	-0.035	-0.095
-118.151	-200.000	0.007	0.206
-117.137	-43.442	-0.084	0.042
-116.122	-56.209	0.160	-0.070
-115.107	800.000	0.077	-0.233
-114.093	165.074	-0.174	-0.241
-113.078	193.767	-0.121	-0.180
-112.064	333.141	0.108	0.205
-111.049	800.000	0.031	-0.115
-110.034	-200.000	0.024	0.395
-109.020	800.000	0.027	0.078
-108.005	-200.000	-0.530	0.001
-106.991	-55.934	-0.162	-0.071
-105.976	202.498	0.150	0.227
-104.962	-200.000	-0.015	0.279
-103.947	800.000	0.041	0.124
-102.932	-29.667	-0.126	0.070
-101.918	440.437	-0.049	-0.104
-100.903	-65.898	0.128	0.050
-99.889	-200.000	0.010	0.385
-98.874	800.000	-0.053	0.153
-97.859	-26.393	-0.342	0.197
-96.845	265.905	-0.082	0.140
-95.830	190.672	0.285	0.420
-94.816	-103.860	-0.288	-0.066
-93.801	48.147	0.035	0.032
-92.786	36.228	-0.249	-0.215
-91.772	-23.878	0.314	-0.184
-90.757	-200.000	0.006	0.105
-89.743	-27.221	0.250	0.143
-88.728	50.795	0.108	-0.100
-87.713	-167.066	-0.231	-0.009
-86.699	-177.254	-0.122	-0.003
-85.684	-116.064	0.038	-0.007
-84.670	-146.653	0.451	0.038
-83.655	800.000	0.030	-0.090
-82.640	800.000	0.044	-0.157
-81.626	-112.005	-0.189	0.037
-80.611	146.288	-0.112	-0.147
-79.597	-81.213	0.105	0.034
-78.582	-39.360	-0.172	-0.089
-77.567	-167.203	0.347	0.014
-76.553	-103.837	0.087	-0.020
-75.538	31.013	0.088	-0.074
-74.524	-34.415	-0.250	0.134
-73.509	-151.443	0.363	-0.026
-72.494	-200.000	0.009	0.103
-71.480	140.517	-0.436	-0.564
-70.465	-68.317	0.157	-0.060
-69.451	-74.952	-0.299	0.105
-68.436	-21.798	0.082	-0.049
-67.422	-106.760	-0.306	-0.066
-66.407	800.000	-0.022	-0.077
-65.392	420.895	-0.118	-0.247
-64.378	272.866	0.117	0.202
-63.363	-68.892	0.282	-0.106
-62.349	-114.954	-0.181	-0.034
-61.334	37.442	-1.155	-1.002
-60.319	30.410	0.683	0.571
-59.305	-200.000	-0.153	-1.028
-58.290	328.721	0.533	1.002
-57.276	215.635	0.763	1.185
-56.261	-200.000	116.049	660.787
-55.246	527.715	1533.896	3538.173
-54.232	175.842	2707.137	3842.302
-53.217	108.705	2162.464	2527.113
-52.203	38.827	1598.754	1396.466
-51.188	30.245	1342.877	1121.319
-50.173	27.443	1304.994	1073.154
-49.159	55.480	1362.623	1289.964
-48.144	53.249	1376.334	1289.515
-47.130	30.493	1331.297	1112.955
-46.115	27.077	1313.036	1077.424
-45.100	26.868	1307.766	1071.824
-44.086	26.734	1305.652	1069.260
-43.071	26.801	1302.931	1067.384
-42.057	26.829	1300.747	1065.714
-41.042	26.729	1299.393	1063.979
-40.027	26.771	1297.864	1062.928
-39.013	26.891	1295.721	1061.835
-37.998	26.868	1293.986	1060.235
-36.984	26.888	1292.559	1059.143
-35.969	26.928	1290.881	1057.959
-34.954	26.981	1288.928	1056.624
-33.940	26.956	1287.605	1055.351
-32.925	26.987	1285.841	1054.042
-31.911	27.031	1284.744	1053.359
-30.896	26.892	1283.746	1051.693
-29.881	26.973	1282.049	1050.731
-28.867	27.049	1280.345	1049.728
-27.852	27.027	1279.285	1048.695
-26.838	27.121	1277.529	1047.754
-25.823	27.012	1276.586	1046.309
-24.809	27.040	1275.072	1045.187
-23.794	27.007	1273.871	1043.974
-22.779	27.137	1272.178	1043.293
-21.765	27.020	1271.624	1042.124
-20.750	27.028	1270.467	1041.178
-19.736	26.930	1268.743	1039.168
-18.721	26.974	1267.451	1038.318
-17.706	26.958	1266.863	1037.705
-16.692	26.791	1265.754	1035.798
-15.677	26.768	1264.416	1034.531
-14.663	26.900	1263.048	1034.122
-13.648	26.852	1261.948	1032.907
-12.633	26.927	1261.120	1032.617
-11.619	26.953	1260.303	1032.055
-10.604	26.840	1259.380	1030.618
-9.590	26.865	1258.303	1029.836
-8.575	26.934	1257.191	1029.276
-7.560	26.814	1256.966	1028.368
-6.546	26.893	1255.391	1027.491
-5.531	26.854	1254.793	1026.738
-4.517	26.858	1254.003	1026.071
-3.502	26.949	1252.715	1025.494
-2.487	26.881	1252.412	1024.822
-1.473	26.890	1247.827	1021.077
-0.458	25.459	1232.554	1000.576
0.556	22.310	1215.617	963.216
1.571	18.682	1221.155	947.524
2.586	17.766	1236.116	953.927
3.600	17.327	1224.693	942.597
4.615	12.944	1152.579	864.103
5.629	6.430	1081.177	778.397
6.644	3.508	1063.644	751.486
7.659	3.334	1060.938	748.663
8.673	3.348	1060.069	748.051
9.688	3.371	1059.049	747.376
10.702	3.581	1056.561	746.572
11.717	7.430	1061.180	768.442
12.731	14.549	1072.016	810.942
13.746	18.887	1077.514	836.181
14.761	19.455	1077.753	839.056
15.775	18.844	1076.015	834.663
16.790	17.661	1074.031	827.307
17.804	17.115	1072.088	823.091
18.819	16.760	1071.201	820.618
19.834	16.650	1070.207	819.251
20.848	16.425	1070.004	817.935
21.863	16.056	1069.243	815.498
22.877	16.134	1068.113	814.941
23.892	16.037	1067.740	814.114
24.907	16.093	1066.738	813.547
25.921	16.129	1065.715	812.871
26.936	16.220	1063.916	811.864
27.950	16.041	1062.988	810.223
28.965	16.232	1061.361	809.827
29.980	16.357	1059.910	809.247
30.994	16.370	1058.676	808.297
32.009	16.472	1058.086	808.265
33.023	16.335	1057.058	806.750
34.038	16.233	1055.893	805.303
35.053	16.196	1054.987	804.366
36.067	16.105	1054.287	803.328
37.082	16.273	1053.228	803.249
38.096	16.180	1052.449	802.142
39.111	16.249	1051.580	801.736
40.126	16.235	1050.493	800.772
41.140	16.036	1049.182	798.755
42.155	15.943	1047.866	797.243
43.169	15.781	1046.979	795.734
44.184	15.971	1045.215	795.218
45.199	16.032	1044.485	794.880
46.213	15.913	1044.014	793.889
47.228	16.149	1042.956	794.128
48.242	16.202	1042.015	793.591
49.257	16.188	1041.198	792.833
50.271	16.276	1040.234	792.438
51.286	16.177	1039.515	791.360
52.301	16.226	1038.378	790.653
53.315	16.113	1037.029	789.025
54.330	16.077	1035.910	787.936
55.344	16.114	1035.076	787.407
56.359	16.037	1034.469	786.515
57.374	15.981	1033.406	785.377
58.388	15.918	1032.781	784.540
59.403	15.833	1031.992	783.475
60.417	15.835	1031.156	782.777
61.432	15.783	1030.730	782.146
62.447	15.721	1029.149	780.586
63.461	15.866	1028.248	780.509
64.476	15.864	1027.557	779.906
65.490	15.833	1026.483	778.879
66.505	15.774	1026.027	778.188
67.520	15.906	1025.105	778.031
68.534	15.828	1024.634	777.247
69.549	15.823	1023.634	776.395
70.563	15.701	1022.807	775.138
71.578	15.634	1021.989	774.141
72.593	15.723	1020.882	773.643
73.607	15.516	1020.691	772.474
74.622	15.618	1019.783	772.190
75.636	15.569	1019.816	771.922
76.651	15.702	1018.841	771.723
77.666	15.764	1017.870	771.204
78.680	15.820	1017.109	770.818
79.695	15.773	1016.770	770.278
80.709	15.785	1016.204	769.836
81.724	15.831	1015.866	769.721
82.739	16.073	1014.372	769.627
83.753	16.102	1013.835	769.284
84.768	16.323	1012.940	769.544
85.782	16.353	1012.555	769.318
86.797	16.328	1011.211	768.117
87.812	16.113	1010.704	766.685
88.826	16.194	1009.647	766.182
89.841	16.269	1008.761	765.784
90.855	16.349	1007.454	765.085
91.870	16.356	1006.565	764.374
92.884	16.226	1006.097	763.365
93.899	16.337	1005.051	763.006
94.914	16.352	1004.589	762.654
95.928	16.322	1003.937	761.955
96.943	16.360	1002.749	761.159
97.957	16.371	1001.447	760.152
98.972	16.305	1000.805	759.299
99.987	16.363	999.496	758.501
101.001	16.342	998.661	757.707
102.016	16.238	998.324	756.915
103.030	16.349	997.138	756.447
104.045	16.349	996.513	755.906
105.060	16.225	995.303	754.367
106.074	15.983	994.778	752.822
107.089	15.951	993.070	751.320
108.103	15.888	992.414	750.475
109.118	15.884	991.692	749.844
110.133	15.908	990.789	749.205
111.147	15.813	989.983	748.104
112.162	15.929	989.423	748.133
113.176	16.069	988.734	748.164
114.191	16.029	988.157	747.485
115.206	16.039	987.043	746.623
116.220	16.027	986.162	745.837
117.235	16.016	985.368	745.119
118.249	15.790	984.922	743.717
119.264	15.826	983.895	743.035
120.279	15.794	983.123	742.248
121.293	15.781	982.221	741.443
122.308	15.739	980.829	740.141
123.322	15.814	979.739	739.583
124.337	15.766	979.006	738.755
125.352	15.851	977.766	738.126
126.366	15.702	976.975	736.811
127.381	15.819	975.759	736.340
128.395	15.788	975.167	735.690
129.410	15.780	974.164	734.833
130.424	15.850	973.167	734.324
131.439	15.970	972.585	734.340
132.454	15.917	971.776	733.434
133.468	16.069	971.099	733.522
134.483	16.037	969.881	732.397
135.497	15.896	969.251	731.246
136.512	16.071	968.027	731.016
137.527	16.110	967.490	730.713
138.541	16.028	966.978	729.907
139.556	16.067	966.373	729.554
140.570	16.184	965.667	729.466
141.585	16.198	965.385	729.248
142.600	16.289	964.080	728.592
143.614	16.448	962.818	728.256
144.629	16.353	963.058	727.965
145.643	16.409	961.658	727.081
146.658	16.116	960.563	724.930
147.673	16.319	958.996	724.555
148.687	16.075	958.980	723.432
149.702	16.119	957.474	722.421
150.716	16.004	957.074	721.564
151.731	16.067	956.337	721.213
152.746	16.192	955.308	720.905
153.760	16.160	955.052	720.511
154.775	16.303	954.284	720.479
155.789	16.258	953.650	719.744
156.804	16.219	953.060	719.070
157.819	16.333	952.148	718.804
158.833	16.463	951.818	719.044
159.848	16.594	950.758	718.736
160.862	16.277	949.972	716.732
161.877	16.225	948.885	715.628
162.892	16.032	948.091	714.150
163.906	16.122	947.125	713.739
164.921	16.032	946.075	712.506
165.935	16.182	945.047	712.301
166.950	16.224	944.032	711.651
167.964	16.340	943.289	711.513
168.979	16.291	942.392	710.570
169.994	16.211	941.640	709.602
171.008	16.337	940.868	709.489
172.023	16.494	940.365	709.707
173.037	16.572	939.767	709.518
174.052	16.425	939.189	708.403
175.067	16.214	938.068	706.611
176.081	16.281	937.765	706.602
177.096	16.174	937.120	705.607
178.110	16.219	936.612	705.349
179.125	16.328	936.034	705.304
180.140	16.259	936.046	704.964
181.154	16.469	935.172	705.121
182.169	16.533	934.764	705.014
183.183	16.648	933.922	704.796
184.198	16.502	933.336	703.686
185.213	16.548	932.378	703.093
186.227	16.727	931.228	702.906
187.242	16.701	931.210	702.724
188.256	16.849	930.356	702.629
189.271	16.832	929.403	701.776
190.286	16.454	928.896	699.768
191.300	16.211	928.119	698.114
192.315	16.071	927.286	696.846
193.329	16.171	926.763	696.807
194.344	16.307	925.933	696.682
195.359	16.428	925.905	697.098
196.373	16.455	925.455	696.810
197.388	16.721	924.805	697.354
198.402	16.852	924.047	697.261
199.417	16.854	923.441	696.748
200.432	16.940	923.122	696.798
201.446	16.955	922.572	696.385
202.461	16.817	922.507	695.708
203.475	16.961	921.849	695.740
204.490	16.928	920.437	694.480
205.504	16.803	919.787	693.415
206.519	16.711	919.023	692.402
207.534	16.721	918.292	691.830
208.548	16.731	917.687	691.354
209.563	16.743	917.024	690.844
210.577	16.794	916.595	690.664
211.592	17.057	915.642	690.958
212.607	17.091	915.004	690.554
213.621	16.976	914.574	689.699
214.636	16.903	913.642	688.641
215.650	16.954	913.193	688.449
216.665	17.025	912.407	688.083
217.680	17.114	911.739	687.878
218.694	17.149	911.102	687.478
219.709	17.049	910.634	686.659
220.723	16.992	910.062	685.936
221.738	17.046	909.412	685.605
222.753	17.174	908.176	685.128
223.767	17.217	908.003	685.108
224.782	17.278	907.688	685.056
225.796	17.253	907.106	684.458
226.811	17.186	906.297	683.516
227.826	16.997	905.780	682.306
228.840	16.900	904.959	681.238
229.855	17.117	904.123	681.419
230.869	17.112	902.954	680.458
231.884	16.981	902.561	679.577
232.899	17.090	901.597	679.227
233.913	17.068	900.814	678.487
234.928	16.823	900.748	677.401
235.942	17.043	899.859	677.549
236.957	16.923	899.303	676.592
237.972	16.944	899.030	676.411
238.986	17.019	897.895	675.794
240.001	17.097	897.336	675.627
241.015	17.096	896.887	675.222
242.030	17.205	896.280	675.141
243.045	17.198	895.617	674.553
244.059	17.145	895.328	674.066
245.074	17.075	894.757	673.300
246.088	17.253	894.026	673.393
247.103	17.363	893.477	673.358
248.117	17.496	893.150	673.578
249.132	17.569	892.466	673.289
250.147	17.782	891.703	673.495
251.161	17.672	891.400	672.773
252.176	17.758	890.489	672.365
253.190	17.814	889.849	672.045
254.205	17.780	889.456	671.553
255.220	17.830	888.642	671.075
256.234	17.871	888.194	670.837
257.249	17.855	887.484	670.182
258.263	17.738	886.738	669.099
259.278	17.811	886.015	668.782
260.293	17.834	885.924	668.744
261.307	17.949	884.809	668.292
262.322	18.024	884.001	667.915
263.336	17.912	883.628	667.136
264.351	18.004	882.840	666.843
265.366	18.015	882.174	666.321
266.380	17.999	881.534	665.717
267.395	18.001	880.837	665.142
268.409	17.879	880.520	664.369
269.424	17.952	879.521	663.837
270.439	17.936	878.592	663.016
271.453	17.765	878.465	662.200
272.468	17.735	877.884	661.585
273.482	17.701	877.300	660.956
274.497	17.974	876.645	661.460
275.512	17.895	875.779	660.444
276.526	17.757	875.949	659.978
277.541	17.917	875.040	659.853
278.555	18.104	874.197	659.882
279.570	18.092	873.976	659.609
280.585	18.143	873.101	659.088
281.599	18.149	872.103	658.301
282.614	17.910	871.475	656.846
283.628	17.999	871.114	656.860
284.643	17.930	870.631	656.174
285.657	18.095	869.682	656.034
286.672	18.097	869.004	655.469
287.687	18.012	868.280	654.539
288.701	17.943	868.285	654.223
289.716	18.007	867.542	653.848
290.730	18.014	866.670	653.162
291.745	18.236	866.305	653.678
292.760	18.243	865.497	653.035
293.774	18.351	865.237	653.194
294.789	18.241	864.319	652.022
295.803	18.104	863.582	650.887
296.818	18.171	862.734	650.445
297.833	18.221	862.110	650.110
298.847	18.191	861.799	649.701
299.862	18.320	861.148	649.645
300.876	18.300	860.590	649.090
301.891	18.363	860.196	648.973
302.906	18.539	859.479	649.043
303.920	18.486	859.259	648.619
304.935	18.515	858.894	648.396
305.949	18.542	858.058	647.806
306.964	18.376	857.069	646.379
307.979	18.481	856.947	646.626
308.993	18.519	856.246	646.181
310.008	18.524	855.543	645.612
311.022	18.457	855.121	644.984
312.037	18.453	854.453	644.407
313.052	18.238	853.721	642.992
314.066	18.274	853.092	642.596
315.081	18.190	852.769	641.982
316.095	18.412	851.777	642.011
317.110	18.166	851.713	640.984
318.125	18.207	851.196	640.691
319.139	18.299	850.473	640.432
320.154	18.313	849.689	639.841
321.168	18.320	849.574	639.722
322.183	18.416	848.846	639.476
323.197	18.536	848.283	639.444
324.212	18.504	847.744	638.861
325.227	18.425	847.083	638.011
326.241	18.355	846.818	637.494
327.256	18.327	846.127	636.816
328.270	18.479	845.347	636.734
329.285	18.340	845.288	636.117
330.300	18.455	844.608	635.976
331.314	18.410	843.766	635.120
332.329	18.468	843.406	635.009
333.343	18.725	842.884	635.512
334.358	18.647	842.592	634.945
335.373	18.723	842.066	634.773
336.387	18.566	842.390	634.379
337.402	18.642	841.840	634.191
338.416	18.894	841.402	634.737
339.431	18.860	841.349	634.513
340.446	18.931	840.698	634.231
341.460	19.078	840.269	634.390
342.475	18.925	840.083	633.632
343.489	18.953	839.597	633.310
344.504	19.047	838.980	633.136
345.519	19.247	838.509	633.461
346.533	19.160	837.565	632.371
347.548	18.954	837.210	631.291
348.562	19.029	836.259	630.794
349.577	18.818	836.318	630.010
350.592	18.704	835.279	628.751
351.606	18.875	834.730	628.909
352.621	18.839	833.856	628.063
353.635	18.834	833.562	627.769
354.650	18.852	833.041	627.384
355.665	18.936	832.053	626.894
356.679	19.178	831.532	627.324
357.694	18.904	831.154	625.987
358.708	19.011	830.482	625.817
359.723	18.834	830.391	625.049
360.738	19.012	829.194	624.736
361.752	19.060	829.102	624.787
362.767	19.218	828.122	624.567
363.781	19.188	827.887	624.225
364.796	19.364	827.587	624.582
365.810	19.391	826.838	624.058
366.825	19.284	826.831	623.611
367.840	19.486	826.227	623.829
368.854	19.378	825.418	622.773
369.869	19.429	825.089	622.656
370.883	19.261	824.833	621.803
371.898	19.481	824.511	622.298
372.913	19.441	824.189	621.855
373.927	19.572	823.337	621.626
374.942	19.447	822.987	620.860
375.956	19.467	823.081	620.945
376.971	19.581	822.239	620.668
377.986	19.629	821.747	620.411
379.000	19.699	821.515	620.435
380.015	19.614	820.435	619.258
381.029	19.833	819.698	619.434
382.044	19.612	819.562	618.483
383.059	19.638	818.975	618.077
384.073	19.584	818.320	617.337
385.088	19.629	817.761	617.019
386.102	19.470	817.018	615.839
387.117	19.471	816.477	615.380
388.132	19.651	815.591	615.298
389.146	19.565	815.705	615.023
390.161	19.675	815.363	615.103
391.175	19.540	814.606	613.999
392.190	19.493	813.914	613.253
393.205	19.397	813.558	612.590
394.219	19.564	813.136	612.811
395.234	19.509	812.626	612.179
396.248	19.338	812.382	611.334
397.263	19.459	811.795	611.266
398.278	19.377	811.802	610.929
399.292	19.445	811.037	610.539
400.307	19.538	810.012	610.041
401.321	19.609	809.442	609.810
402.336	19.671	809.272	609.845
403.350	19.619	809.001	609.402
404.365	19.634	808.795	609.247
405.380	19.759	808.573	609.468
406.394	20.027	807.518	609.560
407.409	19.888	807.779	609.216
408.423	19.895	807.286	608.814
409.438	20.103	806.784	609.113
410.453	19.978	806.625	608.498
411.467	19.956	806.235	608.073
412.482	20.091	805.534	607.963
413.496	20.157	805.097	607.811
414.511	20.059	804.668	607.093
415.526	20.178	804.226	607.121
416.540	20.146	804.007	606.791
417.555	20.025	803.764	606.131
418.569	20.129	803.143	605.972
419.584	20.118	802.352	605.282
420.599	20.204	801.971	605.240
421.613	161.533	1373.458	1796.376
422.628	140.269	1456.708	1796.450
