DTS Sentinel unit serial number:	SN413079Multiplexer serial number:	ORYXHardware model number:	OX4-SRSoftware version number:	ORYX F/W v4.00 Oryx Data Collector v3.7.2.0data status	okinstallation	princeton_trtdifferential loss correction	single-endedforward channel	channel 1reverse channel	N/Adate	2019/09/11time	10:12:11forward acquisition time	60.00reverse acquisition time	0.00gamma	496.2192k internal	0.2300k external	0.2300temperature offset calibration	0.9953default loss term (dB/km)	0.3790temperature slope calibration	1.0000multiplexer offset coefficient	1.0000multiplexer slope coefficient	1.0000fibre end	0.00T internal ref (°C)	35.80T ext. ref 1 (°C)	0.14T ext. ref 2 (°C)	33.61length (m)	temperature (°C)	Stokes	anti-Stokes-747.200	472.732	0.109	-0.251
-746.185	-25.439	-0.039	0.024
-745.171	21.479	0.070	-0.058
-744.156	350.764	-0.084	-0.169
-743.142	-113.304	0.308	-0.062
-742.127	254.926	0.132	0.230
-741.112	-74.521	-0.208	0.076
-740.098	800.000	0.042	0.155
-739.083	-41.898	0.131	0.068
-738.069	-200.000	-0.006	-0.042
-737.054	-122.599	0.507	0.084
-736.039	-70.360	-0.345	0.133
-735.025	188.581	0.187	0.285
-734.010	-200.000	-0.016	0.180
-732.996	-200.000	0.061	-0.295
-731.981	-32.335	-0.093	0.053
-730.966	-200.000	0.027	-0.133
-729.952	123.559	-0.169	0.216
-728.937	195.180	-0.135	-0.208
-727.923	147.085	0.085	-0.116
-726.908	50.508	-0.243	-0.234
-725.894	-188.406	0.112	0.001
-724.879	-200.000	0.004	0.024
-723.864	-90.894	0.287	0.084
-722.850	135.888	0.198	-0.263
-721.835	348.462	0.194	-0.389
-720.821	-54.036	0.172	-0.080
-719.806	-200.000	0.014	-0.135
-718.791	-121.512	0.067	0.011
-717.777	425.092	-0.070	-0.153
-716.762	-60.053	0.196	-0.085
-715.748	800.000	0.051	-0.145
-714.733	-200.000	-0.012	0.074
-713.718	-200.000	-0.040	-0.317
-712.704	800.000	0.020	-0.075
-711.689	-200.000	-0.071	0.424
-710.675	78.143	-0.060	-0.065
-709.660	713.343	-0.104	0.281
-708.645	-53.064	0.215	-0.101
-707.631	800.000	-0.077	-0.286
-706.616	-80.659	-0.074	0.025
-705.602	-19.035	0.097	0.061
-704.587	-133.393	0.111	-0.014
-703.572	800.000	0.051	-0.176
-702.558	-57.030	0.212	-0.095
-701.543	472.477	0.058	0.133
-700.529	-56.337	0.183	-0.083
-699.514	-67.565	0.247	0.098
-698.499	-136.030	-0.224	-0.027
-697.485	-103.023	0.132	-0.032
-696.470	-200.000	-0.009	0.074
-695.456	-200.000	0.073	-0.525
-694.441	129.271	0.092	0.120
-693.426	-27.954	-0.023	0.013
-692.412	520.821	-0.036	0.085
-691.397	-200.000	0.009	-0.267
-690.383	-136.279	-0.150	-0.018
-689.368	79.540	0.097	0.106
-688.354	-138.568	-0.053	-0.006
-687.339	617.853	0.053	-0.136
-686.324	800.000	0.093	0.299
-685.310	-69.422	-0.173	0.067
-684.295	-81.532	-0.232	-0.078
-683.281	-121.814	0.328	-0.055
-682.266	-200.000	0.020	0.155
-681.251	69.511	-0.263	-0.276
-680.237	-59.304	-0.168	-0.074
-679.222	-89.615	-0.201	-0.060
-678.208	-94.686	0.483	0.134
-677.193	-200.000	0.017	0.122
-676.178	224.327	-0.077	0.126
-675.164	-176.206	-0.054	0.001
-674.149	-200.000	0.031	0.143
-673.135	133.249	-0.089	-0.116
-672.120	512.262	-0.093	-0.221
-671.105	-64.793	0.159	-0.066
-670.091	-11.839	-0.198	-0.132
-669.076	-86.226	0.201	-0.063
-668.062	-80.514	0.398	-0.135
-667.047	-105.862	-0.141	-0.032
-666.032	800.000	-0.112	-0.372
-665.018	341.453	-0.024	-0.048
-664.003	-40.036	-0.185	0.098
-662.989	588.971	-0.090	0.225
-661.974	247.717	-0.072	-0.123
-660.959	-116.770	0.263	-0.049
-659.945	-8.022	-0.099	0.068
-658.930	-200.000	0.003	-0.150
-657.916	-112.485	0.100	0.020
-656.901	800.000	0.044	0.165
-655.886	232.080	0.163	-0.272
-654.872	-56.353	0.143	-0.065
-653.857	663.524	0.122	-0.319
-652.843	127.636	0.165	-0.213
-651.828	-100.944	0.203	-0.051
-650.814	800.000	-0.101	0.323
-649.799	-200.000	-0.063	-0.515
-648.784	-74.876	-0.128	-0.047
-647.770	-95.326	-0.263	0.072
-646.755	144.397	-0.073	-0.099
-645.741	169.101	0.211	-0.307
-644.726	551.146	-0.078	0.189
-643.711	274.334	-0.068	0.123
-642.697	800.000	0.011	0.045
-641.682	-82.519	-0.172	-0.057
-640.668	196.087	0.119	-0.185
-639.653	-132.743	0.324	-0.042
-638.638	211.564	-0.107	0.170
-637.624	-63.036	-0.131	-0.055
-636.609	800.000	0.052	-0.152
-635.595	-31.114	-0.183	0.105
-634.580	-40.102	-0.198	-0.105
-633.565	800.000	-0.113	0.418
-632.551	-110.083	0.140	-0.030
-631.536	557.182	-0.110	0.269
-630.522	424.229	-0.032	-0.070
-629.507	106.398	-0.145	-0.175
-628.492	14.442	-0.385	-0.305
-627.478	-64.271	0.057	0.023
-626.463	-129.171	-0.176	0.025
-625.449	85.105	-0.033	0.037
-624.434	800.000	0.082	-0.275
-623.419	-154.872	0.268	0.018
-622.405	800.000	-0.040	0.129
-621.390	-172.893	0.118	0.004
-620.376	-200.000	-0.044	0.294
-619.361	-89.300	0.013	-0.004
-618.346	-200.000	-0.011	-0.267
-617.332	800.000	0.146	0.437
-616.317	-100.606	-0.328	-0.082
-615.303	-126.461	-0.160	0.024
-614.288	-39.547	-0.050	-0.026
-613.273	-106.491	-0.171	0.039
-612.259	-111.093	0.276	0.057
-611.244	36.779	-0.152	-0.136
-610.230	-200.000	0.024	-0.490
-609.215	-195.274	0.136	-0.001
-608.201	-7.011	0.241	0.166
-607.186	525.434	0.074	-0.177
-606.171	-200.000	0.009	-0.168
-605.157	145.297	-0.311	-0.423
-604.142	800.000	0.042	-0.153
-603.128	-200.000	0.026	0.294
-602.113	-200.000	-0.002	-0.094
-601.098	-175.950	0.077	-0.002
-600.084	-54.234	-0.131	0.060
-599.069	-69.173	-0.190	-0.074
-598.055	191.817	-0.081	0.124
-597.040	78.320	-0.181	0.196
-596.025	-122.342	0.185	-0.031
-595.011	-200.000	0.004	0.166
-593.996	-181.899	0.172	-0.003
-592.982	-99.542	-0.213	-0.054
-591.967	800.000	-0.028	-0.098
-590.952	-73.082	-0.268	0.100
-589.938	634.924	-0.066	0.171
-588.923	-70.574	-0.428	-0.164
-587.909	-40.969	-0.208	0.109
-586.894	661.693	-0.086	-0.224
-585.879	-23.544	0.114	-0.069
-584.865	-102.522	-0.106	0.026
-583.850	431.539	0.064	-0.141
-582.836	-132.816	-0.235	0.030
-581.821	351.220	-0.154	0.309
-580.806	-70.594	0.113	-0.043
-579.792	-185.574	0.276	0.004
-578.777	-200.000	0.018	-0.109
-577.763	248.035	0.079	-0.135
-576.748	-121.459	-0.374	0.063
-575.733	-92.409	-0.208	-0.059
-574.719	-69.594	-0.426	0.165
-573.704	-26.858	0.048	-0.028
-572.690	226.947	-0.112	0.185
-571.675	-200.000	0.025	-0.378
-570.661	-131.873	-0.076	0.010
-569.646	118.583	0.126	0.157
-568.631	-91.383	-0.303	-0.088
-567.617	-200.000	-0.008	0.370
-566.602	82.389	-0.169	0.186
-565.588	-58.243	0.193	-0.085
-564.573	117.020	0.191	0.237
-563.558	-1.678	0.156	-0.111
-562.544	-25.655	-0.009	-0.005
-561.529	-78.160	-0.299	0.104
-560.515	800.000	0.093	0.326
-559.500	-41.468	-0.081	-0.042
-558.485	149.071	0.132	-0.181
-557.471	-139.024	0.294	0.032
-556.456	-104.858	-0.218	0.051
-555.442	23.603	0.102	-0.085
-554.427	272.442	0.091	-0.163
-553.412	-76.071	-0.251	-0.090
-552.398	59.133	-0.156	0.155
-551.383	-97.215	-0.314	-0.083
-550.369	48.366	-0.022	-0.021
-549.354	48.238	0.148	0.140
-548.339	492.478	-0.069	-0.161
-547.325	72.844	-0.049	-0.051
-546.310	401.437	-0.050	0.107
-545.296	-31.724	0.257	0.146
-544.281	-62.014	0.282	-0.119
-543.266	172.775	0.094	-0.137
-542.252	-10.377	0.218	0.146
-541.237	-5.779	-0.053	0.037
-540.223	-192.245	-0.401	-0.004
-539.208	121.437	-0.191	-0.241
-538.193	-200.000	0.048	-0.235
-537.179	-140.689	-0.202	0.021
-536.164	-144.260	-0.058	-0.005
-535.150	-200.000	0.010	-0.061
-534.135	-200.000	-0.010	-0.110
-533.121	-134.103	0.137	0.017
-532.106	-58.165	0.300	-0.132
-531.091	-200.000	0.319	0.001
-530.077	-200.000	-0.038	-0.383
-529.062	-51.998	0.328	-0.154
-528.048	-200.000	-0.018	0.144
-527.033	-200.000	-0.026	-0.366
-526.018	-200.000	0.039	-0.194
-525.004	60.011	0.120	0.120
-523.989	-103.966	0.266	-0.063
-522.975	372.827	-0.010	-0.022
-521.960	88.817	0.100	0.112
-520.945	-65.054	-0.176	-0.072
-519.931	114.867	0.198	-0.244
-518.916	-200.000	0.017	0.094
-517.902	93.230	-0.099	0.113
-516.887	-10.021	0.192	-0.129
-515.872	521.509	0.103	0.245
-514.858	195.392	0.143	0.220
-513.843	238.099	0.049	-0.082
-512.829	-78.183	0.265	-0.092
-511.814	6.473	0.101	-0.076
-510.799	800.000	0.047	-0.182
-509.785	686.064	-0.065	-0.170
-508.770	-188.509	-0.169	-0.002
-507.756	800.000	-0.122	0.393
-506.741	26.468	0.147	-0.124
-505.726	-200.000	-0.034	-0.238
-504.712	-47.799	0.293	0.143
-503.697	800.000	0.077	-0.239
-502.683	0.371	0.257	-0.185
-501.668	410.838	-0.029	0.063
-500.653	122.737	0.210	0.266
-499.639	11.430	0.127	-0.098
-498.624	-40.856	0.236	-0.123
-497.610	-200.000	-0.047	-0.253
-496.595	84.334	-0.170	0.188
-495.581	225.723	-0.148	0.243
-494.566	-117.820	-0.102	-0.018
-493.551	-122.078	-0.029	-0.005
-492.537	-40.205	-0.114	0.060
-491.522	-200.000	0.005	-0.083
-490.508	-200.000	0.020	0.120
-489.493	-133.210	-0.381	-0.049
-488.478	800.000	-0.014	-0.056
-487.464	218.014	0.058	-0.094
-486.449	114.913	0.237	0.292
-485.435	37.101	-0.103	0.092
-484.420	277.331	-0.165	-0.297
-483.405	-100.482	0.279	0.070
-482.391	-200.000	0.045	-0.249
-481.376	-149.128	0.044	-0.004
-480.362	-200.000	0.002	-0.467
-479.347	-116.582	-0.454	0.084
-478.332	-60.914	0.165	-0.070
-477.318	140.015	0.108	-0.144
-476.303	-77.310	-0.202	0.071
-475.289	-200.000	0.048	-0.227
-474.274	-81.075	-0.198	-0.066
-473.259	-200.000	-0.034	0.209
-472.245	-97.112	0.372	0.098
-471.230	22.243	0.394	0.325
-470.216	299.026	-0.102	0.189
-469.201	-129.046	0.106	0.015
-468.186	92.839	-0.058	-0.066
-467.172	-53.811	0.118	-0.054
-466.157	-200.000	0.014	-0.194
-465.143	-129.410	0.164	0.023
-464.128	-36.653	-0.223	-0.121
-463.113	128.446	-0.081	0.104
-462.099	-32.256	-0.166	0.093
-461.084	-78.756	0.208	-0.072
-460.070	-71.875	-0.154	-0.058
-459.055	-200.000	0.015	0.122
-458.040	39.349	0.199	0.179
-457.026	-187.823	-0.326	-0.004
-456.011	-200.000	-0.016	0.077
-454.997	121.925	-0.191	-0.241
-453.982	792.050	0.113	-0.313
-452.968	-200.000	0.006	0.345
-451.953	-4.656	0.375	0.261
-450.938	-200.000	0.026	0.136
-449.924	-54.076	-0.207	-0.095
-448.909	145.400	0.138	-0.186
-447.895	319.635	-0.211	0.403
-446.880	-46.872	0.127	0.062
-445.865	800.000	-0.020	-0.084
-444.851	-107.706	-0.130	-0.029
-443.836	61.241	-0.162	-0.162
-442.822	24.154	0.065	-0.054
-441.807	800.000	-0.052	-0.194
-440.792	-164.762	0.118	0.005
-439.778	-162.600	0.112	-0.006
-438.763	799.897	-0.118	-0.327
-437.749	184.177	-0.173	-0.258
-436.734	-200.000	0.076	-0.366
-435.719	-96.933	0.258	0.068
-434.705	12.800	0.203	0.158
-433.690	-200.000	0.004	-0.122
-432.676	-78.242	0.313	0.108
-431.661	-49.488	0.123	0.059
-430.646	212.931	0.060	0.095
-429.632	800.000	-0.032	-0.103
-428.617	-127.027	-0.039	0.006
-427.603	43.676	-0.418	0.385
-426.588	-200.000	0.023	0.202
-425.573	-105.644	-0.230	-0.052
-424.559	466.506	0.073	0.165
-423.544	800.000	-0.052	0.223
-422.530	-200.000	-0.027	-0.123
-421.515	465.352	0.068	0.153
-420.500	-200.000	0.023	0.154
-419.486	74.312	-0.104	-0.110
-418.471	114.727	0.088	-0.108
-417.457	-97.577	-0.091	0.024
-416.442	-105.529	-0.247	-0.057
-415.428	-104.484	0.529	-0.123
-414.413	302.712	-0.139	-0.259
-413.398	-101.330	-0.096	0.024
-412.384	-105.111	0.302	-0.070
-411.369	127.189	0.147	0.188
-410.355	-75.847	0.030	0.011
-409.340	800.000	-0.031	0.137
-408.325	800.000	0.042	-0.122
-407.311	-133.033	0.185	-0.024
-406.296	8.522	0.191	0.145
-405.282	199.959	-0.107	0.165
-404.267	-43.467	-0.268	0.136
-403.252	608.505	-0.053	0.134
-402.238	-140.228	0.419	-0.044
-401.223	119.469	-0.168	0.209
-400.209	271.541	-0.193	0.342
-399.194	193.944	-0.050	0.075
-398.179	45.063	0.306	-0.283
-397.165	326.017	-0.135	-0.259
-396.150	-200.000	0.112	-0.000
-395.136	-119.133	-0.049	0.009
-394.121	-155.532	0.091	-0.006
-393.106	81.104	0.094	0.102
-392.092	-29.568	-0.118	0.068
-391.077	-200.000	0.027	0.205
-390.063	20.515	-0.231	-0.188
-389.048	800.000	0.111	-0.394
-388.033	-200.000	0.009	0.094
-387.019	-200.000	0.010	0.069
-386.004	19.776	-0.107	0.087
-384.990	-164.232	0.124	0.006
-383.975	63.460	0.295	0.298
-382.960	-87.317	0.118	0.036
-381.946	-75.869	-0.065	-0.023
-380.931	-200.000	0.026	0.151
-379.917	800.000	0.026	0.099
-378.902	-27.060	0.187	-0.110
-377.888	-62.872	0.162	-0.067
-376.873	800.000	-0.118	0.364
-375.858	-200.000	0.024	-0.334
-374.844	374.031	-0.035	-0.072
-373.829	184.047	-0.157	-0.234
-372.815	-124.180	0.039	0.006
-371.800	95.479	0.168	0.193
-370.785	79.343	-0.082	0.088
-369.771	-48.475	0.258	-0.125
-368.756	250.012	0.019	-0.032
-367.742	-91.492	0.092	-0.026
-366.727	-90.635	-0.147	0.043
-365.712	-200.000	0.060	-0.358
-364.698	-75.518	0.051	-0.018
-363.683	-56.590	-0.214	0.095
-362.669	183.252	0.093	0.138
-361.654	-119.783	0.222	-0.038
-360.639	-29.358	-0.159	0.091
-359.625	800.000	0.078	-0.225
-358.610	522.683	-0.115	0.272
-357.596	-154.091	-0.044	0.003
-356.581	224.195	-0.081	-0.132
-355.566	-166.195	-0.178	0.008
-354.552	56.996	-0.280	-0.274
-353.537	800.000	0.030	0.133
-352.523	-129.490	-0.160	-0.022
-351.508	-18.156	0.236	0.148
-350.493	-143.897	-0.230	0.022
-349.479	147.964	-0.135	0.183
-348.464	-200.000	-0.008	-0.103
-347.450	313.460	0.043	0.081
-346.435	-122.418	-0.044	-0.007
-345.420	-13.016	0.110	0.072
-344.406	-119.148	-0.229	0.040
-343.391	-193.395	0.067	-0.001
-342.377	-200.000	0.037	0.265
-341.362	59.156	-0.036	0.035
-340.348	-200.000	0.148	-0.001
-339.333	-135.209	0.146	-0.018
-338.318	-23.877	-0.289	-0.174
-337.304	672.693	-0.016	-0.042
-336.289	-200.000	-0.001	-0.280
-335.275	20.345	0.112	-0.091
-334.260	-135.534	0.048	0.006
-333.245	-65.689	-0.121	-0.049
-332.231	-100.399	-0.065	-0.016
-331.216	205.809	-0.084	0.131
-330.202	-200.000	-0.025	-0.171
-329.187	33.826	0.104	0.091
-328.172	-94.450	-0.204	-0.056
-327.158	800.000	-0.044	0.154
-326.143	-135.627	0.064	0.008
-325.129	-117.311	0.058	0.011
-324.114	-200.000	-0.033	0.265
-323.099	-83.388	-0.246	-0.079
-322.085	119.694	-0.033	0.041
-321.070	-200.000	-0.026	0.195
-320.056	-13.299	0.181	0.118
-319.041	170.976	-0.237	0.340
-318.026	191.992	0.048	-0.072
-317.012	-137.205	0.104	-0.012
-315.997	-102.903	0.132	0.032
-314.983	-10.261	-0.116	0.077
-313.968	60.282	0.221	0.219
-312.953	-104.742	0.338	0.078
-311.939	109.887	0.053	-0.063
-310.924	-178.931	0.307	-0.007
-309.910	800.000	-0.094	-0.293
-308.895	531.595	-0.044	0.104
-307.880	-74.257	-0.150	-0.054
-306.866	10.448	-0.197	0.150
-305.851	-69.941	-0.139	0.053
-304.837	-200.000	-0.005	0.230
-303.822	-76.065	0.177	0.063
-302.807	41.831	-0.197	-0.179
-301.793	800.000	-0.091	-0.279
-300.778	88.799	0.064	-0.072
-299.764	236.409	-0.053	-0.087
-298.749	73.416	0.139	0.145
-297.735	-200.000	0.047	0.378
-296.720	285.077	0.071	0.128
-295.705	800.000	0.049	0.171
-294.691	517.466	0.109	0.255
-293.676	-69.664	0.216	-0.083
-292.662	-79.523	-0.106	-0.036
-291.647	-118.831	-0.228	0.040
-290.632	-200.000	0.004	0.049
-289.618	-83.106	0.471	-0.152
-288.603	-11.324	0.276	-0.182
-287.589	800.000	0.044	-0.158
-286.574	-70.731	0.263	-0.099
-285.559	-200.000	-0.020	0.214
-284.545	-200.000	-0.025	-0.227
-283.530	-200.000	-0.005	-0.286
-282.516	-200.000	0.049	-0.233
-281.501	-155.989	-0.120	-0.008
-280.486	-161.534	0.239	0.012
-279.472	800.000	0.121	-0.500
-278.457	-200.000	0.009	0.198
-277.443	276.689	0.162	-0.288
-276.428	-114.744	0.171	0.033
-275.413	157.210	0.148	0.205
-274.399	260.572	-0.101	0.175
-273.384	258.003	0.039	-0.067
-272.370	106.267	0.091	-0.108
-271.355	-166.945	-0.276	-0.011
-270.340	93.999	0.148	0.168
-269.326	-5.788	-0.426	-0.292
-268.311	-200.000	0.037	-0.169
-267.297	-200.000	0.010	-0.062
-266.282	349.629	0.113	0.223
-265.267	-200.000	-0.011	0.111
-264.253	-126.108	-0.043	-0.007
-263.238	-200.000	0.004	0.179
-262.224	-128.989	0.112	-0.016
-261.209	-46.237	-0.175	-0.086
-260.195	432.807	-0.136	0.296
-259.180	106.749	-0.081	0.096
-258.165	161.322	0.042	0.059
-257.151	-14.853	-0.208	-0.134
-256.136	-120.708	-0.133	0.023
-255.122	800.000	0.020	0.068
-254.107	278.436	0.193	-0.345
-253.092	59.374	-0.169	0.166
-252.078	790.029	-0.083	0.228
-251.063	-166.012	0.082	0.004
-250.049	-200.000	0.004	0.022
-249.034	149.877	-0.086	0.116
-248.019	-74.842	-0.220	-0.079
-247.005	509.594	-0.146	-0.339
-245.990	261.368	-0.192	-0.332
-244.976	-138.806	-0.098	-0.011
-243.961	18.639	0.064	-0.051
-242.946	-200.000	-0.044	-0.255
-241.932	800.000	-0.031	-0.111
-240.917	-139.360	-0.054	-0.006
-239.903	246.183	-0.168	-0.284
-238.888	-109.305	0.205	0.043
-237.873	696.919	0.021	0.056
-236.859	800.000	0.041	0.120
-235.844	221.781	0.050	-0.080
-234.830	-81.942	-0.193	0.063
-233.815	114.768	0.061	-0.074
-232.800	-200.000	0.048	0.417
-231.786	96.072	0.019	-0.021
-230.771	-126.007	-0.059	0.009
-229.757	-200.000	0.400	0.001
-228.742	800.000	0.016	0.068
-227.727	-200.000	-0.070	0.385
-226.713	-157.900	0.074	0.004
-225.698	382.260	-0.056	0.115
-224.684	167.591	-0.107	-0.152
-223.669	-91.219	-0.321	-0.092
-222.655	17.115	0.213	0.169
-221.640	-200.000	-0.026	-0.146
-220.625	-200.000	-0.002	0.053
-219.611	800.000	-0.009	-0.030
-218.596	-43.965	0.255	0.128
-217.582	-52.788	-0.203	0.093
-216.567	123.199	0.168	0.211
-215.552	-25.159	0.134	-0.079
-214.538	103.074	0.274	0.321
-213.523	106.189	0.176	0.208
-212.509	-55.465	-0.258	-0.116
-211.494	800.000	0.053	-0.231
-210.479	-27.481	0.114	-0.066
-209.465	-56.952	0.402	0.177
-208.450	768.823	-0.055	0.148
-207.436	-100.182	-0.532	0.132
-206.421	-200.000	0.043	-0.284
-205.406	170.968	0.211	-0.302
-204.392	195.725	0.118	0.179
-203.377	800.000	-0.082	-0.343
-202.363	-74.972	0.370	0.132
-201.348	800.000	-0.108	-0.330
-200.333	-97.595	0.234	0.061
-199.319	800.000	-0.059	0.215
-198.304	-200.000	-0.035	0.234
-197.290	-200.000	-0.045	-0.277
-196.275	-23.888	-0.144	0.086
-195.260	-42.962	-0.102	-0.051
-194.246	365.195	0.030	0.060
-193.231	-106.156	-0.077	0.017
-192.217	-63.318	-0.380	0.156
-191.202	-7.231	0.117	0.079
-190.187	24.916	0.298	0.247
-189.173	-118.627	-0.253	-0.045
-188.158	542.163	-0.043	0.102
-187.144	-76.154	0.244	0.086
-186.129	-142.624	0.174	-0.017
-185.114	-200.000	-0.035	-0.271
-184.100	-26.887	-0.139	0.081
-183.085	-11.702	-0.194	0.127
-182.071	-160.929	-0.064	0.003
-181.056	-200.000	0.029	0.347
-180.042	-91.562	0.310	-0.088
-179.027	-88.797	-0.165	-0.049
-178.012	16.630	-0.157	0.124
-176.998	178.821	-0.125	0.182
-175.983	347.478	0.143	0.281
-174.969	-60.137	-0.030	0.013
-173.954	-11.356	-0.246	0.161
-172.939	-200.000	-0.005	-0.035
-171.925	800.000	0.071	-0.222
-170.910	82.104	0.229	0.247
-169.896	-200.000	-0.322	-0.001
-168.881	46.652	0.219	0.202
-167.866	38.026	0.081	-0.072
-166.852	-136.268	-0.201	-0.023
-165.837	-200.000	-0.005	0.302
-164.823	-148.306	-0.325	-0.027
-163.808	78.754	0.123	0.132
-162.793	-13.346	0.204	-0.132
-161.779	-71.828	-0.214	0.080
-160.764	-132.096	0.210	-0.027
-159.750	-196.780	0.307	0.002
-158.735	564.471	-0.064	-0.156
-157.720	-27.895	-0.242	0.140
-156.706	101.393	0.160	-0.186
-155.691	393.239	-0.064	0.133
-154.677	-140.810	-0.026	-0.003
-153.662	659.825	0.082	-0.210
-152.647	-200.000	0.000	-0.002
-151.633	-200.000	-0.012	-0.339
-150.618	349.608	0.151	0.297
-149.604	-122.565	-0.107	0.017
-148.589	173.429	0.065	0.094
-147.574	-142.467	-0.272	0.027
-146.560	39.501	0.243	-0.217
-145.545	-5.875	0.125	-0.085
-144.531	608.389	0.048	-0.119
-143.516	-60.074	0.077	-0.033
-142.502	-198.937	0.326	-0.002
-141.487	-43.104	0.266	-0.134
-140.472	-95.919	0.124	-0.033
-139.458	195.424	-0.236	-0.358
-138.443	800.000	-0.061	-0.262
-137.429	-200.000	0.011	0.244
-136.414	52.488	0.299	-0.285
-135.399	96.190	0.044	0.050
-134.385	-200.000	0.017	-0.180
-133.370	-200.000	-0.024	-0.220
-132.356	516.685	-0.187	-0.434
-131.341	65.721	0.205	0.207
-130.326	-126.503	-0.260	-0.038
-129.312	-200.000	0.039	0.184
-128.297	800.000	-0.060	0.249
-127.283	-37.972	0.142	-0.075
-126.268	-137.044	0.271	0.031
-125.253	-144.420	-0.083	0.008
-124.239	21.226	-0.231	-0.187
-123.224	679.615	-0.058	0.151
-122.210	-115.049	0.264	-0.050
-121.195	-12.845	-0.259	0.168
-120.180	800.000	0.053	0.226
-119.166	-200.000	0.029	-0.306
-118.151	111.273	-0.116	0.139
-117.137	-47.767	0.051	0.024
-116.122	153.350	0.074	-0.101
-115.107	-78.293	0.339	-0.116
-114.093	259.085	0.168	0.288
-113.078	15.625	0.385	-0.301
-112.064	-200.000	0.000	0.217
-111.049	-32.416	-0.261	-0.145
-110.034	-200.000	-0.040	0.217
-109.020	-95.106	0.326	0.088
-108.005	307.896	-0.130	-0.242
-106.991	800.000	0.066	0.223
-105.976	-200.000	0.017	0.223
-104.962	-114.538	0.095	-0.018
-103.947	179.652	-0.080	0.116
-102.932	127.793	0.196	0.247
-101.918	248.770	0.049	0.083
-100.903	293.788	0.112	-0.204
-99.889	-200.000	-0.003	-0.227
-98.874	800.000	-0.089	0.264
-97.859	-200.000	0.050	0.299
-96.845	800.000	0.052	0.160
-95.830	49.049	0.023	0.021
-94.816	-200.000	0.021	0.136
-93.801	-115.800	-0.246	-0.046
-92.786	-134.713	0.332	0.040
-91.772	333.690	-0.135	0.259
-90.757	-117.132	-0.280	0.051
-89.743	-65.525	0.016	-0.006
-88.728	211.984	0.204	0.320
-87.713	75.929	-0.050	0.052
-86.699	-42.313	-0.103	0.052
-85.684	-105.135	0.108	-0.024
-84.670	47.768	-0.136	0.126
-83.655	335.976	0.113	0.217
-82.640	-39.000	-0.023	-0.012
-81.626	800.000	-0.043	0.118
-80.611	-85.342	0.220	0.068
-79.597	220.627	-0.124	-0.198
-78.582	-200.000	0.086	0.387
-77.567	62.715	0.262	0.260
-76.553	-132.166	0.482	0.062
-75.538	315.553	-0.182	0.342
-74.524	-200.000	-0.019	0.297
-73.509	-135.747	0.159	-0.019
-72.494	-136.924	0.088	0.010
-71.480	84.830	-0.203	-0.221
-70.465	-37.412	-0.095	-0.051
-69.451	-16.429	0.178	0.112
-68.436	800.000	0.022	0.079
-67.422	-151.698	0.087	0.006
-66.407	-174.051	0.282	-0.008
-65.392	-44.906	0.175	0.087
-64.378	-35.363	-0.156	-0.084
-63.363	-109.296	-0.378	-0.080
-62.349	-97.695	-0.203	-0.052
-61.334	-7.755	-0.883	-0.593
-60.319	-200.000	0.083	0.509
-59.305	800.000	-0.138	-0.548
-58.290	218.919	0.561	0.890
-57.276	800.000	0.566	1.623
-56.261	-200.000	88.957	501.339
-55.246	538.114	1368.822	3230.171
-54.232	184.336	2608.638	3835.765
-53.217	114.952	2220.964	2689.962
-52.203	46.582	1666.806	1535.802
-51.188	39.055	1396.983	1239.862
-50.173	35.915	1352.650	1181.240
-49.159	55.175	1398.272	1341.619
-48.144	59.611	1416.403	1386.624
-47.130	39.694	1373.421	1222.721
-46.115	35.889	1356.471	1184.225
-45.100	35.871	1350.804	1179.121
-44.086	35.650	1348.847	1176.015
-43.071	35.597	1346.240	1173.372
-42.057	35.591	1343.758	1171.127
-41.042	35.715	1342.274	1170.539
-40.027	35.773	1340.871	1169.623
-39.013	35.714	1338.540	1167.183
-37.998	35.844	1336.652	1166.283
-36.984	35.818	1335.134	1164.755
-35.969	35.729	1333.593	1162.824
-34.954	35.912	1331.258	1161.848
-33.940	35.885	1329.782	1160.352
-32.925	35.899	1328.390	1159.173
-31.911	35.917	1327.097	1158.105
-30.896	35.911	1325.662	1156.773
-29.881	35.939	1324.087	1155.523
-28.867	35.857	1322.844	1153.895
-27.852	35.968	1321.167	1153.056
-26.838	35.936	1319.722	1151.557
-25.823	35.925	1318.354	1150.252
-24.809	35.878	1316.975	1148.720
-23.794	35.881	1315.336	1147.264
-22.779	35.883	1314.333	1146.356
-21.765	35.850	1312.689	1144.680
-20.750	35.862	1311.140	1143.359
-19.736	35.793	1310.194	1142.074
-18.721	35.739	1308.852	1140.539
-17.706	35.763	1307.153	1139.153
-16.692	35.779	1306.085	1138.273
-15.677	35.838	1305.111	1137.732
-14.663	35.806	1303.995	1136.523
-13.648	35.723	1303.062	1135.174
-12.633	35.684	1301.846	1133.838
-11.619	35.616	1301.425	1133.025
-10.604	35.585	1300.526	1132.020
-9.590	35.541	1299.491	1130.813
-8.575	35.686	1298.347	1130.626
-7.560	35.668	1297.692	1129.906
-6.546	35.663	1296.839	1129.090
-5.531	35.828	1295.555	1128.891
-4.517	35.750	1294.884	1127.805
-3.502	35.710	1293.634	1126.437
-2.487	35.734	1292.749	1125.765
-1.473	35.793	1289.002	1122.799
-0.458	34.919	1274.897	1105.423
0.556	30.204	1256.264	1068.949
1.571	27.003	1260.868	1054.223
2.586	26.063	1276.429	1061.610
3.600	24.829	1264.272	1044.210
4.615	17.083	1185.722	936.677
5.629	5.423	1103.484	811.435
6.644	0.498	1080.711	769.550
7.659	0.135	1078.142	765.807
8.673	-0.029	1076.970	764.074
9.688	-0.054	1075.255	762.663
10.702	0.471	1073.748	764.185
11.717	7.564	1085.002	808.330
12.731	17.912	1099.718	872.358
13.746	21.798	1104.272	895.788
14.761	22.081	1104.475	897.322
15.775	22.008	1103.995	896.479
16.790	21.719	1103.254	894.325
17.804	21.797	1102.270	893.845
18.819	21.831	1102.223	893.900
19.834	22.002	1101.567	894.162
20.848	21.988	1101.038	893.579
21.863	21.959	1100.582	892.983
22.877	21.960	1099.345	891.904
23.892	21.766	1098.899	890.477
24.907	21.870	1098.079	890.267
25.921	21.935	1097.042	889.674
26.936	21.923	1095.718	888.459
27.950	21.749	1094.444	886.467
28.965	21.625	1092.412	884.118
29.980	21.718	1090.595	883.037
30.994	22.063	1089.395	883.724
32.009	21.904	1088.608	882.210
33.023	21.752	1087.291	880.301
34.038	21.858	1086.475	880.096
35.053	21.979	1085.805	880.079
36.067	21.976	1084.845	879.209
37.082	21.911	1084.422	878.464
38.096	22.213	1083.368	879.040
39.111	22.132	1082.755	878.060
40.126	21.949	1081.378	875.953
41.140	21.715	1079.270	873.006
42.155	21.538	1077.757	870.821
43.169	21.579	1076.840	870.207
44.184	21.545	1076.026	869.304
45.199	21.394	1075.326	867.915
46.213	21.544	1074.133	867.615
47.228	21.577	1073.761	867.405
48.242	21.641	1072.902	866.947
49.257	21.826	1071.577	866.715
50.271	21.902	1070.524	866.166
51.286	21.990	1070.051	866.138
52.301	21.907	1069.102	864.882
53.315	21.862	1067.994	863.691
54.330	21.711	1067.600	862.551
55.344	21.837	1066.661	862.334
56.359	21.740	1065.443	860.796
57.374	21.622	1064.645	859.500
58.388	21.675	1063.404	858.682
59.403	21.615	1062.416	857.514
60.417	21.557	1061.411	856.344
61.432	21.518	1061.633	856.253
62.447	21.624	1061.026	856.207
63.461	21.657	1060.083	855.534
64.476	21.644	1058.503	854.119
65.490	21.564	1057.619	852.941
66.505	21.543	1057.329	852.528
67.520	21.612	1056.644	852.237
68.534	21.396	1055.152	849.905
69.549	21.111	1054.252	847.721
70.563	21.219	1053.069	847.221
71.578	21.236	1052.242	846.560
72.593	21.023	1051.626	844.959
73.607	21.247	1050.664	845.194
74.622	21.422	1050.791	846.071
75.636	21.588	1049.637	845.871
76.651	21.333	1048.779	843.873
77.666	21.229	1047.808	842.513
78.680	21.325	1047.400	842.575
79.695	21.414	1046.870	842.501
80.709	21.535	1046.185	842.459
81.724	21.531	1045.272	841.627
82.739	21.678	1044.183	841.386
83.753	21.813	1044.190	841.962
84.768	22.192	1043.129	842.852
85.782	22.177	1041.947	841.751
86.797	22.197	1040.822	840.864
87.812	21.949	1039.825	838.798
88.826	22.014	1039.341	838.642
89.841	22.016	1038.164	837.630
90.855	22.205	1036.938	837.466
91.870	21.967	1036.268	835.717
92.884	22.006	1034.975	834.784
93.899	21.904	1033.966	833.415
94.914	22.091	1033.013	833.458
95.928	21.908	1032.101	831.781
96.943	21.731	1030.758	829.791
97.957	21.432	1029.790	827.523
98.972	21.224	1028.705	825.594
99.987	21.652	1027.960	826.944
101.001	21.869	1026.968	827.095
102.016	21.720	1026.458	825.910
103.030	21.700	1025.361	824.860
104.045	21.565	1024.249	823.257
105.060	21.398	1023.089	821.466
106.074	21.592	1022.634	821.942
107.089	21.996	1021.732	823.039
108.103	21.755	1021.190	821.397
109.118	21.619	1019.879	819.636
110.133	21.594	1018.827	818.601
111.147	21.485	1017.574	817.010
112.162	21.364	1016.507	815.516
113.176	21.555	1016.046	815.967
114.191	21.486	1014.757	814.540
115.206	21.216	1013.615	812.295
116.220	21.188	1012.840	811.468
117.235	21.333	1012.053	811.442
118.249	21.400	1011.276	811.057
119.264	21.190	1010.686	809.539
120.279	21.281	1009.802	809.182
121.293	21.391	1008.853	808.856
122.308	21.262	1008.303	807.748
123.322	21.396	1006.374	806.751
124.337	21.211	1005.273	804.942
125.352	20.741	1003.513	801.299
126.366	20.637	1003.044	800.378
127.381	21.399	1002.685	803.523
128.395	21.746	1002.151	804.615
129.410	21.883	1001.199	804.410
130.424	21.880	1000.065	803.414
131.439	21.869	998.975	802.419
132.454	21.755	997.861	800.930
133.468	21.759	997.145	800.305
134.483	21.827	996.800	800.267
135.497	22.073	995.869	800.568
136.512	22.189	994.679	800.071
137.527	22.189	993.727	799.234
138.541	22.087	993.142	798.228
139.556	22.033	992.405	797.318
140.570	22.134	991.956	797.345
141.585	22.073	990.932	796.175
142.600	22.010	989.626	794.772
143.614	22.129	989.042	794.772
144.629	22.371	988.172	795.093
145.643	22.164	986.758	792.951
146.658	22.129	985.193	791.469
147.673	22.000	984.412	790.190
148.687	21.956	983.291	789.023
149.702	21.838	982.052	787.429
150.716	21.755	981.553	786.587
151.731	22.007	980.891	787.116
152.746	22.079	980.562	787.103
153.760	22.221	979.457	786.784
154.775	22.281	978.982	786.601
155.789	22.167	978.206	785.398
156.804	22.045	977.721	784.396
157.819	22.198	976.446	783.986
158.833	22.234	975.952	783.678
159.848	22.274	974.698	782.782
160.862	22.061	973.617	780.898
161.877	22.360	972.061	780.907
162.892	22.128	971.989	779.748
163.906	22.251	970.087	778.700
164.921	22.251	969.234	777.946
165.935	22.336	968.229	777.447
166.950	22.184	967.490	776.112
167.964	22.119	966.783	775.192
168.979	22.109	965.392	773.961
169.994	22.022	964.393	772.710
171.008	22.288	964.404	773.822
172.023	22.235	963.305	772.637
173.037	22.123	962.217	771.205
174.052	21.894	961.224	769.338
175.067	21.799	961.061	768.721
176.081	22.041	960.018	768.879
177.096	21.977	959.253	767.919
178.110	21.666	958.463	765.859
179.125	21.605	957.488	764.744
180.140	21.599	957.078	764.324
181.154	21.645	957.088	764.467
182.169	22.078	956.936	766.165
183.183	22.136	956.388	765.914
184.198	22.061	955.094	764.482
185.213	21.995	954.257	763.458
186.227	22.209	953.397	763.632
187.242	22.277	952.538	763.170
188.256	22.207	952.144	762.482
189.271	22.231	951.555	762.047
190.286	21.924	950.292	759.641
191.300	21.326	949.372	756.251
192.315	20.814	946.935	752.030
193.329	20.635	946.725	751.027
194.344	21.553	947.240	755.333
195.359	22.078	947.209	757.503
196.373	22.173	946.643	757.393
197.388	21.962	946.474	756.282
198.402	22.122	944.987	755.715
199.417	22.083	944.461	755.060
200.432	21.967	943.412	753.658
201.446	21.610	942.886	751.637
202.461	21.665	942.210	751.269
203.475	20.897	940.244	746.348
204.490	20.076	939.270	741.994
205.504	20.954	939.597	745.946
206.519	21.720	939.246	748.875
207.534	21.830	938.656	748.808
208.548	22.097	938.800	750.000
209.563	21.888	937.509	748.011
210.577	21.906	937.025	747.634
211.592	22.360	936.564	749.132
212.607	22.242	935.712	747.883
213.621	22.290	935.074	747.510
214.636	22.342	934.348	747.084
215.650	22.327	933.368	746.170
216.665	22.453	932.819	746.200
217.680	22.337	932.160	745.118
218.694	21.899	930.725	742.051
219.709	21.639	930.311	740.555
220.723	22.004	929.871	741.685
221.738	22.058	929.422	741.487
222.753	22.000	928.451	740.403
223.767	22.171	928.080	740.761
224.782	22.406	927.599	741.302
225.796	22.376	927.161	740.759
226.811	21.669	925.769	736.612
227.826	20.999	924.499	732.719
228.840	21.256	923.783	733.166
229.855	21.435	923.077	733.293
230.869	20.979	921.919	730.397
231.884	21.504	921.997	732.594
232.899	22.022	922.205	734.862
233.913	22.061	921.584	734.466
234.928	22.010	920.859	733.609
235.942	21.971	920.192	732.850
236.957	21.624	919.299	730.626
237.972	21.791	918.270	730.441
238.986	21.781	917.894	730.037
240.001	21.774	917.449	729.587
241.015	21.887	916.893	729.549
242.030	21.927	916.322	729.197
243.045	22.079	915.794	729.346
244.059	22.318	915.204	729.800
245.074	22.016	914.414	727.856
246.088	21.746	913.343	725.820
247.103	22.016	912.528	726.225
248.117	22.412	913.046	728.212
249.132	22.757	912.673	729.278
250.147	22.776	912.094	728.829
251.161	22.837	911.605	728.624
252.176	22.823	910.772	727.838
253.190	22.916	910.631	728.042
254.205	23.093	909.556	727.849
255.220	23.097	909.055	727.397
256.234	22.988	908.182	726.187
257.249	22.865	907.387	724.982
258.263	22.825	906.900	724.364
259.278	23.007	906.381	724.633
260.293	23.019	905.397	723.830
261.307	22.911	904.881	722.914
262.322	22.585	904.105	720.894
263.336	21.769	902.075	715.882
264.351	20.958	899.906	710.793
265.366	21.082	899.801	711.152
266.380	22.099	900.408	715.712
267.395	22.509	900.220	717.171
268.409	22.522	899.712	716.755
269.424	22.686	899.042	716.824
270.439	22.826	897.952	716.460
271.453	22.756	897.879	716.056
272.468	22.935	897.663	716.546
273.482	23.047	897.024	716.425
274.497	22.574	896.048	713.667
275.512	22.353	895.005	711.881
276.526	22.585	895.341	713.021
277.541	22.801	894.534	713.189
278.555	22.578	893.594	711.476
279.570	22.552	892.698	710.598
280.585	22.660	892.060	710.459
281.599	22.677	891.239	709.813
282.614	22.033	889.862	706.064
283.628	22.065	889.660	705.972
284.643	22.283	889.235	706.446
285.657	21.910	888.146	704.022
286.672	21.707	887.045	702.273
287.687	22.202	887.615	704.649
288.701	22.274	886.664	704.118
289.716	21.995	885.642	702.129
290.730	21.952	885.038	701.416
291.745	21.719	883.863	699.493
292.760	21.875	884.157	700.284
293.774	23.032	884.200	704.873
294.789	23.300	884.219	705.897
295.803	23.333	883.398	705.311
296.818	23.319	882.693	704.627
297.833	22.872	881.682	701.983
298.847	22.737	881.074	700.901
299.862	23.110	880.667	701.996
300.876	23.332	880.259	702.489
301.891	23.285	879.264	701.444
302.906	22.696	878.357	698.329
303.920	22.982	878.050	699.155
304.935	23.201	878.004	699.922
305.949	23.122	877.338	699.018
306.964	23.042	876.423	697.910
307.979	23.182	875.897	697.982
308.993	23.300	875.819	698.324
310.008	23.270	875.357	697.775
311.022	23.060	874.148	695.922
312.037	23.030	873.528	695.248
313.052	22.774	872.866	693.655
314.066	21.849	871.419	688.814
315.081	21.491	870.656	686.745
316.095	22.404	871.244	690.729
317.110	22.909	870.891	692.368
318.125	22.097	869.204	687.791
319.139	20.978	867.784	682.230
320.154	21.096	867.200	682.169
321.168	21.921	867.829	685.833
322.183	22.727	867.961	689.025
323.197	22.707	867.686	688.668
324.212	23.041	867.190	689.517
325.227	23.161	866.400	689.294
326.241	23.046	865.701	688.229
327.256	23.043	864.952	687.561
328.270	22.813	864.354	686.131
329.285	22.665	863.379	684.721
330.300	22.472	862.539	683.245
331.314	22.666	862.615	683.998
332.329	23.110	862.245	685.365
333.343	23.107	862.489	685.487
334.358	23.179	861.439	684.871
335.373	23.207	861.066	684.623
336.387	23.443	861.445	685.776
337.402	23.438	861.300	685.580
338.416	23.447	860.711	685.085
339.431	23.618	859.959	685.087
340.446	23.581	860.329	685.177
341.460	23.483	859.552	684.120
342.475	23.539	858.468	683.410
343.489	23.446	858.362	682.908
344.504	23.785	858.121	683.961
345.519	23.910	857.879	684.189
346.533	23.955	857.387	683.910
347.548	23.978	856.724	683.409
348.562	23.794	856.200	682.224
349.577	23.864	855.544	681.909
350.592	23.894	854.605	681.217
351.606	23.725	853.979	680.009
352.621	23.785	852.948	679.356
353.635	23.616	852.413	678.226
354.650	23.018	850.842	674.636
355.665	22.186	849.316	670.196
356.679	22.545	848.938	671.204
357.694	22.997	848.574	672.579
358.708	22.868	848.203	671.734
359.723	23.307	847.798	673.021
360.738	23.685	847.414	674.091
361.752	23.741	847.103	673.996
362.767	24.050	846.581	674.693
363.781	24.184	846.683	675.224
364.796	24.337	846.121	675.294
365.810	24.285	845.784	674.769
366.825	24.328	845.237	674.435
367.840	24.077	844.117	672.536
368.854	23.588	843.630	670.241
369.869	23.684	843.184	670.191
370.883	23.749	842.557	669.878
371.898	23.527	842.317	668.790
372.913	23.750	841.727	669.104
373.927	23.761	841.497	668.903
374.942	23.967	840.946	669.179
375.956	24.023	840.585	669.044
376.971	24.156	839.910	668.947
377.986	24.254	839.977	669.308
379.000	24.268	839.253	668.727
380.015	24.117	838.444	667.456
381.029	24.126	838.365	667.366
382.044	24.277	837.731	667.369
383.059	24.235	837.101	666.650
384.073	24.169	836.479	665.849
385.088	23.974	836.319	664.934
386.102	24.069	834.984	664.170
387.117	23.977	834.524	663.401
388.132	23.583	833.371	660.958
389.146	23.287	832.290	658.943
390.161	23.557	832.208	659.823
391.175	23.914	832.274	661.146
392.190	23.709	830.835	659.182
393.205	22.426	828.607	652.602
394.219	20.754	827.364	645.373
395.234	20.785	827.125	645.244
396.248	22.329	828.683	652.132
397.263	23.845	829.404	658.259
398.278	23.834	828.902	657.761
399.292	23.519	828.228	656.005
400.307	23.675	827.528	655.969
401.321	23.579	827.237	655.323
402.336	23.969	827.418	656.849
403.350	24.392	827.474	658.398
404.365	24.654	826.963	658.899
405.380	24.925	826.216	659.245
406.394	25.005	825.723	659.084
407.409	24.991	825.261	658.608
408.423	24.876	825.086	657.985
409.438	25.024	824.731	658.189
410.453	25.039	824.120	657.699
411.467	24.916	823.512	656.703
412.482	25.011	823.160	656.713
413.496	25.024	823.039	656.607
414.511	25.058	822.422	656.179
415.526	24.877	821.909	655.052
416.540	24.793	821.018	653.974
417.555	24.495	820.376	652.319
418.569	24.703	820.093	652.794
419.584	24.738	819.366	652.286
420.599	24.401	819.181	650.852
421.613	151.438	1367.558	1789.409
422.628	131.817	1447.450	1789.520
