DTS Sentinel unit serial number:	SN413079Multiplexer serial number:	ORYXHardware model number:	OX4-SRSoftware version number:	ORYX F/W v4.00 Oryx Data Collector v3.7.2.0data status	okinstallation	princeton_trtdifferential loss correction	single-endedforward channel	channel 1reverse channel	N/Adate	2019/09/18time	22:02:35forward acquisition time	60.00reverse acquisition time	0.00gamma	496.2192k internal	0.2341k external	0.2341temperature offset calibration	1.0017default loss term (dB/km)	0.3790temperature slope calibration	1.0000multiplexer offset coefficient	1.0000multiplexer slope coefficient	1.0000fibre end	0.00T internal ref (°C)	24.56T ext. ref 1 (°C)	0.81T ext. ref 2 (°C)	18.29length (m)	temperature (°C)	Stokes	anti-Stokes-747.200	800.000	-0.111	0.344
-746.185	106.973	-0.062	-0.074
-745.171	261.866	0.031	0.053
-744.156	-200.000	-0.022	0.131
-743.142	338.453	0.204	-0.399
-742.127	-86.872	-0.329	-0.101
-741.112	-2.294	0.300	-0.211
-740.098	37.438	0.309	-0.275
-739.083	-200.000	0.371	-0.001
-738.069	-200.000	-0.013	0.075
-737.054	-56.800	0.154	-0.068
-736.039	61.597	-0.243	0.242
-735.025	477.798	0.156	-0.354
-734.010	137.518	-0.135	-0.177
-732.996	-55.473	-0.201	-0.090
-731.981	-200.000	-0.006	-0.213
-730.966	37.161	0.178	-0.158
-729.952	-200.000	-0.013	-0.430
-728.937	-18.871	-0.216	0.135
-727.923	200.945	-0.145	-0.224
-726.908	-46.902	-0.289	0.141
-725.894	189.002	-0.226	0.339
-724.879	-117.233	-0.276	0.050
-723.864	-55.415	-0.305	0.137
-722.850	-132.950	0.197	-0.025
-721.835	-57.785	-0.007	-0.003
-720.821	-20.411	-0.238	0.147
-719.806	113.546	-0.103	0.125
-718.791	-42.893	-0.214	0.109
-717.777	197.998	-0.137	0.210
-716.762	56.742	-0.298	0.290
-715.748	37.043	-0.166	0.147
-714.733	800.000	0.024	0.104
-713.718	189.398	-0.032	-0.048
-712.704	-44.386	-0.070	-0.035
-711.689	175.005	0.088	-0.128
-710.675	-15.834	-0.290	-0.185
-709.660	-200.000	0.035	0.209
-708.645	113.190	-0.125	0.152
-707.631	-200.000	-0.013	-0.073
-706.616	168.147	-0.147	-0.209
-705.602	-152.002	0.069	-0.005
-704.587	-200.000	0.019	-0.132
-703.572	352.313	0.159	-0.316
-702.558	5.236	0.091	0.067
-701.543	800.000	0.106	-0.293
-700.529	-44.405	-0.259	-0.130
-699.514	-89.896	-0.295	-0.086
-698.499	-200.000	-0.003	-0.171
-697.485	41.587	0.113	0.102
-696.470	-200.000	-0.011	0.250
-695.456	-200.000	-0.037	0.307
-694.441	285.431	0.055	-0.100
-693.426	-96.954	-0.240	-0.063
-692.412	472.015	0.130	-0.292
-691.397	-130.877	-0.161	-0.022
-690.383	-200.000	0.052	-0.272
-689.368	-200.000	-0.033	-0.329
-688.354	572.957	0.059	-0.143
-687.339	-39.543	0.152	0.079
-686.324	-22.128	0.111	-0.068
-685.310	800.000	-0.059	-0.229
-684.295	-97.994	-0.239	-0.062
-683.281	-125.794	-0.164	0.025
-682.266	-200.000	0.008	0.200
-681.251	72.739	-0.220	-0.230
-680.237	-53.787	0.102	0.046
-679.222	-200.000	0.011	-0.291
-678.208	-53.349	-0.181	-0.083
-677.193	800.000	-0.037	0.160
-676.178	-172.452	-0.234	0.007
-675.164	30.707	0.241	-0.207
-674.149	-70.154	0.191	0.072
-673.135	-38.134	0.213	0.113
-672.120	111.703	-0.133	0.160
-671.105	-30.954	-0.329	-0.186
-670.091	-200.000	0.007	-0.258
-669.076	-200.000	-0.042	-0.460
-668.062	1.435	-0.108	-0.078
-667.047	107.421	0.215	-0.255
-666.032	-7.410	0.146	-0.099
-665.018	-161.873	-0.039	0.002
-664.003	800.000	0.031	-0.104
-662.989	161.590	0.111	-0.156
-661.974	235.459	0.103	-0.170
-660.959	-200.000	-0.013	0.137
-659.945	-200.000	-0.020	-0.114
-658.930	90.185	0.150	0.168
-657.916	312.979	0.031	0.058
-656.901	-18.693	0.071	-0.044
-655.886	-123.980	0.163	-0.026
-654.872	-200.000	-0.046	-0.210
-653.857	60.990	0.072	-0.072
-652.843	-200.000	-0.003	-0.271
-651.828	-23.250	-0.082	0.049
-650.814	-77.958	-0.372	0.128
-649.799	127.121	-0.095	0.121
-648.784	370.573	-0.096	-0.194
-647.770	-200.000	0.049	0.222
-646.755	-118.966	0.035	-0.006
-645.741	254.843	0.082	0.141
-644.726	-29.683	-0.097	-0.055
-643.711	125.049	-0.121	0.153
-642.697	-50.086	-0.090	0.042
-641.682	-44.783	0.079	0.039
-640.668	115.818	-0.061	-0.075
-639.653	-10.578	0.317	0.210
-638.638	90.761	0.150	-0.168
-637.624	-105.292	0.087	0.020
-636.609	-77.156	-0.416	-0.145
-635.595	161.971	-0.101	0.141
-634.580	800.000	0.017	0.061
-633.565	-200.000	0.027	-0.376
-632.551	-200.000	0.014	-0.181
-631.536	-200.000	-0.002	-0.031
-630.522	232.144	0.066	-0.109
-629.507	-200.000	0.045	-0.264
-628.492	-133.848	-0.202	0.025
-627.478	-131.193	0.191	-0.025
-626.463	-26.766	-0.101	-0.059
-625.449	-200.000	-0.016	-0.267
-624.434	568.375	-0.029	0.071
-623.419	90.746	0.225	-0.252
-622.405	-88.219	0.253	0.076
-621.390	-200.000	0.047	-0.269
-620.376	-126.935	-0.073	0.011
-619.361	-200.000	-0.036	-0.233
-618.346	-84.723	0.274	-0.086
-617.332	-128.000	-0.120	0.017
-616.317	-81.647	-0.146	0.048
-615.303	219.428	-0.112	0.179
-614.288	-17.386	0.198	-0.124
-613.273	800.000	-0.048	-0.139
-612.259	0.722	0.231	0.165
-611.244	-75.283	0.111	-0.040
-610.230	-37.606	0.344	-0.183
-609.215	-38.367	-0.404	-0.213
-608.201	-200.000	0.174	-0.000
-607.186	334.784	-0.096	0.185
-606.171	34.655	-0.147	-0.128
-605.157	-200.000	0.033	0.405
-604.142	786.211	0.155	0.425
-603.128	-6.549	0.198	-0.134
-602.113	800.000	0.099	-0.306
-601.098	-81.386	0.111	0.037
-600.084	429.758	0.042	-0.090
-599.069	368.307	0.168	0.338
-598.055	374.834	-0.127	0.258
-597.040	-25.165	0.298	-0.176
-596.025	800.000	0.072	-0.219
-595.011	-83.525	-0.136	-0.043
-593.996	181.625	0.189	0.277
-592.982	182.625	0.168	0.247
-591.967	-200.000	-0.010	-0.258
-590.952	-129.225	-0.291	0.040
-589.938	-22.632	-0.153	-0.092
-588.923	88.972	-0.150	-0.167
-587.909	-125.092	-0.197	-0.030
-586.894	-93.945	-0.223	-0.061
-585.879	142.045	0.104	-0.138
-584.865	191.665	-0.220	0.330
-583.850	231.045	-0.127	-0.207
-582.836	800.000	-0.054	0.206
-581.821	186.678	0.036	-0.053
-580.806	-45.516	0.060	-0.029
-579.792	93.580	0.286	-0.322
-578.777	-94.454	-0.133	-0.036
-577.763	42.854	-0.130	0.118
-576.748	-152.516	0.071	0.005
-575.733	56.892	0.288	-0.279
-574.719	621.376	0.099	0.247
-573.704	4.057	-0.151	0.110
-572.690	166.202	0.031	0.044
-571.675	-83.516	0.266	0.085
-570.661	-58.631	0.179	0.077
-569.646	-154.994	0.154	-0.010
-568.631	185.725	-0.175	-0.259
-567.617	800.000	-0.019	-0.077
-566.602	-200.000	-0.019	-0.231
-565.588	329.304	-0.070	-0.133
-564.573	-119.542	0.423	-0.073
-563.558	800.000	0.138	0.514
-562.544	-98.261	0.211	0.054
-561.529	151.565	0.067	0.091
-560.515	-124.824	0.138	-0.021
-559.500	-33.787	-0.155	-0.085
-558.485	357.095	-0.189	-0.376
-557.471	-200.000	0.017	-0.077
-556.456	-94.906	0.066	-0.018
-555.442	110.943	0.068	-0.082
-554.427	-91.541	-0.195	0.055
-553.412	56.912	0.037	0.036
-552.398	-30.853	0.160	-0.090
-551.383	-49.109	-0.309	-0.147
-550.369	310.111	-0.134	-0.250
-549.354	-104.344	0.401	-0.092
-548.339	157.636	0.261	0.360
-547.325	-86.191	0.184	-0.057
-546.310	283.905	-0.040	-0.071
-545.296	26.753	-0.239	-0.199
-544.281	-57.729	0.086	0.038
-543.266	-200.000	-0.039	0.459
-542.252	-200.000	-0.001	-0.259
-541.237	-200.000	-0.038	0.366
-540.223	34.648	-0.211	0.184
-539.208	161.348	-0.062	-0.086
-538.193	59.541	0.078	-0.076
-537.179	-80.495	-0.066	0.022
-536.164	-11.741	-0.294	0.192
-535.150	94.919	-0.339	0.384
-534.135	-78.412	0.191	-0.065
-533.121	-41.326	-0.356	-0.182
-532.106	207.939	0.170	0.263
-531.091	574.329	0.072	0.175
-530.077	219.271	0.156	0.249
-529.062	-28.671	0.154	-0.088
-528.048	-116.202	-0.139	-0.026
-527.033	127.284	-0.138	-0.175
-526.018	-97.589	-0.033	-0.009
-525.004	-23.885	-0.099	-0.059
-523.989	-200.000	0.019	0.105
-522.975	119.300	-0.173	-0.213
-521.960	52.751	-0.291	-0.277
-520.945	-141.449	0.457	-0.046
-519.931	14.753	-0.152	-0.118
-518.916	-43.308	0.107	-0.054
-517.902	290.432	-0.186	-0.337
-516.887	-196.915	0.440	0.003
-515.872	-85.111	0.164	0.051
-514.858	800.000	-0.097	0.280
-513.843	102.862	0.165	0.191
-512.829	37.946	-0.283	0.250
-511.814	96.331	0.152	0.173
-510.799	181.183	0.052	-0.076
-509.785	-105.427	-0.202	-0.046
-508.770	16.393	-0.495	0.388
-507.756	794.457	-0.064	-0.176
-506.741	142.343	0.077	0.101
-505.726	69.656	-0.028	0.028
-504.712	336.884	-0.136	0.261
-503.697	-82.503	0.276	0.089
-502.683	-52.990	-0.166	0.076
-501.668	-106.648	-0.223	-0.049
-500.653	35.860	0.147	-0.129
-499.639	190.547	0.008	-0.012
-498.624	-76.920	-0.390	-0.135
-497.610	-68.703	-0.100	-0.038
-496.595	-2.146	0.357	-0.249
-495.581	800.000	-0.111	-0.347
-494.566	237.802	-0.084	0.138
-493.551	55.471	0.344	0.331
-492.537	358.242	0.161	-0.320
-491.522	-161.767	-0.258	-0.013
-490.508	90.936	0.233	0.260
-489.493	80.378	-0.050	-0.054
-488.478	-27.102	0.253	-0.146
-487.464	79.143	-0.142	-0.151
-486.449	92.346	-0.298	0.334
-485.435	-76.511	-0.336	0.117
-484.420	-200.000	0.035	0.232
-483.405	-142.265	-0.088	0.009
-482.391	-67.324	-0.183	0.071
-481.376	7.945	0.091	-0.067
-480.362	-33.934	-0.253	-0.138
-479.347	-200.000	-0.373	0.001
-478.332	-162.707	0.486	0.024
-477.318	800.000	-0.079	-0.271
-476.303	109.898	0.308	0.366
-475.289	-117.629	0.031	-0.006
-474.274	-197.924	-0.131	0.001
-473.259	18.398	0.203	-0.161
-472.245	-200.000	-0.006	0.043
-471.230	-200.000	-0.003	-0.070
-470.216	15.580	-0.066	0.051
-469.201	14.515	-0.102	0.079
-468.186	-116.246	-0.321	0.059
-467.172	-115.697	-0.196	0.037
-466.157	-1.812	-0.197	0.137
-465.143	112.800	-0.179	-0.215
-464.128	114.363	-0.051	-0.061
-463.113	-43.341	-0.252	0.126
-462.099	-0.727	0.195	0.137
-461.084	-200.000	-0.031	0.153
-460.070	-200.000	-0.057	-0.349
-459.055	121.113	-0.177	0.219
-458.040	-200.000	0.046	0.414
-457.026	-18.226	-0.118	-0.073
-456.011	-47.240	0.321	0.155
-454.997	800.000	0.104	0.362
-453.982	-138.941	-0.043	0.005
-452.968	-200.000	0.031	-0.438
-451.953	51.465	-0.187	0.176
-450.938	8.925	-0.187	-0.140
-449.924	-120.377	-0.143	-0.024
-448.909	739.419	0.060	0.161
-447.895	176.628	0.029	0.041
-446.880	13.006	-0.226	0.173
-445.865	-58.356	0.095	-0.041
-444.851	535.230	0.115	0.271
-443.836	-200.000	0.024	0.287
-442.822	-200.000	-0.006	-0.123
-441.807	-188.026	0.486	-0.006
-440.792	-200.000	-0.003	0.211
-439.778	800.000	-0.055	0.154
-438.763	482.886	-0.020	0.046
-437.749	59.635	-0.143	-0.140
-436.734	63.634	-0.070	0.069
-435.719	-200.000	-0.088	0.423
-434.705	365.902	-0.159	0.318
-433.690	-200.000	-0.011	0.097
-432.676	-200.000	0.007	-0.092
-431.661	800.000	0.044	-0.161
-430.646	-83.727	0.339	0.107
-429.632	-200.000	0.005	0.142
-428.617	481.596	-0.075	-0.169
-427.603	15.791	-0.054	0.042
-426.588	286.698	0.047	-0.084
-425.573	100.787	-0.110	0.126
-424.559	-139.869	-0.201	0.021
-423.544	131.018	-0.091	-0.116
-422.530	-200.000	-0.005	0.378
-421.515	-50.220	0.054	-0.025
-420.500	-185.553	0.375	-0.006
-419.486	207.348	0.044	0.068
-418.471	42.131	0.133	0.120
-417.457	-13.938	0.086	-0.055
-416.442	-33.443	-0.505	-0.276
-415.428	-116.375	0.298	0.054
-414.413	93.311	0.367	-0.410
-413.398	800.000	0.079	0.294
-412.384	-28.439	-0.142	0.081
-411.369	-159.607	-0.430	-0.024
-410.355	53.448	-0.092	-0.087
-409.340	54.044	-0.188	0.179
-408.325	-98.348	-0.105	-0.027
-407.311	-200.000	-0.002	-0.028
-406.296	-17.915	-0.051	0.032
-405.282	127.757	0.154	-0.193
-404.267	54.401	-0.165	0.157
-403.252	-2.759	-0.076	-0.052
-402.238	423.378	0.085	-0.180
-401.223	-200.000	-0.017	-0.086
-400.209	-200.000	-0.016	0.296
-399.194	230.030	-0.114	0.185
-398.179	100.013	0.153	-0.175
-397.165	30.304	-0.049	0.041
-396.150	-139.129	0.003	-0.000
-395.136	-200.000	-0.007	-0.164
-394.121	363.385	-0.039	-0.077
-393.106	228.093	-0.058	-0.094
-392.092	-200.000	-0.062	0.346
-391.077	3.048	-0.185	-0.133
-390.063	-200.000	-0.016	0.134
-389.048	-185.456	-0.150	0.002
-388.033	-169.994	0.215	0.008
-387.019	-31.040	0.133	0.074
-386.004	-200.000	0.002	-0.233
-384.990	-200.000	0.022	-0.131
-383.975	118.871	-0.146	-0.179
-382.960	180.505	0.195	-0.283
-381.946	-73.512	-0.138	-0.050
-380.931	207.819	0.193	0.297
-379.917	378.604	0.037	0.075
-378.902	49.232	-0.172	-0.159
-377.888	-200.000	-0.005	-0.090
-376.873	-13.418	0.334	-0.214
-375.858	-92.403	0.344	0.096
-374.844	390.928	-0.114	-0.233
-373.829	-200.000	0.058	0.343
-372.815	-38.379	-0.089	-0.047
-371.800	-155.389	-0.095	-0.006
-370.785	97.204	0.093	0.105
-369.771	-87.983	0.277	-0.082
-368.756	-200.000	-0.012	0.258
-367.742	-5.324	-0.111	0.075
-366.727	-89.610	0.135	0.039
-365.712	-50.349	-0.113	-0.053
-364.698	-52.106	0.236	0.108
-363.683	626.015	-0.086	-0.215
-362.669	-200.000	-0.033	-0.218
-361.654	180.259	-0.062	-0.090
-360.639	70.075	-0.249	0.254
-359.625	-170.420	-0.245	0.008
-358.610	-200.000	0.040	-0.231
-357.596	34.320	0.126	0.109
-356.581	58.342	-0.104	-0.101
-355.566	-200.000	-0.009	0.279
-354.552	-200.000	0.014	-0.183
-353.537	-200.000	0.013	-0.104
-352.523	-200.000	0.002	0.202
-351.508	-116.519	-0.148	-0.027
-350.493	-200.000	-0.024	-0.234
-349.479	15.266	0.036	-0.028
-348.464	164.036	-0.166	-0.231
-347.450	29.897	0.178	-0.149
-346.435	-200.000	0.067	0.394
-345.420	46.107	-0.125	-0.114
-344.406	117.396	-0.245	-0.298
-343.391	800.000	-0.074	0.258
-342.377	800.000	0.031	-0.085
-341.362	-200.000	0.010	0.089
-340.348	-33.763	-0.202	0.110
-339.333	-200.000	-0.028	-0.155
-338.318	90.147	-0.197	-0.217
-337.304	309.167	0.071	-0.130
-336.289	34.458	0.184	-0.158
-335.275	-96.292	-0.597	-0.156
-334.260	-200.000	0.002	-0.193
-333.245	275.321	0.173	-0.302
-332.231	-66.563	-0.099	0.039
-331.216	453.937	0.071	0.154
-330.202	-200.000	0.012	-0.114
-329.187	-105.924	0.408	0.091
-328.172	592.019	-0.053	0.128
-327.158	-200.000	0.055	0.247
-326.143	19.416	-0.138	-0.109
-325.129	800.000	0.054	0.157
-324.114	-82.971	0.203	0.064
-323.099	-200.000	-0.021	-0.138
-322.085	-59.218	-0.180	0.076
-321.070	-63.962	-0.124	-0.050
-320.056	199.160	0.097	0.147
-319.041	145.433	-0.084	0.111
-318.026	68.201	-0.128	0.130
-317.012	107.955	-0.194	0.228
-315.997	144.597	-0.095	-0.126
-314.983	137.887	-0.205	-0.265
-313.968	-200.000	-0.033	0.179
-312.953	134.299	0.114	0.146
-311.939	-18.099	-0.150	-0.093
-310.924	-170.109	-0.327	0.011
-309.910	-29.546	-0.250	-0.141
-308.895	800.000	0.100	0.330
-307.880	424.940	0.047	-0.099
-306.866	-200.000	-0.031	0.301
-305.851	50.649	-0.213	0.198
-304.837	245.470	0.192	0.318
-303.822	800.000	-0.041	-0.171
-302.807	65.140	-0.161	-0.160
-301.793	339.775	0.108	0.207
-300.778	-200.000	0.010	0.347
-299.764	800.000	-0.026	-0.081
-298.749	-200.000	-0.010	0.178
-297.735	-122.449	-0.213	-0.034
-296.720	-24.336	-0.208	0.122
-295.705	282.019	-0.136	-0.241
-294.691	-9.288	0.122	0.081
-293.676	800.000	0.028	-0.120
-292.662	147.430	0.136	-0.181
-291.647	-200.000	-0.031	0.144
-290.632	-49.110	0.200	-0.094
-289.618	800.000	-0.116	0.399
-288.603	-200.000	0.018	-0.128
-287.589	592.783	0.051	-0.124
-286.574	-107.207	0.138	-0.030
-285.559	89.311	-0.149	-0.164
-284.545	658.042	0.074	-0.188
-283.530	-146.983	0.244	-0.021
-282.516	800.000	0.034	-0.103
-281.501	-200.000	0.008	-0.207
-280.486	-200.000	-0.016	-0.187
-279.472	-50.685	0.171	0.079
-278.457	190.979	0.006	0.010
-277.443	-40.846	0.180	-0.092
-276.428	-149.023	0.210	-0.017
-275.413	-110.378	-0.271	0.055
-274.399	-11.644	-0.121	0.078
-273.384	203.409	-0.088	-0.134
-272.370	800.000	0.024	0.082
-271.355	59.565	-0.099	0.096
-270.340	-52.572	-0.140	0.064
-269.326	-200.000	0.041	0.353
-268.311	-88.998	0.221	0.064
-267.297	159.913	0.101	-0.138
-266.282	110.664	-0.149	0.177
-265.267	-167.429	0.358	0.014
-264.253	-101.786	-0.240	0.057
-263.238	-200.000	0.005	-0.031
-262.224	-86.580	0.181	0.054
-261.209	-31.645	-0.120	-0.066
-260.195	-49.741	0.234	-0.109
-259.180	-54.328	-0.154	-0.069
-258.165	-200.000	-0.007	-0.126
-257.151	10.010	-0.184	-0.137
-256.136	-200.000	0.030	0.254
-255.122	-200.000	0.029	0.361
-254.107	-154.370	0.222	0.015
-253.092	141.177	0.151	0.196
-252.078	-102.302	0.258	-0.061
-251.063	27.827	-0.214	-0.177
-250.049	194.997	-0.021	0.031
-249.034	3.501	-0.102	-0.073
-248.019	276.910	0.276	-0.482
-247.005	29.566	-0.240	-0.201
-245.990	221.780	0.091	-0.143
-244.976	-200.000	-0.010	0.276
-243.961	800.000	0.031	-0.128
-242.946	-134.344	0.265	0.032
-241.932	-200.000	-0.077	-0.363
-240.917	-80.280	-0.114	-0.037
-239.903	1.951	-0.374	0.265
-238.888	800.000	-0.019	-0.069
-237.873	-200.000	-0.031	-0.305
-236.859	-200.000	-0.038	0.289
-235.844	800.000	-0.056	-0.163
-234.830	-56.139	0.332	-0.145
-233.815	-80.048	0.342	0.113
-232.800	-174.053	0.236	-0.007
-231.786	-200.000	-0.010	-0.063
-230.771	-178.356	0.247	0.006
-229.757	442.522	-0.140	0.300
-228.742	5.353	0.298	-0.216
-227.727	-200.000	-0.015	-0.199
-226.713	157.967	0.101	-0.137
-225.698	-200.000	-0.049	-0.471
-224.684	-200.000	-0.010	0.112
-223.669	385.287	-0.086	0.174
-222.655	3.365	0.105	0.075
-221.640	-149.117	0.332	-0.026
-220.625	17.125	0.307	0.239
-219.611	74.715	0.258	-0.266
-218.596	188.876	0.192	0.282
-217.582	-33.380	-0.142	0.077
-216.567	291.944	0.110	0.197
-215.552	-168.563	0.337	-0.013
-214.538	129.543	0.306	-0.383
-213.523	59.677	0.161	0.156
-212.509	342.890	0.127	-0.245
-211.494	-100.385	-0.114	0.028
-210.479	-15.200	0.069	-0.043
-209.465	-30.505	0.163	-0.091
-208.450	800.000	0.090	-0.268
-207.436	280.757	0.178	-0.312
-206.421	800.000	-0.053	0.202
-205.406	800.000	0.067	0.188
-204.392	55.409	-0.088	0.084
-203.377	800.000	0.062	0.234
-202.363	534.970	0.062	0.145
-201.348	800.000	0.041	-0.124
-200.333	438.615	-0.124	0.266
-199.319	74.086	-0.236	0.243
-198.304	83.199	-0.046	0.049
-197.290	-105.189	-0.185	0.041
-196.275	-35.552	0.166	0.088
-195.260	360.082	-0.171	0.336
-194.246	800.000	-0.069	0.264
-193.231	183.498	0.143	0.207
-192.217	800.000	-0.060	-0.181
-191.202	21.706	-0.165	0.132
-190.187	-200.000	0.023	0.158
-189.173	-145.079	0.471	-0.042
-188.158	800.000	0.019	0.056
-187.144	-200.000	0.017	-0.169
-186.129	27.760	-0.134	-0.111
-185.114	-200.000	0.018	0.154
-184.100	-145.739	0.203	-0.018
-183.085	-102.672	-0.285	-0.067
-182.071	140.898	-0.237	-0.307
-181.056	-91.927	0.261	0.072
-180.042	235.125	0.007	0.011
-179.027	111.336	0.116	0.137
-178.012	25.291	-0.123	-0.101
-176.998	-103.748	0.215	-0.049
-175.983	29.647	-0.210	-0.175
-174.969	161.210	-0.119	-0.163
-173.954	-57.421	-0.298	-0.128
-172.939	53.176	0.153	-0.144
-171.925	-200.000	0.037	-0.199
-170.910	54.805	-0.100	0.095
-169.896	-8.973	-0.174	0.114
-168.881	800.000	-0.071	-0.279
-167.866	64.154	0.150	-0.148
-166.852	-62.171	0.081	0.033
-165.837	9.359	-0.133	-0.098
-164.823	171.022	-0.111	-0.156
-163.808	-50.504	0.187	-0.086
-162.793	31.645	0.185	-0.156
-161.779	554.600	-0.059	-0.140
-160.764	-200.000	0.042	-0.257
-159.750	-114.453	0.113	0.021
-158.735	-200.000	-0.032	0.282
-157.720	-31.492	-0.173	0.095
-156.706	127.539	-0.170	-0.212
-155.691	-54.493	0.111	0.049
-154.677	-200.000	-0.032	0.248
-153.662	136.433	0.082	0.105
-152.647	398.635	-0.081	-0.167
-151.633	308.905	0.056	-0.102
-150.618	90.949	-0.146	0.160
-149.604	-200.000	0.109	0.474
-148.589	-81.189	0.133	-0.043
-147.574	11.476	0.281	-0.211
-146.560	-200.000	0.000	0.003
-145.545	800.000	-0.038	0.161
-144.531	-165.494	0.393	0.017
-143.516	140.234	-0.090	0.116
-142.502	114.700	0.361	0.430
-141.487	-115.733	-0.277	-0.051
-140.472	-200.000	0.028	0.252
-139.458	-200.000	0.063	0.286
-138.443	210.597	0.138	-0.213
-137.429	10.445	-0.150	0.112
-136.414	-136.603	-0.199	-0.023
-135.399	521.572	0.102	0.234
-134.385	800.000	0.051	-0.142
-133.370	170.394	0.107	-0.150
-132.356	-147.690	-0.320	0.026
-131.341	-86.482	-0.156	-0.047
-130.326	-200.000	-0.018	-0.095
-129.312	787.298	0.115	0.309
-128.297	-97.160	-0.488	-0.125
-127.283	107.716	-0.151	0.176
-126.268	-200.000	0.012	-0.170
-125.253	-158.989	-0.185	0.010
-124.239	-48.677	-0.199	0.093
-123.224	27.378	0.204	-0.168
-122.210	667.638	-0.067	0.170
-121.195	266.238	-0.057	0.098
-120.180	800.000	-0.018	-0.066
-119.166	-96.203	0.071	-0.019
-118.151	-65.418	-0.246	-0.097
-117.137	377.071	-0.130	0.261
-116.122	-16.001	0.310	-0.193
-115.107	-200.000	0.001	-0.056
-114.093	223.949	-0.236	0.372
-113.078	-200.000	-0.051	-0.324
-112.064	-112.134	-0.292	-0.057
-111.049	-178.464	0.270	0.006
-110.034	-29.277	0.326	-0.183
-109.020	363.308	-0.142	0.278
-108.005	-163.581	0.466	0.022
-106.991	244.301	0.087	0.142
-105.976	-200.000	0.007	0.080
-104.962	-83.938	0.036	0.011
-103.947	-200.000	0.012	0.083
-102.932	127.711	-0.059	0.073
-101.918	-200.000	0.016	-0.249
-100.903	800.000	-0.052	-0.211
-99.889	47.771	-0.101	0.092
-98.874	-80.347	-0.185	0.060
-97.859	82.641	0.101	0.107
-96.845	-200.000	-0.046	0.209
-95.830	-200.000	0.011	0.053
-94.816	149.701	-0.017	-0.023
-93.801	-144.898	-0.355	-0.032
-92.786	42.159	-0.240	0.213
-91.772	-8.488	0.218	-0.143
-90.757	-200.000	-0.061	-0.286
-89.743	224.988	-0.114	0.180
-88.728	417.604	-0.032	-0.066
-87.713	800.000	-0.063	0.193
-86.699	685.795	-0.043	0.111
-85.684	-200.000	0.029	0.173
-84.670	46.438	-0.173	0.157
-83.655	37.040	-0.122	0.106
-82.640	-200.000	0.045	0.325
-81.626	800.000	-0.107	0.297
-80.611	-87.572	-0.128	-0.038
-79.597	159.716	0.110	-0.150
-78.582	800.000	0.084	-0.237
-77.567	-29.996	0.153	-0.085
-76.553	-131.534	0.196	0.025
-75.538	800.000	-0.064	-0.273
-74.524	47.415	-0.110	0.100
-73.509	192.377	-0.134	-0.198
-72.494	151.676	-0.204	0.271
-71.480	-108.262	-0.038	-0.008
-70.465	-19.863	0.160	-0.096
-69.451	68.253	0.166	0.166
-68.436	-81.087	-0.170	-0.055
-67.422	-200.000	0.026	-0.163
-66.407	-200.000	0.007	0.103
-65.392	-86.507	0.136	0.041
-64.378	800.000	-0.072	-0.272
-63.363	-80.246	0.414	0.135
-62.349	6.410	0.029	-0.021
-61.334	105.789	-0.960	-1.108
-60.319	310.254	0.466	0.852
-59.305	800.000	-0.201	-0.807
-58.290	330.590	0.777	1.460
-57.276	800.000	0.419	1.583
-56.261	-200.000	120.697	642.864
-55.246	435.393	1532.032	3251.058
-54.232	149.520	2676.384	3536.505
-53.217	99.734	2128.897	2404.845
-52.203	36.111	1575.081	1353.071
-51.188	27.793	1322.102	1086.440
-50.173	25.239	1284.409	1040.632
-49.159	52.315	1351.298	1257.218
-48.144	49.430	1364.064	1251.861
-47.130	27.918	1312.592	1079.193
-46.115	24.655	1293.874	1044.724
-45.100	24.390	1289.415	1039.538
-44.086	24.477	1286.549	1037.688
-43.071	24.528	1284.163	1036.018
-42.057	24.355	1282.182	1033.380
-41.042	24.456	1280.528	1032.591
-40.027	24.494	1279.156	1031.660
-39.013	24.403	1277.472	1029.735
-37.998	24.516	1275.279	1028.577
-36.984	24.559	1273.638	1027.462
-35.969	24.513	1272.103	1025.917
-34.954	24.590	1269.898	1024.545
-33.940	24.622	1269.093	1024.035
-32.925	24.577	1267.717	1022.625
-31.911	24.602	1266.425	1021.688
-30.896	24.631	1264.632	1020.368
-29.881	24.695	1263.746	1019.973
-28.867	24.570	1262.479	1018.203
-27.852	24.659	1260.714	1017.245
-26.838	24.664	1259.876	1016.553
-25.823	24.788	1257.970	1015.681
-24.809	24.646	1257.244	1014.250
-23.794	24.578	1255.927	1012.762
-22.779	24.678	1254.601	1012.217
-21.765	24.677	1253.221	1011.055
-20.750	24.673	1252.158	1010.139
-19.736	24.515	1251.670	1008.812
-18.721	24.537	1249.830	1007.411
-17.706	24.525	1249.115	1006.727
-16.692	24.497	1247.669	1005.364
-15.677	24.589	1246.128	1004.602
-14.663	24.552	1245.166	1003.577
-13.648	24.451	1244.718	1002.608
-12.633	24.636	1243.150	1002.343
-11.619	24.418	1242.904	1000.882
-10.604	24.500	1241.252	999.973
-9.590	24.452	1240.792	999.294
-8.575	24.604	1239.295	998.901
-7.560	24.476	1239.117	998.000
-6.546	24.503	1238.078	997.273
-5.531	24.444	1237.474	996.420
-4.517	24.523	1236.716	996.207
-3.502	24.445	1236.005	995.161
-2.487	24.502	1234.695	994.384
-1.473	24.474	1230.442	990.763
-0.458	22.826	1215.265	969.466
0.556	18.349	1200.040	932.811
1.571	14.570	1207.408	917.702
2.586	13.831	1222.003	924.597
3.600	13.961	1210.494	916.527
4.615	10.534	1140.040	845.275
5.629	4.062	1069.366	761.078
6.644	0.999	1052.210	733.977
7.659	0.753	1049.811	731.049
8.673	0.680	1049.242	730.231
9.688	0.798	1047.576	729.579
10.702	0.918	1046.146	729.097
11.717	5.011	1050.189	751.610
12.731	12.077	1059.382	792.375
13.746	16.502	1064.818	817.823
14.761	17.505	1065.043	822.774
15.775	16.617	1063.786	817.438
16.790	15.671	1061.843	811.309
17.804	14.935	1060.221	806.450
18.819	14.551	1059.527	804.005
19.834	14.315	1058.580	802.077
20.848	14.157	1057.479	800.412
21.863	13.853	1056.672	798.266
22.877	13.763	1055.835	797.131
23.892	13.822	1054.907	796.643
24.907	13.870	1053.873	796.021
25.921	13.736	1053.425	794.972
26.936	13.814	1052.446	794.537
27.950	13.743	1051.875	793.693
28.965	13.766	1050.963	793.046
29.980	13.850	1049.035	791.923
30.994	13.937	1048.049	791.523
32.009	13.876	1047.104	790.451
33.023	13.933	1046.481	790.181
34.038	13.961	1045.320	789.366
35.053	13.936	1044.302	788.407
36.067	13.780	1043.828	787.241
37.082	13.910	1042.731	786.959
38.096	13.851	1042.128	786.155
39.111	13.804	1041.417	785.326
40.126	13.866	1039.619	784.195
41.140	13.718	1038.744	782.767
42.155	13.631	1038.090	781.795
43.169	13.683	1036.426	780.719
44.184	13.604	1035.938	779.910
45.199	13.646	1034.992	779.327
46.213	13.882	1033.076	778.920
47.228	13.868	1032.384	778.263
48.242	13.814	1031.281	777.112
49.257	13.705	1030.609	776.025
50.271	13.814	1029.736	775.811
51.286	13.871	1028.703	775.231
52.301	13.782	1027.872	774.119
53.315	13.800	1026.807	773.333
54.330	13.850	1025.502	772.514
55.344	13.686	1025.087	771.370
56.359	13.795	1024.385	771.279
57.374	13.679	1023.460	769.976
58.388	13.651	1022.537	769.086
59.403	13.629	1021.567	768.187
60.417	13.759	1020.373	767.823
61.432	13.680	1020.095	767.177
62.447	13.640	1019.351	766.365
63.461	13.744	1018.279	765.972
64.476	13.596	1017.682	764.770
65.490	13.546	1016.818	763.827
66.505	13.654	1016.087	763.705
67.520	13.708	1015.288	763.287
68.534	13.816	1014.585	763.187
69.549	13.572	1014.255	761.747
70.563	13.587	1013.163	760.932
71.578	13.663	1012.038	760.367
72.593	13.580	1011.492	759.509
73.607	13.632	1010.924	759.254
74.622	13.559	1010.215	758.320
75.636	13.661	1009.372	758.088
76.651	13.592	1008.811	757.285
77.666	13.701	1008.141	757.211
78.680	13.696	1007.259	756.458
79.695	13.677	1006.632	755.836
80.709	13.587	1006.155	754.999
81.724	13.651	1005.576	754.787
82.739	13.808	1004.663	754.751
83.753	13.845	1003.697	754.125
84.768	13.823	1003.025	753.454
85.782	13.883	1001.964	752.866
86.797	13.748	1001.301	751.685
87.812	13.805	1000.224	751.072
88.826	13.875	998.978	750.385
89.841	13.760	998.308	749.297
90.855	13.881	997.588	749.234
91.870	13.802	996.994	748.364
92.884	13.943	995.768	748.014
93.899	14.055	994.914	747.809
94.914	13.924	994.281	746.680
95.928	13.909	993.832	746.211
96.943	13.890	992.448	745.020
97.957	14.022	991.416	744.769
98.972	13.883	991.191	743.914
99.987	13.879	989.788	742.776
101.001	13.966	988.892	742.429
102.016	13.894	988.279	741.578
103.030	13.920	987.381	740.956
104.045	13.899	986.779	740.346
105.060	13.819	985.815	739.198
106.074	13.890	985.016	738.853
107.089	13.833	983.815	737.633
108.103	13.830	983.105	737.020
109.118	13.801	982.022	736.016
110.133	13.896	981.534	736.007
111.147	13.705	981.008	734.700
112.162	13.845	979.868	734.402
113.176	13.855	979.153	733.843
114.191	13.822	978.310	732.999
115.206	13.787	977.854	732.440
116.220	13.891	976.961	732.166
117.235	13.931	975.778	731.390
118.249	13.797	974.895	730.075
119.264	13.729	974.339	729.293
120.279	13.956	973.312	729.455
121.293	13.837	972.655	728.377
122.308	13.793	971.635	727.357
123.322	13.810	970.577	726.575
124.337	13.757	969.917	725.787
125.352	13.944	968.132	725.200
126.366	13.802	967.820	724.284
127.381	13.864	966.523	723.521
128.395	13.808	965.826	722.688
129.410	13.732	965.095	721.747
130.424	13.721	964.482	721.179
131.439	13.766	963.453	720.542
132.454	13.861	962.616	720.263
133.468	13.915	961.738	719.776
134.483	13.861	960.792	718.772
135.497	13.860	960.337	718.363
136.512	13.967	959.068	717.813
137.527	13.938	958.493	717.193
138.541	13.903	957.661	716.356
139.556	13.992	957.180	716.317
140.570	14.047	955.896	715.531
141.585	14.048	955.316	715.034
142.600	14.002	954.583	714.224
143.614	14.015	953.986	713.772
144.629	14.146	952.888	713.450
145.643	14.196	952.081	712.998
146.658	13.967	951.511	711.526
147.673	14.073	950.486	711.150
148.687	14.087	949.681	710.544
149.702	13.991	948.678	709.322
150.716	14.037	948.018	708.960
151.731	13.931	947.344	707.941
152.746	14.164	946.392	708.159
153.760	14.170	945.618	707.546
154.775	14.201	945.432	707.475
155.789	14.268	944.803	707.226
156.804	14.204	944.119	706.380
157.819	14.124	943.158	705.258
158.833	14.330	942.636	705.677
159.848	14.312	941.435	704.641
160.862	14.310	940.834	704.122
161.877	14.323	939.740	703.293
162.892	14.201	939.120	702.252
163.906	14.126	938.119	701.127
164.921	14.173	937.099	700.500
165.935	14.136	936.620	699.926
166.950	14.015	935.671	698.646
167.964	14.227	934.602	698.675
168.979	14.249	933.871	698.159
169.994	14.170	932.904	697.043
171.008	14.201	932.484	696.799
172.023	14.279	931.516	696.336
173.037	14.265	930.992	695.829
174.052	14.286	930.069	695.165
175.067	14.278	929.459	694.612
176.081	14.288	928.681	694.013
177.096	14.096	928.747	693.198
178.110	14.212	928.029	693.084
179.125	14.180	927.220	692.284
180.140	14.319	926.833	692.515
181.154	14.281	926.302	691.896
182.169	14.445	925.643	692.026
183.183	14.465	924.934	691.516
184.198	14.334	924.354	690.481
185.213	14.522	923.428	690.504
186.227	14.438	923.081	689.836
187.242	14.511	922.213	689.427
188.256	14.581	921.824	689.364
189.271	14.572	920.449	688.238
190.286	14.427	919.943	687.202
191.300	14.437	919.133	686.579
192.315	14.186	919.055	685.427
193.329	14.422	918.136	685.649
194.344	14.403	917.735	685.212
195.359	14.502	916.802	684.860
196.373	14.558	915.915	684.367
197.388	14.464	915.943	683.944
198.402	14.471	915.335	683.456
199.417	14.556	914.499	683.122
200.432	14.610	914.157	683.025
201.446	14.578	913.685	682.482
202.461	14.744	912.943	682.543
203.475	14.712	912.578	682.079
204.490	14.755	911.917	681.702
205.504	14.801	910.887	681.057
206.519	14.656	910.221	679.909
207.534	14.688	909.687	679.582
208.548	14.575	908.903	678.476
209.563	14.783	908.166	678.710
210.577	14.683	907.369	677.649
211.592	14.900	906.512	677.829
212.607	14.936	905.601	677.233
213.621	14.775	905.455	676.415
214.636	14.972	904.382	676.347
215.650	14.988	903.643	675.801
216.665	15.119	902.858	675.681
217.680	14.945	902.247	674.462
218.694	14.943	901.792	674.056
219.709	14.855	901.421	673.364
220.723	14.956	900.453	672.988
221.738	14.809	900.105	672.075
222.753	14.880	899.278	671.685
223.767	15.053	898.103	671.441
224.782	14.982	897.950	670.984
225.796	15.140	897.428	671.169
226.811	15.133	896.762	670.580
227.826	15.047	896.169	669.736
228.840	15.053	895.105	668.906
229.855	15.042	894.539	668.381
230.869	14.945	893.828	667.400
231.884	15.030	893.013	667.073
232.899	15.132	892.236	666.841
233.913	14.996	891.899	665.987
234.928	14.997	891.576	665.691
235.942	15.097	890.388	665.142
236.957	15.045	890.251	664.775
237.972	15.141	889.200	664.310
238.986	15.087	888.883	663.802
240.001	15.134	888.125	663.365
241.015	15.091	887.533	662.691
242.030	15.086	886.654	661.958
243.045	15.155	886.155	661.797
244.059	15.206	885.639	661.555
245.074	15.385	884.617	661.442
246.088	15.212	884.226	660.407
247.103	15.247	883.449	659.907
248.117	15.366	882.879	659.891
249.132	15.383	882.613	659.699
250.147	15.329	882.302	659.198
251.161	15.391	881.461	658.754
252.176	15.509	880.247	658.252
253.190	15.535	879.587	657.801
254.205	15.418	879.365	657.120
255.220	15.492	878.663	656.825
256.234	15.586	878.151	656.753
257.249	15.480	877.431	655.742
258.263	15.518	876.589	655.203
259.278	15.630	875.980	655.128
260.293	15.637	875.737	654.915
261.307	15.645	874.749	654.147
262.322	15.722	874.323	654.073
263.336	15.642	873.695	653.233
264.351	15.778	872.475	652.789
265.366	15.767	872.251	652.522
266.380	15.702	871.466	651.626
267.395	15.760	870.732	651.242
268.409	15.759	870.204	650.787
269.424	15.728	869.349	649.972
270.439	15.703	868.886	649.470
271.453	15.692	867.984	648.695
272.468	15.761	867.655	648.659
273.482	15.737	867.549	648.428
274.497	15.832	866.622	648.046
275.512	15.906	865.786	647.647
276.526	15.805	865.575	647.044
277.541	15.970	864.981	647.178
278.555	15.959	864.372	646.621
279.570	15.930	863.482	645.789
280.585	15.930	863.082	645.432
281.599	15.934	862.011	644.588
282.614	16.012	861.326	644.317
283.628	15.881	861.098	643.588
284.643	15.985	860.387	643.399
285.657	16.022	859.527	642.837
286.672	15.893	859.423	642.214
287.687	16.051	858.401	641.994
288.701	15.953	858.071	641.319
289.716	16.069	857.299	641.125
290.730	16.165	856.529	640.856
291.745	16.112	856.283	640.413
292.760	16.255	855.473	640.294
293.774	16.116	855.018	639.370
294.789	16.118	854.746	639.120
295.803	16.092	853.949	638.365
296.818	16.212	852.856	637.946
297.833	16.209	852.526	637.634
298.847	16.026	852.026	636.512
299.862	16.187	851.266	636.493
300.876	16.368	850.690	636.688
301.891	16.369	850.081	636.181
302.906	16.330	849.404	635.473
303.920	16.328	848.964	635.078
304.935	16.452	848.286	634.980
305.949	16.350	847.527	633.974
306.964	16.452	847.205	634.060
307.979	16.455	846.532	633.510
308.993	16.526	845.793	633.167
310.008	16.433	845.551	632.583
311.022	16.432	845.268	632.310
312.037	16.238	844.232	630.755
313.052	16.369	843.681	630.775
314.066	16.462	842.940	630.515
315.081	16.455	842.556	630.143
316.095	16.560	841.709	629.845
317.110	16.513	841.228	629.256
318.125	16.532	840.980	629.086
319.139	16.556	840.630	628.856
320.154	16.233	840.511	627.511
321.168	16.478	839.507	627.615
322.183	16.548	838.948	627.403
323.197	16.592	838.556	627.217
324.212	16.601	837.895	626.702
325.227	16.677	837.123	626.349
326.241	16.596	836.739	625.707
327.256	16.669	836.088	625.433
328.270	16.569	835.585	624.633
329.285	16.486	835.149	623.946
330.300	16.399	834.851	623.346
331.314	16.578	833.942	623.274
332.329	16.643	833.288	622.968
333.343	16.778	833.185	623.335
334.358	16.710	832.720	622.679
335.373	16.775	832.082	622.386
336.387	16.762	831.896	622.146
337.402	16.776	832.105	622.298
338.416	16.828	831.168	621.734
339.431	16.770	831.007	621.344
340.446	16.964	830.360	621.517
341.460	16.814	830.168	620.769
342.475	16.861	829.907	620.691
343.489	17.112	829.232	621.048
344.504	16.958	828.801	620.107
345.519	16.937	828.345	619.636
346.533	17.047	827.762	619.545
347.548	17.051	827.188	619.077
348.562	17.076	826.794	618.817
349.577	16.880	826.604	617.905
350.592	16.978	825.650	617.493
351.606	16.957	824.900	616.804
352.621	16.995	824.200	616.363
353.635	17.034	823.446	615.887
354.650	16.972	823.105	615.352
355.665	16.964	822.450	614.777
356.679	17.163	821.590	614.801
357.694	17.154	820.989	614.265
358.708	17.157	820.613	613.941
359.723	17.022	820.204	613.092
360.738	17.076	819.556	612.749
361.752	17.115	819.004	612.424
362.767	17.230	818.491	612.399
363.781	17.373	817.711	612.276
364.796	17.188	817.443	611.355
365.810	17.226	817.490	611.474
366.825	17.251	816.692	610.911
367.840	17.381	816.247	610.991
368.854	17.192	815.979	610.059
369.869	17.245	815.777	610.043
370.883	17.245	814.959	609.377
371.898	17.394	814.411	609.448
372.913	17.486	814.151	609.528
373.927	17.360	813.626	608.632
374.942	17.394	813.438	608.558
375.956	17.531	812.566	608.343
376.971	17.635	812.007	608.240
377.986	17.466	811.946	607.538
379.000	17.482	811.669	607.332
380.015	17.506	810.904	606.795
381.029	17.446	810.580	606.283
382.044	17.551	809.716	605.957
383.059	17.634	809.338	605.917
384.073	17.563	808.772	605.186
385.088	17.608	807.758	604.533
386.102	17.602	807.549	604.301
387.117	17.470	807.404	603.674
388.132	17.631	806.373	603.417
389.146	17.628	805.710	602.857
390.161	17.627	805.523	602.662
391.175	17.936	804.646	603.045
392.190	17.754	804.310	602.097
393.205	17.589	804.370	601.506
394.219	17.713	803.781	601.448
395.234	17.720	803.226	601.005
396.248	17.643	803.098	600.583
397.263	17.811	802.523	600.692
398.278	17.776	802.158	600.243
399.292	17.740	801.603	599.647
400.307	17.684	801.465	599.296
401.321	17.813	800.761	599.170
402.336	17.751	800.228	598.498
403.350	17.872	800.108	598.781
404.365	17.770	799.674	598.047
405.380	17.825	798.977	597.663
406.394	17.923	798.244	597.406
407.409	17.969	797.661	597.077
408.423	17.985	797.680	597.096
409.438	18.084	797.353	597.142
410.453	17.957	797.066	596.432
411.467	18.000	796.368	596.006
412.482	18.114	796.000	596.077
413.496	18.109	795.531	595.656
414.511	18.339	794.924	595.950
415.526	18.047	795.004	594.938
416.540	18.214	794.246	594.899
417.555	18.152	793.944	594.405
418.569	18.174	793.537	594.126
419.584	18.107	793.206	593.592
420.599	18.265	792.693	593.702
421.613	116.037	1296.413	1489.193
422.628	99.972	1369.777	1489.284
