DTS Sentinel unit serial number:	SN413079Multiplexer serial number:	ORYXHardware model number:	OX4-SRSoftware version number:	ORYX F/W v4.00 Oryx Data Collector v3.7.2.0data status	okinstallation	princeton_trtdifferential loss correction	single-endedforward channel	channel 1reverse channel	N/Adate	2019/09/16time	11:34:35forward acquisition time	60.00reverse acquisition time	0.00gamma	496.2192k internal	0.2297k external	0.2297temperature offset calibration	0.9964default loss term (dB/km)	0.3790temperature slope calibration	1.0000multiplexer offset coefficient	1.0000multiplexer slope coefficient	1.0000fibre end	0.00T internal ref (°C)	37.80T ext. ref 1 (°C)	12.98T ext. ref 2 (°C)	35.69length (m)	temperature (°C)	Stokes	anti-Stokes-747.200	290.689	0.081	0.151
-746.185	34.050	0.221	0.197
-745.171	18.459	0.242	0.197
-744.156	-200.000	-0.092	0.501
-743.142	-110.862	-0.309	0.065
-742.127	-71.775	0.121	0.046
-741.112	-200.000	0.014	-0.124
-740.098	742.241	-0.033	0.091
-739.083	-73.245	-0.187	0.070
-738.069	-42.184	0.312	0.163
-737.054	-69.071	-0.164	-0.064
-736.039	268.459	-0.066	0.118
-735.025	131.803	0.149	0.195
-734.010	82.808	-0.202	-0.225
-732.996	29.557	-0.114	-0.099
-731.981	-5.565	-0.278	-0.195
-730.966	-53.788	-0.214	-0.099
-729.952	-117.003	0.036	-0.007
-728.937	-200.000	-0.090	-0.452
-727.923	263.740	-0.071	-0.125
-726.908	149.116	-0.116	0.160
-725.894	800.000	0.058	-0.216
-724.879	800.000	-0.106	0.389
-723.864	15.834	0.106	0.085
-722.850	-61.699	-0.124	-0.053
-721.835	141.559	0.073	-0.099
-720.821	800.000	0.026	-0.114
-719.806	76.317	-0.117	0.126
-718.791	800.000	0.044	-0.130
-717.777	800.000	0.101	-0.330
-716.762	-200.000	-0.005	0.535
-715.748	2.811	-0.271	-0.201
-714.733	357.194	0.061	-0.123
-713.718	263.607	-0.075	-0.133
-712.704	-113.542	-0.174	0.035
-711.689	-200.000	-0.020	-0.164
-710.675	-200.000	-0.026	-0.282
-709.660	-200.000	-0.002	0.106
-708.645	-149.122	-0.182	0.015
-707.631	-82.635	0.051	0.017
-706.616	-200.000	0.013	-0.328
-705.602	56.916	-0.106	0.105
-704.587	-9.134	-0.149	-0.101
-703.572	-91.852	-0.215	-0.062
-702.558	8.238	0.127	-0.097
-701.543	-74.664	-0.267	0.098
-700.529	800.000	-0.045	0.127
-699.514	239.876	0.109	-0.185
-698.499	-95.992	-0.165	-0.045
-697.485	-100.048	-0.201	-0.051
-696.470	-169.523	0.165	0.006
-695.456	444.054	0.092	-0.205
-694.441	-2.091	-0.135	-0.097
-693.426	132.617	-0.096	-0.126
-692.412	800.000	0.070	0.228
-691.397	-200.000	0.008	-0.406
-690.383	-158.911	-0.198	0.011
-689.368	-200.000	-0.026	-0.352
-688.354	-75.973	-0.257	-0.093
-687.339	-200.000	0.040	-0.210
-686.324	-59.823	0.101	-0.044
-685.310	-200.000	0.017	-0.105
-684.295	550.902	-0.038	-0.093
-683.281	-0.141	-0.245	-0.177
-682.266	-97.351	-0.272	-0.072
-681.251	800.000	0.041	0.142
-680.237	-200.000	0.045	0.205
-679.222	-14.196	-0.038	0.025
-678.208	-200.000	0.031	-0.315
-677.193	-58.471	0.185	0.082
-676.178	-74.049	0.362	0.134
-675.164	26.871	0.236	-0.201
-674.149	560.811	0.055	0.134
-673.135	3.677	-0.395	0.294
-672.120	800.000	-0.055	-0.198
-671.105	-33.825	-0.255	-0.143
-670.091	-78.613	0.013	-0.005
-669.076	800.000	0.032	-0.109
-668.062	-12.681	-0.023	-0.015
-667.047	-31.998	0.056	-0.032
-666.032	6.704	-0.077	-0.058
-665.018	42.492	-0.158	0.147
-664.003	-72.657	0.320	-0.120
-662.989	-103.604	-0.194	-0.046
-661.974	-35.869	0.072	0.039
-660.959	-114.649	0.071	-0.014
-659.945	219.095	-0.024	0.039
-658.930	-85.082	0.242	0.077
-657.916	-200.000	0.002	-0.431
-656.901	-168.890	-0.282	-0.011
-655.886	-80.524	-0.158	0.054
-654.872	-200.000	0.033	-0.236
-653.857	-77.871	-0.238	-0.083
-652.843	90.821	0.174	-0.199
-651.828	113.616	0.199	0.246
-650.814	139.639	0.025	0.033
-649.799	-200.000	0.025	-0.119
-648.784	-77.723	-0.163	0.057
-647.770	611.739	0.125	0.319
-646.755	-200.000	-0.010	0.140
-645.741	11.482	-0.199	0.156
-644.726	99.664	-0.148	0.175
-643.711	-200.000	0.027	0.183
-642.697	72.031	-0.212	-0.224
-641.682	800.000	0.030	-0.105
-640.668	13.228	0.187	0.147
-639.653	-90.994	0.144	-0.042
-638.638	213.988	-0.120	0.194
-637.624	166.910	-0.127	0.183
-636.609	-79.738	0.216	-0.074
-635.595	84.720	-0.116	-0.129
-634.580	-40.985	0.097	0.051
-633.565	695.929	0.030	0.080
-632.551	389.943	-0.044	0.092
-631.536	-22.686	0.254	0.156
-630.522	85.605	-0.141	0.158
-629.507	201.405	0.117	0.182
-628.492	466.810	0.153	-0.348
-627.478	247.834	-0.132	-0.228
-626.463	-59.685	-0.229	0.100
-625.449	-19.320	0.189	-0.119
-624.434	-200.000	0.163	-0.000
-623.419	76.860	0.051	0.055
-622.405	-3.803	-0.171	0.121
-621.390	314.572	0.056	0.108
-620.376	-200.000	-0.028	-0.173
-619.361	-200.000	-0.061	-0.287
-618.346	800.000	-0.068	0.200
-617.332	356.600	0.056	0.114
-616.317	-146.636	0.102	0.009
-615.303	-200.000	-0.018	0.116
-614.288	-200.000	0.024	-0.377
-613.273	675.900	-0.176	-0.465
-612.259	155.126	0.086	-0.120
-611.244	800.000	-0.046	-0.196
-610.230	-106.940	-0.172	0.039
-609.215	776.401	0.062	-0.172
-608.201	-200.000	-0.013	0.179
-607.186	172.109	0.320	0.467
-606.171	-200.000	0.033	0.305
-605.157	539.309	0.070	0.169
-604.142	-200.000	0.049	-0.270
-603.128	17.977	-0.138	0.112
-602.113	260.699	0.165	0.290
-601.098	-21.779	-0.114	-0.070
-600.084	-143.585	0.248	-0.024
-599.069	12.681	-0.197	0.155
-598.055	-125.465	-0.243	0.037
-597.040	-200.000	0.011	0.204
-596.025	-120.495	0.379	-0.065
-595.011	-19.952	-0.102	0.064
-593.996	-8.196	-0.189	0.129
-592.982	-200.000	-0.007	0.187
-591.967	-129.664	0.359	-0.050
-590.952	710.980	0.077	-0.207
-589.938	-200.000	-0.011	-0.057
-588.923	-79.182	0.383	0.132
-587.909	-54.241	-0.162	0.075
-586.894	79.797	-0.211	0.230
-585.879	-103.622	0.204	0.048
-584.865	221.057	-0.193	0.314
-583.850	768.921	0.059	-0.163
-582.836	-59.030	-0.172	-0.075
-581.821	557.769	0.162	-0.396
-580.806	-31.567	-0.195	0.111
-579.792	786.665	0.043	-0.121
-578.777	-98.131	-0.095	-0.025
-577.763	-200.000	-0.095	0.501
-576.748	-22.167	-0.321	0.198
-575.733	26.445	0.055	-0.046
-574.719	-168.053	-0.157	-0.006
-573.704	-79.867	-0.333	-0.114
-572.690	800.000	-0.017	-0.070
-571.675	75.217	-0.229	0.245
-570.661	-200.000	-0.002	0.181
-569.646	209.799	-0.115	0.182
-568.631	69.570	0.134	-0.140
-567.617	-68.479	0.111	0.044
-566.602	-200.000	-0.015	-0.238
-565.588	411.135	0.012	-0.026
-564.573	800.000	0.028	0.121
-563.558	-6.124	0.026	0.018
-562.544	-118.092	-0.311	-0.056
-561.529	610.952	-0.105	0.266
-560.515	312.804	0.144	-0.275
-559.500	-18.599	-0.209	-0.132
-558.485	-47.642	-0.427	0.210
-557.471	-37.365	0.208	0.113
-556.456	160.817	0.134	-0.190
-555.442	-200.000	0.000	0.026
-554.427	150.245	0.193	0.265
-553.412	334.098	0.059	0.115
-552.398	170.655	0.108	-0.157
-551.383	-80.168	0.088	0.030
-550.369	-22.976	-0.214	-0.131
-549.354	-200.000	-0.034	-0.285
-548.339	-179.106	0.250	0.006
-547.325	218.252	0.067	0.108
-546.310	10.113	-0.433	-0.333
-545.296	28.529	-0.256	-0.220
-544.281	54.209	-0.027	0.026
-543.266	349.559	0.093	0.187
-542.252	-200.000	-0.011	0.129
-541.237	112.073	-0.170	0.209
-540.223	-100.531	-0.208	0.052
-539.208	800.000	-0.062	0.193
-538.193	-31.430	0.085	-0.049
-537.179	-75.782	0.222	-0.080
-536.164	260.319	0.162	-0.283
-535.150	-200.000	-0.009	0.079
-534.135	227.960	0.030	0.050
-533.121	78.572	-0.068	-0.073
-532.106	-59.233	0.032	0.014
-531.091	-107.574	0.272	-0.060
-530.077	-75.428	-0.452	0.163
-529.062	800.000	0.020	0.071
-528.048	-85.919	-0.348	-0.109
-527.033	317.986	0.129	-0.246
-526.018	-200.000	0.026	-0.184
-525.004	152.998	0.266	0.368
-523.989	-130.238	0.422	-0.058
-522.975	-200.000	0.028	-0.201
-521.960	-200.000	0.017	-0.194
-520.945	27.994	-0.263	-0.224
-519.931	71.566	0.138	0.145
-518.916	25.663	0.144	-0.122
-517.902	50.727	-0.109	0.105
-516.887	-92.444	0.033	0.009
-515.872	536.818	-0.024	-0.058
-514.858	60.122	-0.297	0.297
-513.843	-200.000	-0.037	-0.457
-512.829	480.112	-0.002	0.004
-511.814	431.918	0.152	-0.333
-510.799	138.804	-0.147	-0.195
-509.785	-131.484	0.069	-0.009
-508.770	800.000	-0.041	-0.147
-507.756	115.027	0.220	0.272
-506.741	496.743	-0.145	0.337
-505.726	-74.795	-0.216	0.078
-504.712	102.019	-0.215	0.254
-503.697	67.123	0.189	0.195
-502.683	-200.000	0.039	0.260
-501.668	-142.903	-0.093	0.009
-500.653	492.298	0.060	0.140
-499.639	-29.638	0.399	0.230
-498.624	-42.612	0.123	-0.063
-497.610	482.907	0.080	0.183
-496.595	33.149	-0.136	-0.119
-495.581	-200.000	-0.026	-0.315
-494.566	-200.000	0.045	-0.443
-493.551	-200.000	0.050	-0.270
-492.537	-200.000	-0.009	-0.052
-491.522	61.416	-0.146	0.146
-490.508	-29.625	-0.215	0.124
-489.493	201.240	-0.278	0.433
-488.478	288.884	0.102	-0.187
-487.464	9.234	-0.228	-0.175
-486.449	-19.053	0.200	-0.126
-485.435	-38.377	-0.311	0.167
-484.420	50.248	-0.084	0.080
-483.405	97.600	0.139	-0.161
-482.391	-38.375	0.196	0.105
-481.376	-58.503	0.321	0.141
-480.362	-200.000	-0.015	0.338
-479.347	689.083	0.085	-0.224
-478.332	-88.549	0.159	0.048
-477.318	92.626	0.123	0.141
-476.303	-200.000	0.018	-0.283
-475.289	393.378	0.113	-0.239
-474.274	-12.840	0.128	-0.084
-473.259	-107.176	-0.300	0.067
-472.245	-96.500	0.360	0.096
-471.230	800.000	-0.134	-0.503
-470.216	800.000	0.028	0.108
-469.201	-169.170	-0.146	-0.005
-468.186	-160.179	-0.120	0.007
-467.172	-170.186	-0.093	0.003
-466.157	6.413	0.008	0.006
-465.143	88.347	-0.076	0.085
-464.128	800.000	-0.060	0.221
-463.113	361.966	-0.124	-0.252
-462.099	-170.073	-0.043	0.002
-461.084	221.881	-0.088	0.143
-460.070	800.000	0.050	0.182
-459.055	-91.574	0.363	-0.104
-458.040	72.486	0.197	-0.207
-457.026	-50.360	0.130	0.062
-456.011	-51.368	-0.233	-0.110
-454.997	723.313	0.136	-0.365
-453.982	-200.000	-0.260	-0.000
-452.968	253.556	0.217	-0.373
-451.953	-43.113	0.139	-0.071
-450.938	-95.271	-0.211	0.057
-449.924	355.064	-0.139	0.279
-448.909	-68.064	0.164	0.065
-447.895	45.923	0.261	0.244
-446.880	-115.241	-0.137	0.026
-445.865	50.288	0.032	0.030
-444.851	-11.892	0.204	0.135
-443.836	111.436	-0.065	0.080
-442.822	-79.361	0.123	-0.042
-441.807	83.966	-0.060	0.067
-440.792	85.059	0.061	0.068
-439.778	-68.279	-0.207	0.081
-438.763	-102.200	-0.232	0.056
-437.749	30.180	0.098	0.085
-436.734	-33.517	-0.221	0.123
-435.719	798.583	-0.150	-0.418
-434.705	105.658	-0.074	0.089
-433.690	654.263	-0.124	0.322
-432.676	492.375	0.141	0.325
-431.661	-83.201	-0.379	0.123
-430.646	-200.000	-0.017	-0.107
-429.632	-45.627	-0.276	-0.138
-428.617	-110.935	-0.010	0.002
-427.603	-85.431	-0.251	-0.079
-426.588	-104.988	0.318	0.074
-425.573	104.662	-0.128	0.152
-424.559	-46.866	0.119	-0.059
-423.544	-200.000	0.025	-0.275
-422.530	51.113	-0.161	-0.154
-421.515	130.435	-0.116	-0.150
-420.500	-200.000	-0.006	0.124
-419.486	800.000	-0.082	0.340
-418.471	-106.649	-0.355	0.080
-417.457	23.342	0.074	0.062
-416.442	-92.989	-0.082	-0.023
-415.428	-38.113	-0.117	-0.063
-414.413	427.172	0.010	-0.022
-413.398	800.000	0.086	-0.303
-412.384	-77.420	0.392	-0.137
-411.369	-150.118	0.069	0.005
-410.355	800.000	-0.033	-0.106
-409.340	-131.840	-0.208	-0.027
-408.325	800.000	-0.055	0.209
-407.311	-85.535	-0.144	-0.045
-406.296	129.624	0.199	0.257
-405.282	184.168	-0.012	-0.018
-404.267	36.872	-0.283	0.252
-403.252	-120.795	-0.239	-0.041
-402.238	800.000	0.015	-0.059
-401.223	-62.654	0.044	0.018
-400.209	-108.289	-0.441	0.096
-399.194	260.458	0.220	-0.384
-398.179	204.546	0.034	-0.053
-397.165	800.000	-0.036	0.120
-396.150	91.782	0.206	0.233
-395.136	544.750	-0.078	-0.188
-394.121	583.499	0.102	-0.252
-393.106	-200.000	-0.008	-0.211
-392.092	-140.834	-0.183	-0.019
-391.077	105.832	0.070	0.083
-390.063	-31.888	-0.128	0.072
-389.048	-50.708	0.108	0.051
-388.033	69.905	-0.074	0.077
-387.019	-149.492	0.331	-0.026
-386.004	-73.214	0.305	-0.112
-384.990	-88.860	0.145	-0.043
-383.975	61.925	-0.102	0.103
-382.960	13.949	-0.227	-0.178
-381.946	800.000	-0.009	-0.027
-380.931	-33.706	0.345	0.192
-379.917	255.009	-0.061	0.105
-378.902	-45.810	0.328	0.163
-377.888	800.000	0.035	-0.149
-376.873	800.000	-0.024	0.090
-375.858	800.000	0.168	0.471
-374.844	800.000	-0.142	0.600
-373.829	514.234	0.045	-0.105
-372.815	-118.098	-0.289	-0.052
-371.800	-181.269	0.181	0.004
-370.785	211.590	-0.182	0.288
-369.771	-157.272	0.472	-0.029
-368.756	800.000	-0.101	-0.371
-367.742	281.046	0.105	-0.188
-366.727	131.276	0.188	-0.243
-365.712	217.535	0.113	0.181
-364.698	-200.000	-0.018	-0.227
-363.683	-48.805	0.125	0.060
-362.669	68.968	0.120	-0.124
-361.654	-44.178	0.186	0.094
-360.639	397.844	0.127	-0.266
-359.625	150.676	-0.258	0.353
-358.610	-200.000	-0.032	0.273
-357.596	-200.000	-0.031	-0.305
-356.581	3.591	-0.093	0.069
-355.566	488.275	0.200	-0.459
-354.552	-142.171	-0.342	0.034
-353.537	-102.204	0.362	-0.088
-352.523	-102.638	0.280	-0.067
-351.508	508.126	0.098	-0.230
-350.493	24.804	0.383	0.319
-349.479	422.037	0.143	-0.308
-348.464	800.000	0.045	0.157
-347.450	800.000	-0.055	-0.194
-346.435	-104.616	0.151	0.035
-345.420	-200.000	-0.020	-0.125
-344.406	93.103	0.036	-0.041
-343.391	-23.569	-0.325	0.196
-342.377	759.537	0.102	0.277
-341.362	-50.430	-0.174	-0.083
-340.348	800.000	0.093	-0.334
-339.333	-124.628	-0.021	0.003
-338.318	-150.296	0.281	-0.022
-337.304	-4.140	0.114	0.079
-336.289	214.284	-0.262	0.418
-335.275	-74.975	-0.081	0.029
-334.260	590.030	0.109	0.271
-333.245	-136.040	0.355	-0.042
-332.231	457.886	0.156	-0.349
-331.216	-200.000	0.017	0.111
-330.202	-90.638	-0.091	0.026
-329.187	-44.557	-0.360	0.181
-328.172	-200.000	0.012	-0.211
-327.158	65.472	-0.170	0.173
-326.143	144.984	0.054	0.072
-325.129	-30.196	-0.045	-0.026
-324.114	-160.681	-0.040	0.002
-323.099	618.321	-0.079	-0.200
-322.085	800.000	-0.074	0.237
-321.070	-136.705	-0.381	0.044
-320.056	112.652	0.090	-0.110
-319.041	227.001	-0.188	0.307
-318.026	81.099	-0.219	0.237
-317.012	589.305	0.123	0.306
-315.997	120.366	-0.201	-0.250
-314.983	-23.012	0.030	0.018
-313.968	169.354	-0.171	-0.246
-312.953	173.345	0.129	-0.186
-311.939	66.861	0.205	0.210
-310.924	-200.000	-0.003	-0.039
-309.910	594.242	-0.091	0.225
-308.895	446.078	0.165	0.363
-307.880	800.000	0.079	0.287
-306.866	180.107	-0.237	0.349
-305.851	67.476	-0.152	0.155
-304.837	-200.000	-0.016	-0.335
-303.822	-200.000	0.012	0.403
-302.807	24.316	-0.075	-0.062
-301.793	145.954	-0.126	0.169
-300.778	-96.854	-0.367	-0.097
-299.764	-60.667	-0.300	0.128
-298.749	273.365	0.068	-0.120
-297.735	-0.947	0.214	-0.152
-296.720	176.822	-0.246	-0.359
-295.705	267.086	0.113	-0.198
-294.691	152.955	0.259	0.356
-293.676	82.637	-0.255	0.278
-292.662	-200.000	0.237	0.000
-291.647	-109.472	-0.280	0.059
-290.632	-1.152	-0.083	-0.059
-289.618	755.653	-0.055	0.148
-288.603	-59.311	0.331	-0.143
-287.589	73.368	0.185	-0.195
-286.574	-80.655	-0.380	0.127
-285.559	-102.526	0.345	-0.083
-284.545	-188.257	-0.166	0.002
-283.530	-200.000	0.052	0.276
-282.516	62.672	0.047	0.048
-281.501	38.711	-0.157	0.140
-280.486	-84.874	0.144	-0.045
-279.472	424.242	0.109	-0.234
-278.457	118.012	-0.113	0.140
-277.443	-200.000	-0.014	0.444
-276.428	-200.000	-0.010	-0.250
-275.413	-64.022	0.303	-0.124
-274.399	165.198	0.051	-0.072
-273.384	462.346	-0.152	-0.341
-272.370	133.479	0.132	0.171
-271.355	800.000	-0.039	0.113
-270.340	-79.639	-0.265	0.090
-269.326	68.389	0.098	0.101
-268.311	220.197	0.189	-0.303
-267.297	91.458	0.077	-0.087
-266.282	278.829	-0.079	0.140
-265.267	122.975	-0.052	-0.066
-264.253	-67.810	0.145	0.057
-263.238	800.000	-0.067	0.201
-262.224	-10.916	0.298	0.197
-261.209	-200.000	0.027	-0.373
-260.195	519.595	0.104	-0.245
-259.180	99.406	0.063	-0.073
-258.165	-164.986	0.265	-0.012
-257.151	-18.943	0.190	-0.118
-256.136	338.744	0.105	0.206
-255.122	2.255	-0.139	-0.101
-254.107	554.869	0.042	-0.101
-253.092	-8.003	-0.266	0.180
-252.078	-110.077	0.177	0.037
-251.063	15.508	-0.110	-0.086
-250.049	-106.194	-0.198	-0.045
-249.034	420.391	-0.050	0.108
-248.019	-23.958	0.148	0.089
-247.005	61.777	0.166	-0.166
-245.990	-94.486	0.132	0.036
-244.976	-27.727	0.110	-0.064
-243.961	6.278	-0.155	-0.115
-242.946	360.912	0.049	-0.099
-241.932	-43.559	0.111	-0.056
-240.917	619.164	-0.106	0.268
-239.903	-149.414	0.109	0.009
-238.888	-36.255	-0.019	-0.010
-237.873	-94.543	0.340	-0.093
-236.859	551.914	0.150	-0.361
-235.844	91.687	0.114	-0.128
-234.830	-200.000	-0.033	-0.481
-233.815	-95.213	0.093	0.025
-232.800	800.000	0.028	0.105
-231.786	-64.234	0.407	-0.166
-230.771	800.000	-0.046	0.146
-229.757	-3.635	-0.394	0.274
-228.742	-34.577	-0.171	-0.094
-227.727	-129.193	0.323	0.045
-226.713	145.103	-0.064	-0.086
-225.698	208.286	0.087	0.136
-224.684	122.618	-0.195	-0.244
-223.669	66.215	-0.160	0.163
-222.655	-200.000	0.033	-0.160
-221.640	614.657	-0.078	-0.195
-220.625	-99.370	-0.254	-0.064
-219.611	172.241	-0.189	-0.272
-218.596	-49.850	-0.089	-0.042
-217.582	284.143	-0.014	0.026
-216.567	673.611	0.090	0.233
-215.552	-174.487	0.180	-0.005
-214.538	-200.000	-0.017	-0.085
-213.523	-200.000	-0.033	0.147
-212.509	45.568	0.066	-0.061
-211.494	284.762	0.053	-0.095
-210.479	-17.559	0.267	0.168
-209.465	267.370	-0.013	0.022
-208.450	427.164	-0.080	-0.172
-207.436	-191.263	0.083	-0.001
-206.421	-200.000	0.008	0.136
-205.406	-24.153	-0.162	-0.097
-204.392	33.526	-0.310	-0.269
-203.377	-200.000	-0.063	-0.314
-202.363	552.445	-0.103	-0.247
-201.348	-200.000	0.001	-0.200
-200.333	144.765	0.094	-0.126
-199.319	-200.000	-0.007	-0.256
-198.304	800.000	-0.028	0.080
-197.290	54.928	0.316	-0.305
-196.275	-24.011	-0.211	-0.126
-195.260	-106.651	-0.396	-0.088
-194.246	-113.783	0.152	-0.030
-193.231	23.115	-0.118	-0.097
-192.217	-200.000	0.025	-0.175
-191.202	6.054	-0.084	-0.062
-190.187	-151.433	0.401	-0.030
-189.173	553.574	0.093	0.225
-188.158	339.272	-0.060	-0.117
-187.144	-15.521	-0.169	-0.108
-186.129	-125.440	0.195	0.030
-185.114	96.103	0.154	0.175
-184.100	-94.839	0.095	0.026
-183.085	-61.548	-0.093	-0.039
-182.071	-200.000	0.094	-0.425
-181.056	-70.745	-0.376	-0.142
-180.042	800.000	0.079	-0.301
-179.027	215.196	0.264	0.419
-178.012	-111.205	-0.250	0.051
-176.998	800.000	0.071	-0.219
-175.983	512.391	0.021	-0.050
-174.969	-200.000	-0.019	0.306
-173.954	406.654	0.094	-0.198
-172.939	603.421	-0.178	-0.443
-171.925	-162.221	0.114	0.006
-170.910	-34.493	0.287	0.157
-169.896	74.733	0.196	-0.206
-168.881	-105.645	-0.426	-0.096
-167.866	205.685	0.039	-0.061
-166.852	-200.000	-0.006	0.321
-165.837	800.000	-0.043	0.126
-164.823	61.784	0.217	0.216
-163.808	-19.368	0.257	-0.159
-162.793	176.369	-0.096	-0.139
-161.779	625.549	-0.118	0.297
-160.764	62.242	-0.141	0.140
-159.750	569.683	-0.077	0.186
-158.735	72.632	0.095	-0.098
-157.720	-200.000	-0.018	-0.385
-156.706	-103.172	-0.095	0.022
-155.691	-91.363	-0.106	0.030
-154.677	97.051	-0.122	0.139
-153.662	-87.009	-0.074	0.022
-152.647	-200.000	0.017	0.132
-151.633	-73.826	0.423	-0.154
-150.618	800.000	0.065	0.193
-149.604	198.707	-0.144	-0.220
-148.589	56.399	0.226	-0.220
-147.574	260.336	0.065	0.112
-146.560	-56.145	-0.485	0.216
-145.545	113.174	-0.119	-0.144
-144.531	87.349	0.134	-0.148
-143.516	800.000	-0.037	0.142
-142.502	-113.624	-0.232	-0.045
-141.487	95.951	-0.108	-0.123
-140.472	243.897	-0.116	-0.194
-139.458	46.284	0.218	0.202
-138.443	357.152	0.053	-0.105
-137.429	21.056	-0.105	-0.085
-136.414	502.793	-0.029	0.067
-135.399	168.933	-0.098	-0.139
-134.385	370.274	-0.122	-0.247
-133.370	800.000	0.017	-0.064
-132.356	800.000	0.058	-0.209
-131.341	-200.000	-0.022	-0.102
-130.326	341.371	0.073	0.143
-129.312	-92.798	-0.117	-0.033
-128.297	45.595	0.301	0.278
-127.283	-200.000	-0.094	0.497
-126.268	-55.213	-0.246	-0.110
-125.253	-15.274	0.117	0.074
-124.239	49.691	0.162	0.152
-123.224	324.358	-0.104	-0.197
-122.210	-91.183	0.098	0.028
-121.195	-70.831	-0.303	-0.114
-120.180	-23.586	-0.135	0.081
-119.166	-113.065	0.300	0.059
-118.151	800.000	-0.114	-0.345
-117.137	-158.098	-0.420	0.025
-116.122	-45.930	0.151	0.074
-115.107	800.000	-0.029	-0.103
-114.093	-200.000	-0.034	-0.323
-113.078	-104.628	0.200	-0.046
-112.064	-200.000	-0.007	-0.225
-111.049	-18.121	0.201	-0.125
-110.034	-200.000	0.082	0.365
-109.020	512.509	-0.122	-0.283
-108.005	-51.647	-0.301	-0.140
-106.991	-46.304	-0.501	-0.246
-105.976	-200.000	-0.026	-0.120
-104.962	-200.000	-0.014	-0.167
-103.947	97.004	-0.035	0.040
-102.932	64.695	-0.233	0.234
-101.918	800.000	0.032	0.106
-100.903	-200.000	0.079	0.000
-99.889	-200.000	0.015	-0.151
-98.874	-128.467	-0.158	0.022
-97.859	54.997	0.080	-0.077
-96.845	274.848	0.142	0.250
-95.830	-92.704	0.525	0.147
-94.816	296.179	0.047	-0.087
-93.801	-28.960	0.127	0.073
-92.786	661.180	-0.160	-0.411
-91.772	-200.000	-0.001	-0.103
-90.757	-33.023	0.130	0.072
-89.743	324.361	0.122	-0.232
-88.728	-62.854	-0.417	-0.172
-87.713	-99.926	-0.133	-0.033
-86.699	-23.438	-0.153	0.092
-85.684	-200.000	-0.034	0.240
-84.670	88.799	0.287	0.318
-83.655	2.205	-0.101	-0.073
-82.640	138.582	0.038	0.050
-81.626	101.840	0.057	0.066
-80.611	800.000	0.083	-0.322
-79.597	-26.116	0.205	-0.120
-78.582	175.376	0.042	-0.060
-77.567	800.000	0.012	-0.039
-76.553	-122.710	0.185	0.030
-75.538	-23.466	0.224	-0.134
-74.524	-164.093	-0.211	0.010
-73.509	-56.159	-0.223	0.099
-72.494	87.059	-0.058	-0.064
-71.480	-69.056	-0.311	-0.119
-70.465	734.840	0.102	0.272
-69.451	-87.775	-0.146	-0.044
-68.436	-200.000	-0.036	-0.179
-67.422	-15.045	-0.306	0.195
-66.407	201.135	0.066	-0.101
-65.392	111.404	0.091	-0.109
-64.378	56.487	0.149	0.144
-63.363	-14.569	0.240	-0.154
-62.349	143.480	-0.189	0.251
-61.334	492.763	-0.343	-0.782
-60.319	-179.123	0.164	-0.004
-59.305	-200.000	0.046	-0.991
-58.290	314.226	0.316	0.591
-57.276	350.069	0.821	1.614
-56.261	-200.000	84.676	506.157
-55.246	455.524	1393.467	3072.673
-54.232	142.157	2623.171	3459.971
-53.217	108.789	2255.798	2680.369
-52.203	48.447	1695.625	1578.836
-51.188	41.008	1423.420	1277.782
-50.173	37.859	1378.479	1217.754
-49.159	56.013	1420.426	1370.181
-48.144	60.590	1439.544	1417.577
-47.130	41.602	1398.373	1258.846
-46.115	37.940	1380.738	1220.066
-45.100	37.623	1375.891	1213.756
-44.086	37.676	1373.173	1211.641
-43.071	37.607	1370.899	1209.160
-42.057	37.656	1368.354	1207.168
-41.042	37.639	1366.795	1205.640
-40.027	37.583	1365.677	1204.261
-39.013	37.706	1363.686	1203.217
-37.998	37.599	1361.669	1200.730
-36.984	37.776	1359.581	1199.933
-35.969	37.783	1358.235	1198.740
-34.954	37.769	1355.835	1196.486
-33.940	37.886	1354.311	1195.813
-32.925	37.772	1353.452	1194.305
-31.911	37.919	1351.451	1193.395
-30.896	37.881	1350.031	1191.862
-29.881	37.844	1349.042	1190.715
-28.867	38.079	1346.770	1190.093
-27.852	37.922	1345.625	1188.078
-26.838	37.850	1344.958	1187.005
-25.823	37.841	1343.268	1185.410
-24.809	37.881	1341.578	1184.115
-23.794	37.812	1340.444	1182.649
-22.779	38.032	1338.598	1182.306
-21.765	37.936	1337.246	1180.485
-20.750	37.953	1335.555	1179.048
-19.736	37.648	1335.135	1176.785
-18.721	37.818	1333.302	1176.148
-17.706	37.780	1331.846	1174.588
-16.692	37.734	1331.152	1173.656
-15.677	37.778	1330.253	1173.078
-14.663	37.814	1328.383	1171.600
-13.648	37.762	1327.748	1170.684
-12.633	37.689	1326.571	1169.162
-11.619	37.719	1325.612	1168.451
-10.604	37.750	1324.554	1167.655
-9.590	37.742	1323.735	1166.837
-8.575	37.682	1322.768	1165.577
-7.560	37.726	1321.723	1164.877
-6.546	37.763	1320.446	1163.927
-5.531	37.687	1319.908	1162.950
-4.517	37.748	1318.884	1162.366
-3.502	37.632	1318.844	1161.596
-2.487	37.710	1317.579	1160.897
-1.473	37.887	1313.053	1157.919
-0.458	37.005	1298.652	1139.985
0.556	32.091	1279.979	1100.606
1.571	28.248	1284.380	1081.634
2.586	26.970	1298.999	1086.208
3.600	25.775	1287.586	1069.477
4.615	22.129	1216.075	989.502
5.629	16.258	1140.185	896.576
6.644	13.153	1119.182	863.770
7.659	13.034	1116.093	860.689
8.673	12.937	1115.434	859.599
9.688	12.816	1113.573	857.461
10.702	13.168	1112.768	858.593
11.717	16.952	1117.784	882.102
12.731	20.974	1122.500	906.711
13.746	19.927	1119.865	899.068
14.761	17.766	1116.162	884.815
15.775	16.511	1113.653	876.246
16.790	15.465	1111.913	869.386
17.804	14.844	1110.116	864.696
18.819	14.236	1108.664	860.347
19.834	13.963	1107.638	858.061
20.848	13.742	1106.441	855.920
21.863	13.474	1105.817	853.980
22.877	13.253	1105.414	852.451
23.892	13.260	1104.483	851.694
24.907	13.196	1103.425	850.474
25.921	13.285	1102.850	850.413
26.936	13.356	1100.759	849.089
27.950	13.469	1099.544	848.658
28.965	13.396	1098.212	847.182
29.980	13.534	1096.579	846.551
30.994	13.497	1095.883	845.749
32.009	13.656	1093.796	844.875
33.023	13.598	1092.736	843.685
34.038	13.510	1091.836	842.468
35.053	13.477	1091.235	841.765
36.067	13.456	1089.983	840.616
37.082	13.459	1089.280	840.014
38.096	13.460	1088.453	839.306
39.111	13.544	1087.756	839.120
40.126	13.341	1086.691	837.198
41.140	13.267	1085.112	835.532
42.155	13.320	1084.025	834.890
43.169	13.213	1083.029	833.512
44.184	13.190	1081.593	832.217
45.199	13.269	1081.083	832.146
46.213	13.335	1079.922	831.511
47.228	13.392	1078.898	830.937
48.242	13.444	1077.692	830.193
49.257	13.451	1076.295	829.082
50.271	13.456	1075.595	828.491
51.286	13.492	1074.503	827.755
52.301	13.358	1074.201	826.784
53.315	13.513	1072.207	825.947
54.330	13.298	1071.420	824.196
55.344	13.315	1070.849	823.766
56.359	13.422	1069.489	823.180
57.374	13.316	1068.919	822.144
58.388	13.328	1067.717	821.208
59.403	13.232	1066.787	819.943
60.417	13.152	1066.289	819.091
61.432	13.162	1065.279	818.289
62.447	13.218	1064.452	817.859
63.461	13.184	1063.011	816.510
64.476	13.170	1062.438	815.930
65.490	13.258	1061.502	815.574
66.505	13.257	1060.750	814.917
67.520	13.303	1059.761	814.315
68.534	13.237	1059.728	813.893
69.549	13.312	1058.664	813.371
70.563	13.152	1058.308	812.241
71.578	13.113	1057.294	811.200
72.593	13.211	1056.060	810.662
73.607	13.101	1056.045	810.039
74.622	13.132	1055.102	809.392
75.636	13.233	1054.130	809.069
76.651	13.162	1053.363	808.063
77.666	13.257	1052.749	807.988
78.680	13.211	1051.725	806.904
79.695	13.197	1050.978	806.190
80.709	13.210	1050.829	806.070
81.724	13.229	1050.506	805.844
82.739	13.317	1049.597	805.500
83.753	13.332	1048.811	804.902
84.768	13.540	1047.756	805.032
85.782	13.534	1046.808	804.204
86.797	13.505	1045.941	803.323
87.812	13.352	1045.114	801.875
88.826	13.253	1044.624	800.951
89.841	13.418	1042.897	800.351
90.855	13.432	1042.374	799.951
91.870	13.538	1041.287	799.557
92.884	13.474	1040.877	798.859
93.899	13.625	1040.075	798.902
94.914	13.535	1038.854	797.462
95.928	13.647	1037.827	797.138
96.943	13.608	1037.040	796.276
97.957	13.528	1036.017	795.040
98.972	13.602	1035.090	794.610
99.987	13.625	1034.461	794.167
101.001	13.481	1033.409	792.602
102.016	13.532	1032.522	792.096
103.030	13.491	1031.792	791.270
104.045	13.556	1030.739	790.701
105.060	13.461	1029.982	789.596
106.074	13.468	1028.886	788.721
107.089	13.238	1028.288	787.100
108.103	13.205	1027.358	786.157
109.118	13.316	1026.117	785.669
110.133	13.276	1025.414	784.869
111.147	13.351	1024.129	784.174
112.162	13.471	1023.327	784.056
113.176	13.339	1022.962	783.085
114.191	13.346	1021.924	782.253
115.206	13.368	1021.301	781.809
116.220	13.326	1020.503	780.929
117.235	13.298	1019.133	779.683
118.249	13.384	1018.126	779.250
119.264	13.406	1017.363	778.696
120.279	13.468	1016.356	778.151
121.293	13.410	1015.798	777.382
122.308	13.418	1014.887	776.655
123.322	13.391	1013.839	775.656
124.337	13.279	1013.184	774.562
125.352	13.359	1011.462	773.550
126.366	13.423	1010.570	773.099
127.381	13.344	1009.570	771.897
128.395	13.269	1008.944	771.000
129.410	13.425	1007.344	770.435
130.424	13.454	1006.867	770.138
131.439	13.364	1006.399	769.294
132.454	13.533	1005.452	769.286
133.468	13.500	1004.689	768.482
134.483	13.524	1003.791	767.836
135.497	13.511	1002.794	766.946
136.512	13.630	1001.816	766.682
137.527	13.470	1001.065	765.300
138.541	13.502	1000.817	765.191
139.556	13.557	999.244	764.173
140.570	13.501	999.150	763.776
141.585	13.631	998.168	763.558
142.600	13.662	997.310	762.976
143.614	13.667	996.254	762.124
144.629	13.700	995.657	761.752
145.643	13.689	994.660	760.869
146.658	13.648	993.547	759.762
147.673	13.654	992.300	758.769
148.687	13.514	991.622	757.545
149.702	13.580	990.816	757.161
150.716	13.513	990.255	756.360
151.731	13.443	989.672	755.528
152.746	13.536	988.896	755.295
153.760	13.572	988.055	754.751
154.775	13.595	987.556	754.406
155.789	13.551	986.677	753.469
156.804	13.719	986.031	753.672
157.819	13.783	985.057	753.152
158.833	13.651	984.887	752.356
159.848	13.761	983.858	751.999
160.862	13.772	982.842	751.208
161.877	13.657	981.455	749.562
162.892	13.693	980.720	749.094
163.906	13.610	979.960	748.074
164.921	13.531	979.155	747.039
165.935	13.632	977.839	746.423
166.950	13.625	977.228	745.859
167.964	13.623	976.779	745.443
168.979	13.753	975.255	744.797
169.994	13.667	974.483	743.752
171.008	13.793	973.513	743.514
172.023	13.724	973.004	742.750
173.037	13.813	972.072	742.370
174.052	13.659	971.616	741.268
175.067	13.833	970.977	741.490
176.081	13.734	970.233	740.418
177.096	13.718	970.124	740.198
178.110	13.727	969.087	739.378
179.125	13.759	968.549	739.045
180.140	13.700	968.083	738.361
181.154	13.726	967.453	737.932
182.169	13.771	967.259	737.919
183.183	13.895	966.095	737.519
184.198	14.015	965.298	737.374
185.213	13.879	964.912	736.412
186.227	14.021	963.973	736.258
187.242	13.989	963.672	735.824
188.256	14.085	963.119	735.760
189.271	14.107	961.927	734.880
190.286	13.975	961.231	733.704
191.300	13.731	960.108	731.704
192.315	13.860	959.313	731.600
193.329	13.735	959.324	730.994
194.344	13.850	958.507	730.814
195.359	13.955	957.757	730.639
196.373	13.890	957.569	730.145
197.388	14.171	957.053	730.924
198.402	14.165	956.369	730.310
199.417	14.196	955.707	729.874
200.432	14.199	955.272	729.489
201.446	14.190	954.687	728.942
202.461	14.226	954.278	728.719
203.475	14.295	953.144	728.090
204.490	14.363	952.192	727.596
205.504	14.177	951.634	726.293
206.519	14.245	950.604	725.742
207.534	14.213	950.184	725.215
208.548	14.193	949.542	724.575
209.563	14.255	948.854	724.258
210.577	14.143	947.867	722.953
211.592	14.226	947.492	722.963
212.607	14.295	946.512	722.451
213.621	14.386	946.097	722.465
214.636	14.257	945.136	721.106
215.650	14.275	944.400	720.558
216.665	14.390	943.450	720.269
217.680	14.503	942.510	719.975
218.694	14.489	942.215	719.627
219.709	14.453	941.866	719.140
220.723	14.413	941.247	718.433
221.738	14.425	940.642	717.957
222.753	14.487	939.497	717.286
223.767	14.492	939.028	716.887
224.782	14.530	938.460	716.553
225.796	14.722	937.793	716.803
226.811	14.659	937.060	715.909
227.826	14.550	936.450	714.915
228.840	14.570	935.520	714.228
229.855	14.652	934.551	713.773
230.869	14.603	933.864	712.977
231.884	14.504	933.741	712.396
232.899	14.523	932.456	711.436
233.913	14.507	931.819	710.819
234.928	14.435	931.401	710.128
235.942	14.595	930.316	709.920
236.957	14.494	930.388	709.481
237.972	14.537	929.832	709.178
238.986	14.440	929.240	708.251
240.001	14.537	928.269	707.860
241.015	14.682	927.387	707.740
242.030	14.682	926.978	707.365
243.045	14.755	926.035	706.892
244.059	14.725	925.555	706.336
245.074	14.629	925.183	705.583
246.088	14.761	924.464	705.533
247.103	14.878	923.517	705.237
248.117	14.857	923.027	704.716
249.132	14.947	922.215	704.413
250.147	14.935	921.980	704.118
251.161	14.863	921.537	703.416
252.176	15.004	920.778	703.366
253.190	15.009	919.842	702.609
254.205	15.061	919.464	702.478
255.220	15.039	918.411	701.518
256.234	15.048	918.115	701.270
257.249	15.092	917.180	700.676
258.263	15.072	916.683	700.150
259.278	15.118	915.580	699.437
260.293	15.158	915.105	699.181
261.307	15.151	914.639	698.734
262.322	15.111	914.148	698.129
263.336	15.200	913.560	697.991
264.351	15.289	912.740	697.670
265.366	15.306	911.869	697.015
266.380	15.156	911.453	696.013
267.395	15.209	910.723	695.615
268.409	15.371	909.603	695.367
269.424	15.158	908.961	693.932
270.439	15.300	907.780	693.559
271.453	15.351	907.322	693.356
272.468	15.321	906.895	692.844
273.482	15.246	906.617	692.264
274.497	15.151	905.846	691.218
275.512	15.234	905.172	690.988
276.526	15.448	904.484	691.283
277.541	15.375	903.960	690.518
278.555	15.420	903.596	690.365
279.570	15.600	902.785	690.425
280.585	15.514	902.241	689.595
281.599	15.321	901.661	688.297
282.614	15.437	900.390	687.743
283.628	15.401	899.959	687.205
284.643	15.446	899.395	686.898
285.657	15.446	898.342	686.034
286.672	15.457	897.891	685.671
287.687	15.554	897.487	685.699
288.701	15.522	896.962	685.106
289.716	15.418	896.514	684.282
290.730	15.484	896.209	684.255
291.745	15.527	895.084	683.513
292.760	15.597	894.421	683.228
293.774	15.549	894.023	682.671
294.789	15.639	893.124	682.289
295.803	15.550	892.580	681.453
296.818	15.666	892.033	681.443
297.833	15.592	891.260	680.493
298.847	15.682	890.569	680.269
299.862	15.685	889.897	679.710
300.876	15.817	889.358	679.771
301.891	15.771	888.717	679.032
302.906	15.850	888.166	678.870
303.920	15.740	888.017	678.253
304.935	15.915	887.237	678.301
305.949	15.929	886.478	677.720
306.964	15.793	885.886	676.661
307.979	15.872	885.175	676.374
308.993	15.838	884.707	675.822
310.008	15.903	883.950	675.441
311.022	15.770	883.646	674.618
312.037	15.913	882.809	674.490
313.052	15.855	882.366	673.861
314.066	15.705	881.701	672.692
315.081	15.771	881.300	672.591
316.095	15.837	880.602	672.265
317.110	15.896	879.883	671.889
318.125	15.922	879.524	671.662
319.139	15.884	878.849	670.936
320.154	15.877	878.575	670.640
321.168	15.981	877.717	670.337
322.183	15.913	877.247	669.648
323.197	15.967	877.049	669.654
324.212	15.916	876.445	668.930
325.227	15.927	875.626	668.291
326.241	16.056	874.708	668.043
327.256	15.806	874.533	666.859
328.270	15.858	873.764	666.417
329.285	16.022	872.987	666.414
330.300	15.910	872.752	665.732
331.314	16.093	871.947	665.784
332.329	16.023	871.464	665.080
333.343	16.093	871.240	665.128
334.358	16.107	870.757	664.755
335.373	16.082	870.308	664.253
336.387	16.176	870.090	664.399
337.402	16.140	869.951	664.093
338.416	16.254	869.339	664.015
339.431	16.280	868.798	663.646
340.446	16.234	868.202	662.949
341.460	16.302	867.743	662.808
342.475	16.296	867.676	662.675
343.489	16.406	867.071	662.584
344.504	16.411	866.441	662.065
345.519	16.513	866.009	662.077
346.533	16.362	865.454	661.002
347.548	16.335	865.177	660.627
348.562	16.353	864.401	660.044
349.577	16.177	863.727	658.786
350.592	16.319	863.187	658.870
351.606	16.262	862.503	658.066
352.621	16.246	861.919	657.500
353.635	16.269	861.398	657.135
354.650	16.320	860.727	656.761
355.665	16.480	859.821	656.634
356.679	16.397	858.905	655.556
357.694	16.453	858.315	655.265
358.708	16.536	857.849	655.173
359.723	16.541	857.562	654.915
360.738	16.577	856.337	654.060
361.752	16.467	855.858	653.212
362.767	16.700	855.476	653.761
363.781	16.594	855.154	653.048
364.796	16.765	854.402	653.074
365.810	16.722	854.513	652.937
366.825	16.743	854.008	652.573
367.840	16.815	853.153	652.141
368.854	16.673	852.714	651.201
369.869	16.791	852.136	651.157
370.883	16.788	851.776	650.812
371.898	16.746	851.524	650.399
372.913	16.892	851.352	650.771
373.927	16.798	850.289	649.540
374.942	16.895	849.771	649.460
375.956	16.929	849.562	649.372
376.971	16.903	849.143	648.894
377.986	17.073	848.610	649.080
379.000	17.029	847.848	648.274
380.015	16.999	847.176	647.585
381.029	17.082	846.879	647.619
382.044	17.099	846.554	647.378
383.059	17.018	846.004	646.592
384.073	16.973	845.155	645.712
385.088	17.006	844.515	645.294
386.102	16.970	843.828	644.575
387.117	17.211	843.136	644.902
388.132	17.073	842.473	643.817
389.146	16.918	842.098	642.885
390.161	17.075	841.878	643.254
391.175	17.184	841.481	643.309
392.190	17.003	841.010	642.206
393.205	17.040	840.304	641.748
394.219	17.033	840.014	641.446
395.234	17.035	839.660	641.125
396.248	17.040	838.827	640.453
397.263	16.931	838.672	639.865
398.278	16.991	838.498	639.904
399.292	16.996	837.755	639.296
400.307	17.059	837.218	639.069
401.321	17.248	836.347	639.057
402.336	17.038	836.013	637.954
403.350	17.278	835.365	638.308
404.365	17.176	835.410	637.902
405.380	17.138	834.657	637.126
406.394	17.263	834.007	637.042
407.409	17.524	833.836	637.833
408.423	17.353	833.728	637.054
409.438	17.323	833.447	636.670
410.453	17.368	832.893	636.359
411.467	17.565	831.913	636.291
412.482	17.499	831.793	635.898
413.496	17.504	831.575	635.692
414.511	17.553	831.102	635.459
415.526	17.620	830.373	635.092
416.540	17.543	830.061	634.513
417.555	17.558	829.526	634.104
418.569	17.504	829.247	633.633
419.584	17.595	828.568	633.396
420.599	17.585	828.218	633.033
421.613	97.371	1279.294	1411.986
422.628	84.049	1345.042	1412.100
