DTS Sentinel unit serial number:	SN413079Multiplexer serial number:	ORYXHardware model number:	OX4-SRSoftware version number:	ORYX F/W v4.00 Oryx Data Collector v3.7.2.0data status	okinstallation	princeton_trtdifferential loss correction	single-endedforward channel	channel 1reverse channel	N/Adate	2019/09/18time	16:54:35forward acquisition time	60.00reverse acquisition time	0.00gamma	496.2192k internal	0.2292k external	0.2292temperature offset calibration	1.0001default loss term (dB/km)	0.3790temperature slope calibration	1.0000multiplexer offset coefficient	1.0000multiplexer slope coefficient	1.0000fibre end	0.00T internal ref (°C)	40.00T ext. ref 1 (°C)	0.86T ext. ref 2 (°C)	34.69length (m)	temperature (°C)	Stokes	anti-Stokes-747.200	-61.660	0.145	-0.062
-746.185	391.846	-0.098	0.209
-745.171	178.898	0.166	-0.249
-744.156	162.986	-0.271	0.390
-743.142	631.040	0.122	-0.316
-742.127	147.539	-0.091	-0.126
-741.112	800.000	-0.082	0.318
-740.098	800.000	0.084	0.314
-739.083	800.000	-0.023	-0.067
-738.069	483.785	0.025	0.058
-737.054	-138.737	-0.252	-0.028
-736.039	-66.564	-0.304	0.124
-735.025	-69.801	-0.241	-0.094
-734.010	-51.407	-0.335	-0.160
-732.996	5.213	-0.336	-0.254
-731.981	-35.631	-0.213	0.118
-730.966	-90.052	0.215	-0.064
-729.952	-200.000	0.059	-0.506
-728.937	-200.000	0.002	0.178
-727.923	-80.784	0.273	0.093
-726.908	-44.866	-0.097	0.050
-725.894	-13.238	0.139	-0.092
-724.879	-102.310	-0.380	-0.093
-723.864	405.841	-0.087	0.188
-722.850	166.694	0.160	0.232
-721.835	-78.271	0.232	0.081
-720.821	-61.539	0.302	0.130
-719.806	800.000	0.023	0.087
-718.791	-41.587	-0.075	0.039
-717.777	26.063	0.299	-0.255
-716.762	-200.000	-0.044	-0.471
-715.748	350.771	0.094	-0.189
-714.733	800.000	0.088	0.324
-713.718	-45.179	0.144	0.073
-712.704	800.000	0.112	0.350
-711.689	80.152	0.174	0.191
-710.675	64.002	-0.126	-0.130
-709.660	-65.332	0.042	-0.017
-708.645	125.039	0.259	-0.333
-707.631	800.000	-0.018	0.076
-706.616	565.480	-0.041	-0.101
-705.602	-123.865	0.088	0.014
-704.587	142.483	-0.044	-0.059
-703.572	800.000	-0.045	-0.179
-702.558	14.307	0.325	-0.259
-701.543	48.906	-0.035	-0.034
-700.529	0.728	0.041	0.030
-699.514	62.182	0.127	0.130
-698.499	410.244	-0.042	0.091
-697.485	-200.000	-0.191	0.001
-696.470	-38.691	0.384	-0.207
-695.456	-108.036	0.366	0.081
-694.441	314.286	0.069	-0.133
-693.426	-200.000	0.012	-0.234
-692.412	-200.000	0.008	0.199
-691.397	-28.356	0.194	0.114
-690.383	72.019	-0.250	-0.265
-689.368	553.646	-0.049	-0.120
-688.354	225.488	-0.087	-0.144
-687.339	800.000	0.080	-0.346
-686.324	62.364	-0.356	0.363
-685.310	-200.000	0.014	0.109
-684.295	39.138	-0.049	0.045
-683.281	-130.611	-0.215	0.030
-682.266	-21.733	-0.149	0.093
-681.251	-200.000	0.005	-0.256
-680.237	741.733	0.092	-0.252
-679.222	-103.751	-0.385	0.092
-678.208	-200.000	-0.006	-0.082
-677.193	800.000	0.045	0.191
-676.178	49.159	0.202	-0.194
-675.164	111.122	0.194	-0.238
-674.149	82.639	-0.048	0.053
-673.135	800.000	-0.056	0.248
-672.120	800.000	-0.135	-0.411
-671.105	64.967	-0.152	0.156
-670.091	800.000	-0.157	-0.481
-669.076	51.406	-0.279	0.271
-668.062	-200.000	0.055	0.411
-667.047	-87.955	0.237	0.073
-666.032	160.911	-0.192	0.274
-665.018	388.608	-0.137	0.290
-664.003	-19.725	0.147	-0.093
-662.989	-200.000	-0.010	-0.082
-661.974	-154.878	0.411	-0.028
-660.959	-52.307	-0.121	0.057
-659.945	-27.198	-0.129	0.077
-658.930	-50.099	0.387	-0.187
-657.916	-76.862	0.316	0.113
-656.901	606.433	-0.099	0.252
-655.886	381.117	0.101	0.212
-654.872	-200.000	-0.017	-0.146
-653.857	-76.525	-0.378	0.136
-652.843	-200.000	0.030	-0.196
-651.828	-146.995	-0.453	0.040
-650.814	-124.262	0.095	-0.015
-649.799	-82.946	0.118	0.039
-648.784	-200.000	-0.024	0.182
-647.770	800.000	-0.111	0.447
-646.755	125.233	-0.181	0.232
-645.741	-2.976	0.187	0.133
-644.726	-55.391	-0.356	0.163
-643.711	532.848	0.137	0.331
-642.697	-200.000	-0.026	0.345
-641.682	61.706	-0.151	0.153
-640.668	800.000	-0.077	-0.276
-639.653	109.664	0.174	-0.212
-638.638	264.051	0.159	-0.281
-637.624	366.673	0.116	-0.239
-636.609	103.800	-0.132	0.158
-635.595	-68.968	0.320	0.126
-634.580	-157.816	-0.133	0.008
-633.565	800.000	0.072	-0.209
-632.551	-154.371	-0.102	0.007
-631.536	-200.000	0.014	-0.195
-630.522	800.000	0.042	0.125
-629.507	-117.774	0.072	-0.013
-628.492	800.000	-0.090	0.284
-627.478	800.000	0.055	-0.170
-626.463	-200.000	-0.072	-0.498
-625.449	-119.286	0.231	0.041
-624.434	-67.888	0.391	-0.156
-623.419	34.321	0.195	-0.174
-622.405	84.435	0.266	-0.296
-621.390	-200.000	-0.007	-0.032
-620.376	-197.671	0.238	-0.001
-619.361	-99.989	-0.092	0.023
-618.346	-70.839	0.059	0.023
-617.332	-84.702	0.033	0.011
-616.317	-90.891	0.051	-0.015
-615.303	-45.001	-0.296	0.150
-614.288	247.802	0.092	-0.159
-613.273	800.000	0.052	0.148
-612.259	168.359	0.190	0.275
-611.244	198.204	0.113	-0.176
-610.230	-104.600	0.355	0.083
-609.215	-149.394	-0.149	-0.012
-608.201	-89.325	-0.175	-0.052
-607.186	-200.000	0.022	0.430
-606.171	-130.488	-0.191	-0.026
-605.157	-142.706	-0.038	-0.004
-604.142	-200.000	-0.050	0.263
-603.128	-135.102	-0.180	0.022
-602.113	-51.386	0.054	0.026
-601.098	-18.008	-0.412	0.263
-600.084	6.940	-0.177	-0.134
-599.069	115.782	-0.056	-0.069
-598.055	63.700	-0.190	-0.194
-597.040	34.140	-0.223	-0.197
-596.025	-176.659	-0.325	0.008
-595.011	800.000	-0.101	0.340
-593.996	800.000	-0.071	0.286
-592.982	-29.392	-0.125	0.073
-591.967	395.332	0.165	-0.351
-590.952	-41.405	-0.056	-0.029
-589.938	99.486	-0.165	-0.194
-588.923	-200.000	-0.027	0.187
-587.909	-45.359	-0.289	-0.146
-586.894	-200.000	-0.030	0.192
-585.879	-55.205	-0.191	0.087
-584.865	-98.474	-0.159	-0.041
-583.850	177.045	-0.060	-0.089
-582.836	-200.000	0.001	-0.272
-581.821	-200.000	0.046	0.304
-580.806	-200.000	-0.004	0.040
-579.792	127.062	0.087	0.112
-578.777	-87.866	-0.442	0.135
-577.763	476.843	0.122	-0.281
-576.748	-70.724	0.177	-0.068
-575.733	-200.000	0.044	0.201
-574.719	-104.397	-0.067	-0.016
-573.704	-151.705	-0.262	-0.020
-572.690	-200.000	0.003	0.056
-571.675	-200.000	0.043	0.204
-570.661	162.118	0.120	-0.171
-569.646	37.746	-0.091	0.082
-568.631	-25.417	-0.236	0.142
-567.617	-35.403	-0.059	0.032
-566.602	339.868	-0.082	-0.163
-565.588	800.000	-0.110	0.346
-564.573	-47.659	-0.108	-0.053
-563.558	10.103	-0.184	0.142
-562.544	76.490	-0.237	0.255
-561.529	97.452	-0.118	0.137
-560.515	-69.325	-0.044	0.017
-559.500	-107.287	-0.122	-0.027
-558.485	166.042	-0.149	-0.214
-557.471	91.992	0.193	0.220
-556.456	800.000	0.100	0.329
-555.442	800.000	0.063	-0.201
-554.427	182.038	-0.111	0.166
-553.412	800.000	-0.010	-0.036
-552.398	800.000	-0.084	-0.335
-551.383	105.617	-0.161	-0.194
-550.369	-82.708	0.256	-0.084
-549.354	800.000	-0.102	-0.338
-548.339	800.000	-0.064	-0.283
-547.325	57.253	-0.061	0.060
-546.310	-189.623	0.105	-0.001
-545.296	-112.582	0.291	0.059
-544.281	146.209	0.090	-0.123
-543.266	1.674	0.183	0.134
-542.252	102.215	-0.265	0.314
-541.237	-82.022	0.199	-0.066
-540.223	-200.000	0.001	-0.011
-539.208	529.813	-0.126	0.301
-538.193	28.219	-0.321	0.275
-537.179	-16.601	0.067	-0.043
-536.164	-124.841	-0.201	-0.032
-535.150	232.883	-0.101	-0.168
-534.135	-74.667	0.038	-0.014
-533.121	202.122	-0.159	-0.249
-532.106	154.721	-0.085	0.118
-531.091	800.000	0.118	-0.344
-530.077	106.290	-0.167	0.201
-529.062	76.619	-0.281	0.302
-528.048	-56.101	-0.177	-0.080
-527.033	-200.000	-0.010	-0.299
-526.018	9.946	-0.091	-0.070
-525.004	-70.625	-0.184	-0.071
-523.989	103.621	-0.205	0.244
-522.975	166.427	0.211	-0.304
-521.960	87.256	-0.176	-0.198
-520.945	191.679	-0.044	-0.068
-519.931	800.000	0.104	0.311
-518.916	151.724	-0.167	-0.231
-517.902	-91.302	0.306	-0.089
-516.887	-100.507	0.322	-0.081
-515.872	-200.000	0.053	0.434
-514.858	-126.002	-0.047	-0.007
-513.843	605.356	-0.142	-0.359
-512.829	303.922	0.187	-0.352
-511.814	-124.385	0.233	-0.037
-510.799	86.898	0.022	-0.024
-509.785	-200.000	0.039	0.377
-508.770	84.910	-0.166	-0.184
-507.756	387.060	0.121	-0.254
-506.741	-200.000	0.019	0.116
-505.726	-103.268	-0.188	0.045
-504.712	-130.787	0.156	-0.021
-503.697	800.000	-0.006	-0.025
-502.683	127.589	-0.025	0.033
-501.668	2.301	0.059	-0.043
-500.653	-178.582	0.082	-0.002
-499.639	800.000	-0.114	-0.330
-498.624	50.207	-0.121	-0.116
-497.610	-200.000	0.004	0.198
-496.595	139.337	0.033	-0.044
-495.581	222.848	-0.106	0.173
-494.566	-142.743	0.162	-0.016
-493.551	603.669	-0.115	0.290
-492.537	-200.000	-0.010	0.298
-491.522	-200.000	-0.005	0.084
-490.508	800.000	0.053	0.181
-489.493	-200.000	-0.053	-0.268
-488.478	-200.000	0.010	-0.050
-487.464	450.899	0.141	-0.317
-486.449	-200.000	-0.022	-0.109
-485.435	-31.732	0.230	-0.131
-484.420	437.136	0.140	-0.308
-483.405	-67.704	0.330	0.131
-482.391	-6.248	0.185	0.128
-481.376	-200.000	0.036	0.179
-480.362	-42.147	-0.047	-0.024
-479.347	167.369	-0.073	0.105
-478.332	18.392	-0.130	-0.106
-477.318	677.819	0.073	-0.193
-476.303	371.953	0.087	0.179
-475.289	247.841	0.104	-0.177
-474.274	-54.515	0.222	-0.102
-473.259	-137.863	0.076	-0.009
-472.245	-200.000	-0.011	-0.053
-471.230	800.000	-0.028	-0.121
-470.216	-101.915	-0.339	-0.083
-469.201	800.000	-0.051	0.211
-468.186	291.839	0.089	0.164
-467.172	67.094	0.138	-0.143
-466.157	84.121	-0.238	-0.263
-465.143	9.480	0.192	-0.147
-464.128	-127.357	0.221	0.033
-463.113	-200.000	-0.275	-0.001
-462.099	-80.873	0.130	0.044
-461.084	-34.828	0.436	0.241
-460.070	11.179	-0.260	0.201
-459.055	88.005	0.038	0.042
-458.040	-21.265	-0.198	-0.122
-457.026	-94.454	-0.247	-0.068
-456.011	236.338	0.075	-0.126
-454.997	30.802	-0.022	-0.019
-453.982	23.122	-0.208	0.172
-452.968	-200.000	0.012	0.110
-451.953	-90.532	0.059	-0.017
-450.938	181.092	-0.064	0.095
-449.924	-200.000	0.046	0.218
-448.909	307.032	-0.077	0.144
-447.895	-124.475	-0.276	0.044
-446.880	153.031	0.144	0.200
-445.865	129.708	-0.239	0.309
-444.851	800.000	0.061	-0.232
-443.836	800.000	-0.069	-0.255
-442.822	20.857	0.209	-0.171
-441.807	72.396	-0.212	-0.223
-440.792	-95.729	-0.245	0.066
-439.778	7.335	-0.095	0.072
-438.763	508.971	0.047	0.109
-437.749	800.000	0.037	-0.123
-436.734	800.000	0.093	-0.262
-435.719	199.794	0.044	-0.068
-434.705	199.276	-0.104	0.161
-433.690	132.033	-0.126	0.164
-432.676	-166.481	-0.096	-0.004
-431.661	-200.000	0.056	0.304
-430.646	-168.166	-0.258	-0.010
-429.632	-200.000	-0.005	-0.112
-428.617	-200.000	0.029	-0.282
-427.603	613.792	-0.073	0.184
-426.588	-200.000	0.029	0.433
-425.573	800.000	-0.083	-0.325
-424.559	767.630	0.049	-0.136
-423.544	-43.410	-0.099	0.050
-422.530	21.128	0.061	-0.050
-421.515	-177.080	-0.346	-0.009
-420.500	-200.000	-0.038	-0.352
-419.486	43.721	0.137	0.127
-418.471	20.748	-0.020	0.017
-417.457	-200.000	0.023	0.269
-416.442	800.000	-0.031	-0.110
-415.428	-97.116	0.438	0.116
-414.413	154.940	-0.110	-0.153
-413.398	25.132	0.190	0.160
-412.384	-109.189	-0.316	0.068
-411.369	800.000	0.025	-0.079
-410.355	45.514	0.163	0.152
-409.340	800.000	0.022	-0.086
-408.325	-200.000	-0.012	0.154
-407.311	-200.000	-0.011	-0.108
-406.296	-108.030	-0.119	0.026
-405.282	633.439	-0.059	0.151
-404.267	780.561	0.032	-0.087
-403.252	268.747	-0.181	-0.320
-402.238	244.678	0.079	-0.135
-401.223	40.829	-0.372	0.339
-400.209	800.000	0.031	-0.132
-399.194	140.042	-0.067	-0.090
-398.179	-62.409	0.136	0.057
-397.165	137.357	-0.198	0.262
-396.150	151.945	-0.119	0.165
-395.136	263.350	0.126	0.221
-394.121	800.000	0.060	0.188
-393.106	-68.655	0.212	0.083
-392.092	-200.000	-0.013	0.061
-391.077	-138.165	-0.170	-0.019
-390.063	800.000	0.062	-0.205
-389.048	-168.182	0.319	-0.012
-388.033	-200.000	0.007	-0.137
-387.019	-15.989	0.275	0.177
-386.004	-200.000	0.003	-0.164
-384.990	-102.367	-0.119	-0.029
-383.975	13.226	0.068	0.053
-382.960	175.084	-0.118	-0.172
-381.946	800.000	0.151	0.482
-380.931	-44.974	0.197	0.099
-379.917	533.002	-0.156	0.372
-378.902	-33.128	0.280	-0.156
-377.888	-200.000	0.006	-0.443
-376.873	297.022	0.152	0.281
-375.858	-120.645	0.324	0.055
-374.844	39.678	-0.201	-0.182
-373.829	-200.000	0.018	-0.088
-372.815	-200.000	0.058	-0.348
-371.800	800.000	0.083	0.303
-370.785	36.631	-0.277	0.247
-369.771	42.421	0.078	-0.071
-368.756	635.771	0.092	-0.236
-367.742	-200.000	-0.021	-0.213
-366.727	676.062	0.082	-0.215
-365.712	7.419	-0.135	-0.101
-364.698	-184.560	-0.319	0.005
-363.683	800.000	0.044	0.160
-362.669	-186.833	0.127	0.002
-361.654	602.020	0.034	0.085
-360.639	-191.255	0.259	0.003
-359.625	137.774	-0.407	-0.538
-358.610	-132.878	0.285	0.037
-357.596	800.000	-0.007	0.027
-356.581	-200.000	0.023	-0.199
-355.566	-69.362	0.370	-0.143
-354.552	97.698	-0.277	0.321
-353.537	800.000	-0.074	0.211
-352.523	58.226	0.216	0.214
-351.508	-18.318	-0.195	-0.123
-350.493	-2.400	0.224	0.158
-349.479	23.149	-0.285	-0.236
-348.464	-13.910	0.125	0.081
-347.450	-125.112	-0.309	0.048
-346.435	12.654	0.241	0.188
-345.420	410.085	0.035	-0.075
-344.406	-19.231	-0.171	0.107
-343.391	337.545	-0.070	0.137
-342.377	800.000	0.032	-0.102
-341.362	-20.739	-0.090	0.055
-340.348	295.898	-0.066	-0.121
-339.333	428.553	-0.057	0.124
-338.318	22.504	0.289	-0.238
-337.304	49.690	-0.056	-0.053
-336.289	20.558	0.052	-0.043
-335.275	-163.283	-0.263	-0.013
-334.260	-200.000	-0.007	0.059
-333.245	-60.590	-0.048	-0.021
-332.231	-34.683	-0.117	-0.065
-331.216	0.537	-0.180	-0.130
-330.202	155.824	0.268	-0.372
-329.187	148.266	0.158	0.215
-328.172	800.000	0.069	-0.232
-327.158	-49.235	0.188	-0.091
-326.143	-162.215	0.124	0.006
-325.129	-90.543	-0.127	-0.037
-324.114	-89.859	-0.203	-0.060
-323.099	711.982	-0.061	0.163
-322.085	-200.000	-0.017	0.447
-321.070	800.000	0.084	0.369
-320.056	285.695	0.059	0.108
-319.041	-200.000	-0.034	0.282
-318.026	-81.906	0.166	0.055
-317.012	797.100	0.053	-0.146
-315.997	800.000	-0.047	-0.151
-314.983	496.767	0.127	-0.294
-313.968	-40.125	0.090	-0.047
-312.953	651.304	0.086	-0.223
-311.939	253.946	0.199	0.342
-310.924	-75.291	0.175	-0.063
-309.910	-189.780	-0.453	-0.005
-308.895	-69.094	0.275	-0.106
-307.880	-155.365	-0.180	0.012
-306.866	-200.000	-0.011	0.083
-305.851	6.558	0.146	0.109
-304.837	-74.516	-0.152	0.055
-303.822	-74.453	-0.154	0.056
-302.807	93.533	0.237	0.270
-301.793	800.000	0.063	0.253
-300.778	-200.000	0.067	0.298
-299.764	-80.071	-0.203	0.068
-298.749	800.000	-0.050	0.196
-297.735	800.000	-0.031	0.090
-296.720	-161.675	0.374	-0.019
-295.705	-107.123	0.197	-0.044
-294.691	429.254	-0.095	-0.206
-293.676	-146.254	0.268	0.024
-292.662	-166.023	0.214	0.009
-291.647	-56.617	-0.341	-0.152
-290.632	-122.748	0.305	-0.050
-289.618	-44.340	-0.127	-0.064
-288.603	57.322	-0.135	0.133
-287.589	-39.041	-0.234	0.124
-286.574	-25.940	-0.212	0.126
-285.559	81.372	0.136	0.148
-284.545	362.717	-0.022	0.044
-283.530	-103.574	0.477	-0.113
-282.516	4.870	-0.022	-0.016
-281.501	-21.609	-0.262	-0.161
-280.486	-90.956	-0.132	-0.038
-279.472	121.562	-0.169	-0.211
-278.457	36.440	-0.151	-0.134
-277.443	134.862	0.094	-0.123
-276.428	53.257	0.169	-0.163
-275.413	-200.000	-0.001	0.006
-274.399	-63.976	-0.185	-0.076
-273.384	-191.293	0.174	0.002
-272.370	-22.788	0.146	0.089
-271.355	318.140	0.076	0.144
-270.340	-26.061	-0.229	0.136
-269.326	-135.331	-0.169	0.020
-268.311	279.858	-0.022	-0.040
-267.297	-156.107	0.302	0.019
-266.282	120.233	0.247	0.308
-265.267	-200.000	0.001	-0.041
-264.253	-88.150	-0.142	0.043
-263.238	-8.184	0.172	-0.116
-262.224	-200.000	-0.009	-0.221
-261.209	800.000	0.013	0.051
-260.195	174.851	0.186	-0.271
-259.180	-105.375	0.081	-0.018
-258.165	308.400	0.151	0.283
-257.151	-103.088	0.423	-0.101
-256.136	-153.643	0.443	-0.031
-255.122	386.976	-0.083	-0.172
-254.107	-8.763	-0.253	-0.170
-253.092	-200.000	0.040	0.285
-252.078	-167.029	0.224	0.009
-251.063	264.379	0.178	-0.312
-250.049	-41.297	-0.451	-0.233
-249.034	133.130	-0.029	-0.038
-248.019	-80.225	0.124	0.042
-247.005	800.000	-0.094	0.363
-245.990	-200.000	-0.009	0.125
-244.976	-200.000	-0.013	0.204
-243.961	-36.974	-0.119	-0.064
-242.946	-200.000	-0.018	0.150
-241.932	800.000	0.056	-0.176
-240.917	-91.893	0.052	0.015
-239.903	0.632	0.062	-0.044
-238.888	-73.440	-0.105	-0.038
-237.873	-114.854	0.082	0.016
-236.859	-33.057	0.157	0.087
-235.844	-76.895	0.293	-0.103
-234.830	-12.838	-0.245	0.160
-233.815	-200.000	0.010	0.186
-232.800	-200.000	0.057	-0.392
-231.786	321.931	0.227	0.433
-230.771	-98.227	0.352	-0.091
-229.757	-29.141	-0.257	-0.148
-228.742	-185.718	0.207	0.003
-227.727	-123.178	0.323	-0.052
-226.713	-200.000	-0.022	-0.110
-225.698	-200.000	0.069	-0.475
-224.684	-17.557	-0.050	0.031
-223.669	-54.186	0.255	-0.116
-222.655	-55.350	-0.129	-0.058
-221.640	-75.610	0.368	-0.131
-220.625	-200.000	0.043	-0.390
-219.611	283.372	0.140	-0.253
-218.596	45.617	-0.080	0.074
-217.582	-120.322	0.242	-0.041
-216.567	-200.000	0.016	-0.287
-215.552	392.550	-0.137	-0.286
-214.538	571.856	-0.114	0.278
-213.523	-46.357	-0.354	0.174
-212.509	-145.039	-0.073	-0.007
-211.494	800.000	0.044	0.184
-210.479	-21.757	0.113	-0.069
-209.465	613.119	-0.009	-0.023
-208.450	161.755	-0.133	-0.186
-207.436	800.000	-0.062	0.176
-206.421	673.149	-0.051	0.132
-205.406	344.188	0.116	-0.228
-204.392	-200.000	0.037	-0.175
-203.377	-50.813	-0.145	0.068
-202.363	246.206	0.200	0.338
-201.348	800.000	0.024	-0.079
-200.333	800.000	0.030	-0.117
-199.319	54.846	0.209	-0.202
-198.304	-200.000	0.010	-0.560
-197.290	-200.000	-0.032	-0.225
-196.275	547.609	0.066	-0.158
-195.260	-133.281	0.159	-0.020
-194.246	-200.000	-0.007	-0.113
-193.231	77.160	0.140	-0.149
-192.217	800.000	0.062	-0.173
-191.202	-159.639	0.306	-0.017
-190.187	-26.005	-0.220	0.130
-189.173	800.000	-0.116	-0.364
-188.158	-200.000	-0.139	0.644
-187.144	-74.809	0.152	-0.055
-186.129	800.000	0.045	-0.133
-185.114	141.116	0.074	-0.098
-184.100	628.417	-0.065	-0.166
-183.085	-200.000	-0.237	-0.001
-182.071	-200.000	0.051	0.377
-181.056	198.565	-0.127	-0.194
-180.042	71.151	0.158	-0.164
-179.027	-200.000	0.052	-0.305
-178.012	800.000	0.043	-0.128
-176.998	-163.210	0.165	-0.008
-175.983	70.096	0.074	-0.076
-174.969	71.700	-0.137	0.143
-173.954	44.273	0.097	0.090
-172.939	374.529	0.151	-0.308
-171.925	-63.922	-0.124	0.051
-170.910	16.623	-0.308	0.244
-169.896	115.301	0.103	-0.125
-168.881	-44.067	-0.194	0.097
-167.866	2.941	-0.048	0.035
-166.852	189.045	-0.222	0.333
-165.837	-123.957	-0.220	-0.035
-164.823	255.474	0.092	-0.157
-163.808	376.928	0.065	0.134
-162.793	-200.000	0.048	0.231
-161.779	38.859	-0.094	0.084
-160.764	173.609	-0.139	0.200
-159.750	-200.000	-0.001	0.153
-158.735	800.000	0.040	0.151
-157.720	37.157	0.007	-0.006
-156.706	-94.029	0.297	-0.082
-155.691	800.000	-0.063	0.182
-154.677	-79.773	-0.168	0.057
-153.662	-3.666	0.150	0.104
-152.647	134.980	-0.065	0.085
-151.633	58.351	-0.269	0.263
-150.618	-95.578	0.686	-0.184
-149.604	187.556	0.090	0.134
-148.589	-45.761	-0.206	0.102
-147.574	800.000	0.097	0.388
-146.560	741.074	-0.109	-0.293
-145.545	605.083	0.128	-0.318
-144.531	764.610	0.133	-0.362
-143.516	404.079	0.102	-0.214
-142.502	-116.236	-0.277	0.051
-141.487	-138.602	0.112	0.012
-140.472	800.000	-0.060	-0.204
-139.458	-200.000	-0.037	0.205
-138.443	-69.562	0.191	-0.073
-137.429	800.000	-0.122	-0.375
-136.414	-43.870	-0.179	-0.090
-135.399	138.502	0.136	0.178
-134.385	-150.639	0.319	0.024
-133.370	-109.923	0.162	-0.034
-132.356	18.927	-0.197	-0.158
-131.341	36.590	-0.224	-0.198
-130.326	120.724	0.213	0.265
-129.312	55.218	-0.082	-0.079
-128.297	309.094	0.028	0.053
-127.283	174.445	0.072	-0.104
-126.268	-41.489	-0.375	0.193
-125.253	244.944	-0.093	-0.156
-124.239	140.892	0.062	-0.082
-123.224	-111.161	-0.152	0.031
-122.210	800.000	-0.072	0.263
-121.195	88.836	0.085	0.094
-120.180	203.180	-0.055	0.085
-119.166	-115.901	0.065	0.012
-118.151	-3.246	0.133	-0.092
-117.137	728.758	-0.020	-0.055
-116.122	374.593	0.149	-0.303
-115.107	-200.000	-0.022	-0.224
-114.093	-154.278	-0.120	-0.008
-113.078	-180.518	0.382	0.008
-112.064	-108.543	0.166	0.036
-111.049	-38.356	-0.162	0.086
-110.034	-44.169	0.434	0.218
-109.020	-38.766	0.269	-0.142
-108.005	614.219	0.069	0.172
-106.991	16.942	-0.162	0.128
-105.976	-200.000	0.049	0.000
-104.962	-200.000	0.022	0.236
-103.947	-94.144	-0.216	-0.059
-102.932	-67.218	-0.225	0.089
-101.918	-13.089	-0.186	0.121
-100.903	80.335	-0.015	0.016
-99.889	149.980	-0.069	0.093
-98.874	-35.616	-0.092	0.050
-97.859	-200.000	0.003	-0.075
-96.845	-158.735	0.213	0.012
-95.830	119.520	0.210	-0.259
-94.816	-128.542	-0.215	-0.030
-93.801	-136.956	0.303	-0.035
-92.786	-131.599	0.309	0.041
-91.772	-200.000	-0.015	0.275
-90.757	-200.000	-0.015	-0.110
-89.743	-117.510	0.270	0.049
-88.728	-200.000	-0.010	0.096
-87.713	-148.590	0.196	-0.016
-86.699	-48.430	0.335	-0.161
-85.684	454.460	0.047	0.104
-84.670	36.363	0.114	0.100
-83.655	800.000	0.024	-0.071
-82.640	501.138	0.176	0.406
-81.626	164.231	-0.193	-0.271
-80.611	-146.315	0.182	-0.016
-79.597	-23.305	0.290	-0.174
-78.582	-48.282	-0.034	-0.016
-77.567	-6.008	0.247	0.168
-76.553	-200.000	-0.023	0.292
-75.538	38.527	-0.092	0.082
-74.524	-127.501	-0.202	0.029
-73.509	181.804	-0.194	0.285
-72.494	306.045	-0.050	0.093
-71.480	-2.078	-0.138	-0.097
-70.465	52.634	0.313	-0.299
-69.451	179.586	-0.157	-0.229
-68.436	-200.000	0.058	0.370
-67.422	-18.017	0.402	0.251
-66.407	-200.000	0.003	0.268
-65.392	109.905	-0.290	-0.347
-64.378	59.696	0.120	0.118
-63.363	-200.000	0.035	-0.197
-62.349	-200.000	0.018	0.107
-61.334	96.611	-0.786	-0.897
-60.319	-182.671	0.123	0.002
-59.305	800.000	-0.174	-0.652
-58.290	23.955	0.670	0.550
-57.276	800.000	0.571	1.586
-56.261	-200.000	77.174	511.270
-55.246	489.871	1349.020	3073.599
-54.232	141.443	2603.163	3433.609
-53.217	112.430	2266.513	2731.978
-52.203	51.279	1708.575	1615.801
-51.188	43.594	1432.388	1305.211
-50.173	40.165	1386.494	1241.866
-49.159	57.714	1422.881	1386.088
-48.144	63.684	1441.728	1442.224
-47.130	43.984	1403.669	1281.305
-46.115	40.151	1386.525	1241.610
-45.100	39.814	1382.241	1235.613
-44.086	39.902	1379.312	1233.499
-43.071	39.698	1377.201	1230.288
-42.057	39.732	1374.979	1228.464
-41.042	39.800	1373.306	1227.347
-40.027	39.914	1371.679	1226.552
-39.013	39.888	1369.755	1224.622
-37.998	39.955	1367.762	1223.205
-36.984	39.978	1365.931	1221.660
-35.969	40.086	1363.812	1220.385
-34.954	40.048	1362.351	1218.792
-33.940	40.063	1360.927	1217.561
-32.925	40.007	1359.758	1216.127
-31.911	40.057	1358.772	1215.501
-30.896	40.103	1356.802	1213.972
-29.881	40.185	1354.933	1212.753
-28.867	40.030	1353.940	1210.872
-27.852	40.097	1352.161	1209.643
-26.838	40.085	1350.787	1208.291
-25.823	40.113	1348.771	1206.612
-24.809	40.071	1347.968	1205.586
-23.794	40.143	1346.162	1204.364
-22.779	40.071	1344.989	1202.829
-21.765	40.121	1343.760	1201.985
-20.750	40.107	1341.962	1200.243
-19.736	39.986	1340.369	1198.035
-18.721	39.975	1339.390	1197.046
-17.706	39.966	1338.195	1195.878
-16.692	39.864	1337.175	1194.305
-15.677	39.972	1336.142	1193.982
-14.663	39.992	1334.912	1192.957
-13.648	40.007	1333.858	1192.059
-12.633	39.900	1333.259	1190.832
-11.619	39.754	1332.628	1189.345
-10.604	40.023	1330.493	1189.006
-9.590	40.005	1330.439	1188.803
-8.575	39.816	1329.421	1186.712
-7.560	39.887	1328.570	1186.330
-6.546	40.007	1327.010	1185.609
-5.531	39.890	1326.659	1184.546
-4.517	39.994	1325.138	1183.770
-3.502	40.065	1324.081	1183.202
-2.487	40.007	1323.197	1182.017
-1.473	40.066	1319.503	1179.020
-0.458	38.909	1304.239	1158.513
0.556	33.676	1283.772	1111.323
1.571	28.270	1285.917	1081.262
2.586	25.729	1299.075	1077.044
3.600	23.536	1286.439	1053.466
4.615	16.724	1208.127	951.123
5.629	6.527	1123.819	831.145
6.644	1.202	1100.474	786.255
7.659	0.943	1097.463	782.698
8.673	0.685	1096.877	780.876
9.688	0.613	1095.141	779.200
10.702	0.934	1093.483	779.604
11.717	6.137	1100.723	811.614
12.731	14.377	1112.177	862.823
13.746	17.841	1115.952	883.645
14.761	17.507	1114.853	880.966
15.775	16.746	1112.551	875.140
16.790	15.756	1110.449	868.301
17.804	14.936	1108.713	862.637
18.819	14.526	1108.119	859.989
19.834	14.227	1106.634	857.216
20.848	14.053	1105.756	855.569
21.863	13.757	1104.862	853.279
22.877	13.560	1104.184	851.666
23.892	13.530	1103.193	850.672
24.907	13.499	1102.668	850.032
25.921	13.587	1101.961	849.862
26.936	13.564	1101.171	849.062
27.950	13.617	1100.257	848.553
28.965	13.712	1099.550	848.418
29.980	13.846	1097.121	847.154
30.994	13.864	1096.101	846.383
32.009	13.869	1095.354	845.758
33.023	13.782	1094.354	844.464
34.038	13.854	1093.372	843.998
35.053	13.786	1092.268	842.726
36.067	13.778	1091.267	841.842
37.082	13.674	1090.823	840.894
38.096	13.760	1090.015	840.634
39.111	13.811	1089.007	840.041
40.126	13.735	1087.878	838.711
41.140	13.660	1086.185	836.951
42.155	13.619	1085.594	836.216
43.169	13.538	1084.755	835.086
44.184	13.624	1083.473	834.462
45.199	13.707	1082.428	834.001
46.213	13.736	1080.587	832.650
47.228	13.640	1080.433	831.980
48.242	13.640	1079.447	831.145
49.257	13.644	1078.487	830.352
50.271	13.717	1077.229	829.677
51.286	13.772	1076.186	829.075
52.301	13.647	1075.734	828.027
53.315	13.533	1074.700	826.591
54.330	13.691	1073.198	826.151
55.344	13.599	1072.723	825.252
56.359	13.625	1071.461	824.335
57.374	13.660	1070.672	823.830
58.388	13.573	1069.814	822.665
59.403	13.560	1068.969	821.882
60.417	13.509	1067.908	820.739
61.432	13.608	1066.981	820.445
62.447	13.440	1066.500	819.171
63.461	13.530	1065.838	819.034
64.476	13.461	1065.217	818.143
65.490	13.523	1064.006	817.447
66.505	13.571	1062.873	816.739
67.520	13.502	1062.670	816.173
68.534	13.592	1061.557	815.686
69.549	13.620	1060.700	815.096
70.563	13.543	1059.732	813.902
71.578	13.421	1059.038	812.697
72.593	13.378	1058.400	811.923
73.607	13.393	1058.067	811.672
74.622	13.423	1057.094	811.002
75.636	13.479	1056.154	810.480
76.651	13.443	1055.772	809.937
77.666	13.437	1055.362	809.522
78.680	13.506	1054.599	809.204
79.695	13.518	1053.628	808.448
80.709	13.536	1053.000	807.983
81.724	13.415	1052.582	806.999
82.739	13.628	1051.263	806.955
83.753	13.695	1050.349	806.508
84.768	13.739	1049.253	805.807
85.782	13.700	1049.047	805.386
86.797	13.627	1048.236	804.340
87.812	13.659	1046.853	803.364
88.826	13.613	1045.747	802.221
89.841	13.660	1045.195	801.954
90.855	13.702	1043.838	801.044
91.870	13.813	1043.344	801.128
92.884	13.699	1042.621	799.954
93.899	13.703	1041.564	799.091
94.914	13.867	1040.335	798.865
95.928	13.771	1039.666	797.820
96.943	13.899	1038.614	797.557
97.957	13.728	1038.173	796.328
98.972	13.755	1037.173	795.618
99.987	13.747	1036.156	794.730
101.001	13.738	1035.340	793.990
102.016	13.774	1034.413	793.381
103.030	13.812	1033.422	792.733
104.045	13.757	1032.794	791.917
105.060	13.672	1032.089	790.904
106.074	13.784	1030.649	790.264
107.089	13.673	1029.752	788.978
108.103	13.586	1029.197	788.069
109.118	13.495	1028.317	786.895
110.133	13.600	1027.173	786.448
111.147	13.660	1026.138	785.866
112.162	13.584	1025.782	785.165
113.176	13.700	1024.574	784.723
114.191	13.757	1023.805	784.331
115.206	13.574	1023.502	783.166
116.220	13.645	1022.425	782.607
117.235	13.638	1021.350	781.680
118.249	13.697	1020.377	781.148
119.264	13.619	1019.959	780.391
120.279	13.611	1018.856	779.439
121.293	13.630	1018.080	778.868
122.308	13.596	1017.343	778.076
123.322	13.648	1015.960	777.189
124.337	13.577	1015.056	776.097
125.352	13.689	1013.702	775.521
126.366	13.701	1012.625	774.684
127.381	13.719	1011.643	773.945
128.395	13.711	1010.568	773.016
129.410	13.691	1009.573	772.096
130.424	13.786	1008.696	771.796
131.439	13.803	1008.113	771.362
132.454	13.858	1007.436	771.030
133.468	13.820	1006.297	769.914
134.483	13.882	1005.397	769.446
135.497	13.830	1004.489	768.442
136.512	13.764	1004.402	768.001
137.527	13.820	1002.869	767.022
138.541	13.861	1002.184	766.620
139.556	13.967	1001.466	766.492
140.570	13.906	1000.856	765.677
141.585	13.861	1000.269	764.950
142.600	14.074	998.957	764.861
143.614	13.882	998.385	763.470
144.629	13.934	997.039	762.613
145.643	13.981	996.540	762.379
146.658	13.970	995.349	761.352
147.673	13.841	994.710	760.203
148.687	13.743	994.146	759.257
149.702	13.962	992.824	759.182
150.716	13.807	992.534	758.182
151.731	13.757	991.212	756.878
152.746	13.928	990.890	757.344
153.760	13.932	990.000	756.619
154.775	13.972	989.420	756.288
155.789	13.910	988.816	755.480
156.804	14.058	988.081	755.521
157.819	13.990	987.323	754.566
158.833	14.007	986.870	754.233
159.848	13.987	985.896	753.330
160.862	14.052	984.862	752.768
161.877	13.955	983.852	751.489
162.892	13.952	982.807	750.613
163.906	13.901	982.028	749.722
164.921	13.989	981.038	749.293
165.935	13.929	980.020	748.181
166.950	14.140	978.839	748.163
167.964	13.989	978.506	747.161
168.979	14.031	977.606	746.597
169.994	14.052	976.824	746.031
171.008	14.157	976.035	745.833
172.023	14.304	975.084	745.695
173.037	14.175	974.731	744.783
174.052	14.133	973.550	743.629
175.067	13.986	973.096	742.559
176.081	13.938	972.877	742.111
177.096	14.098	972.131	742.193
178.110	14.067	971.509	741.512
179.125	14.246	970.338	741.348
180.140	14.121	970.047	740.505
181.154	14.166	969.718	740.388
182.169	14.302	969.116	740.466
183.183	14.260	968.384	739.658
184.198	14.274	967.838	739.237
185.213	14.271	966.813	738.374
186.227	14.385	966.137	738.296
187.242	14.400	965.561	737.859
188.256	14.342	964.739	736.911
189.271	14.311	963.793	735.987
190.286	14.223	963.146	735.035
191.300	14.285	962.583	734.814
192.315	14.254	961.609	733.870
193.329	14.273	961.150	733.540
194.344	14.216	960.487	732.715
195.359	14.272	960.023	732.546
196.373	14.308	959.501	732.242
197.388	14.440	958.846	732.255
198.402	14.543	957.915	731.932
199.417	14.413	957.542	731.014
200.432	14.534	957.003	731.064
201.446	14.534	956.289	730.457
202.461	14.552	956.356	730.523
203.475	14.608	955.532	730.072
204.490	14.522	954.512	728.853
205.504	14.552	953.633	728.246
206.519	14.615	952.940	727.929
207.534	14.502	952.403	726.959
208.548	14.571	951.520	726.522
209.563	14.660	950.978	726.435
210.577	14.702	950.358	726.078
211.592	14.728	949.731	725.645
212.607	14.623	948.768	724.391
213.621	14.572	948.120	723.613
214.636	14.689	947.344	723.464
215.650	14.726	946.876	723.202
216.665	14.771	945.258	722.095
217.680	14.829	945.077	722.143
218.694	14.885	944.317	721.739
219.709	14.968	943.609	721.493
220.723	14.783	943.154	720.285
221.738	14.782	942.530	719.740
222.753	14.710	941.934	718.911
223.767	14.827	940.753	718.449
224.782	14.905	940.518	718.544
225.796	14.936	939.750	718.026
226.811	14.920	939.324	717.567
227.826	14.874	938.726	716.850
228.840	14.914	937.297	715.868
229.855	14.908	937.052	715.590
230.869	14.826	936.224	714.543
231.884	14.809	935.482	713.841
232.899	14.981	934.393	713.682
233.913	14.879	934.188	713.027
234.928	14.816	933.328	712.038
235.942	14.778	932.752	711.375
236.957	14.863	932.246	711.286
237.972	14.985	931.331	711.046
238.986	14.883	930.870	710.196
240.001	14.910	929.943	709.541
241.015	14.990	929.487	709.471
242.030	14.851	929.154	708.565
243.045	15.045	928.272	708.652
244.059	15.110	927.534	708.298
245.074	14.989	927.044	707.349
246.088	15.159	926.014	707.218
247.103	15.069	925.588	706.453
248.117	15.094	925.366	706.326
249.132	15.193	924.429	705.964
250.147	15.236	923.821	705.618
251.161	15.387	922.962	705.534
252.176	15.286	922.461	704.665
253.190	15.355	921.228	703.952
254.205	15.342	921.043	703.691
255.220	15.378	920.385	703.277
256.234	15.341	920.050	702.805
257.249	15.404	918.971	702.181
258.263	15.407	918.026	701.409
259.278	15.424	917.197	700.785
260.293	15.467	916.775	700.583
261.307	15.523	916.206	700.317
262.322	15.565	915.469	699.868
263.336	15.430	914.876	698.789
264.351	15.570	913.870	698.544
265.366	15.640	913.268	698.311
266.380	15.595	912.837	697.736
267.395	15.498	912.340	696.891
268.409	15.576	911.515	696.519
269.424	15.605	910.659	695.924
270.439	15.645	909.899	695.450
271.453	15.500	909.205	694.257
272.468	15.639	908.573	694.285
273.482	15.529	908.209	693.492
274.497	15.574	907.727	693.250
275.512	15.629	906.862	692.756
276.526	15.618	906.467	692.347
277.541	15.722	906.023	692.373
278.555	15.632	905.653	691.659
279.570	15.787	904.636	691.460
280.585	15.813	904.097	691.093
281.599	15.835	903.063	690.332
282.614	15.801	902.317	689.560
283.628	15.841	901.881	689.329
284.643	15.767	901.177	688.429
285.657	15.853	900.229	687.994
286.672	15.846	899.997	687.727
287.687	15.848	898.957	686.878
288.701	15.874	898.956	686.923
289.716	15.930	898.028	686.382
290.730	15.889	897.627	685.850
291.745	15.892	896.911	685.253
292.760	16.050	895.691	684.903
293.774	15.971	895.426	684.316
294.789	15.988	894.360	683.513
295.803	15.971	893.679	682.861
296.818	16.062	893.235	682.830
297.833	15.961	892.771	682.008
298.847	16.050	891.659	681.457
299.862	16.031	891.448	681.160
300.876	16.053	890.904	680.770
301.891	16.120	890.286	680.511
302.906	16.042	889.724	679.707
303.920	16.069	889.493	679.577
304.935	16.190	888.463	679.216
305.949	16.154	888.232	678.836
306.964	16.233	887.161	678.276
307.979	16.188	886.662	677.654
308.993	16.276	886.279	677.652
310.008	16.382	885.269	677.248
311.022	16.216	884.801	676.164
312.037	16.240	884.219	675.755
313.052	16.168	883.971	675.218
314.066	16.112	883.483	674.560
315.081	16.184	882.695	674.186
316.095	16.259	881.562	673.561
317.110	16.370	881.101	673.591
318.125	16.275	880.732	672.870
319.139	16.201	880.470	672.317
320.154	16.407	879.788	672.559
321.168	16.323	879.469	671.921
322.183	16.307	878.776	671.269
323.197	16.261	878.324	670.678
324.212	16.349	877.857	670.614
325.227	16.449	876.687	670.056
326.241	16.438	876.328	669.680
327.256	16.418	875.766	669.111
328.270	16.393	874.951	668.330
329.285	16.449	874.482	668.133
330.300	16.491	874.125	667.968
331.314	16.331	873.801	667.028
332.329	16.480	873.084	667.014
333.343	16.486	872.587	666.596
334.358	16.552	872.206	666.507
335.373	16.672	871.725	666.552
336.387	16.598	871.599	666.106
337.402	16.613	871.080	665.707
338.416	16.564	870.893	665.316
339.431	16.652	870.189	665.063
340.446	16.576	869.785	664.396
341.460	16.740	869.251	664.575
342.475	16.832	868.956	664.651
343.489	16.643	868.608	663.586
344.504	16.779	867.615	663.299
345.519	16.760	867.426	663.022
346.533	16.826	866.867	662.796
347.548	16.840	866.259	662.326
348.562	16.755	865.971	661.714
349.577	16.727	865.455	661.153
350.592	16.715	864.561	660.366
351.606	16.744	863.947	659.949
352.621	16.782	862.946	659.274
353.635	16.813	862.389	658.911
354.650	16.806	861.757	658.344
355.665	16.792	861.354	657.924
356.679	16.991	860.156	657.723
357.694	16.907	860.205	657.376
358.708	16.877	859.602	656.741
359.723	16.890	858.557	655.933
360.738	17.011	858.035	655.946
361.752	16.986	857.588	655.448
362.767	16.989	856.939	654.906
363.781	17.109	856.356	654.865
364.796	17.019	856.000	654.190
365.810	17.063	855.990	654.293
366.825	17.203	855.091	654.086
367.840	17.132	854.884	653.597
368.854	17.098	854.437	653.067
369.869	17.143	853.981	652.833
370.883	17.159	853.126	652.183
371.898	17.225	852.808	652.135
372.913	17.135	852.463	651.470
373.927	17.213	851.802	651.205
374.942	17.244	851.358	650.926
375.956	17.342	850.982	650.958
376.971	17.401	850.296	650.601
377.986	17.270	850.303	650.048
379.000	17.402	849.490	649.871
380.015	17.445	849.035	649.632
381.029	17.440	848.360	649.038
382.044	17.323	847.976	648.240
383.059	17.342	847.520	647.905
384.073	17.345	846.836	647.338
385.088	17.397	846.020	646.856
386.102	17.435	845.389	646.459
387.117	17.507	844.757	646.192
388.132	17.489	844.327	645.737
389.146	17.410	843.738	644.933
390.161	17.424	843.306	644.597
391.175	17.493	842.992	644.560
392.190	17.546	842.272	644.154
393.205	17.620	841.691	643.931
394.219	17.465	841.599	643.218
395.234	17.473	840.969	642.711
396.248	17.541	840.450	642.512
397.263	17.488	839.946	641.870
398.278	17.538	839.512	641.671
399.292	17.504	839.366	641.374
400.307	17.641	838.593	641.242
401.321	17.567	838.220	640.623
402.336	17.589	837.918	640.418
403.350	17.620	837.413	640.091
404.365	17.784	836.632	640.054
405.380	17.754	836.196	639.552
406.394	17.762	835.812	639.231
407.409	17.800	835.343	638.959
408.423	17.818	834.777	638.535
409.438	17.832	834.416	638.254
410.453	17.773	834.320	637.906
411.467	18.001	833.369	637.974
412.482	17.954	833.232	637.638
413.496	17.794	833.100	636.883
414.511	17.943	832.415	636.858
415.526	18.060	831.961	636.891
416.540	17.973	831.407	636.086
417.555	17.903	831.174	635.589
418.569	17.879	830.992	635.305
419.584	18.011	830.227	635.154
420.599	17.962	829.846	634.627
421.613	94.399	1271.132	1385.556
422.628	81.485	1335.442	1385.700
