DTS Sentinel unit serial number:	SN413079Multiplexer serial number:	ORYXHardware model number:	OX4-SRSoftware version number:	ORYX F/W v4.00 Oryx Data Collector v3.7.2.0data status	okinstallation	princeton_trtdifferential loss correction	single-endedforward channel	channel 1reverse channel	N/Adate	2019/09/19time	00:46:35forward acquisition time	60.00reverse acquisition time	0.00gamma	496.2192k internal	0.2343k external	0.2343temperature offset calibration	1.0028default loss term (dB/km)	0.3790temperature slope calibration	1.0000multiplexer offset coefficient	1.0000multiplexer slope coefficient	1.0000fibre end	0.00T internal ref (°C)	22.12T ext. ref 1 (°C)	0.74T ext. ref 2 (°C)	15.39length (m)	temperature (°C)	Stokes	anti-Stokes-747.200	174.601	0.035	-0.051
-746.185	-95.542	0.026	-0.007
-745.171	-90.937	0.172	-0.050
-744.156	-200.000	-0.035	0.271
-743.142	117.258	-0.077	-0.095
-742.127	73.387	0.059	0.062
-741.112	-200.000	-0.055	-0.453
-740.098	76.897	0.086	-0.092
-739.083	117.782	0.151	0.187
-738.069	125.597	-0.218	0.276
-737.054	10.589	-0.192	-0.147
-736.039	-200.000	0.037	-0.205
-735.025	4.169	0.349	0.255
-734.010	102.314	-0.177	-0.207
-732.996	475.143	0.018	-0.041
-731.981	256.457	0.087	0.150
-730.966	-11.358	0.244	0.160
-729.952	-200.000	-0.065	-0.397
-728.937	512.330	0.150	-0.349
-727.923	169.083	0.051	0.073
-726.908	20.071	-0.109	-0.088
-725.894	800.000	0.025	-0.099
-724.879	46.388	-0.186	-0.173
-723.864	-200.000	-0.027	-0.184
-722.850	800.000	-0.049	-0.189
-721.835	-32.024	-0.343	0.192
-720.821	97.016	0.052	-0.060
-719.806	556.445	0.129	0.311
-718.791	29.412	-0.255	0.217
-717.777	-200.000	-0.026	0.162
-716.762	-158.600	-0.367	-0.021
-715.748	377.149	0.244	-0.499
-714.733	-200.000	0.024	0.110
-713.718	-76.845	-0.320	0.112
-712.704	800.000	0.033	0.094
-711.689	800.000	0.084	0.237
-710.675	-194.706	0.497	-0.004
-709.660	-200.000	0.022	0.156
-708.645	2.993	-0.196	0.142
-707.631	61.517	0.122	-0.122
-706.616	800.000	-0.037	-0.121
-705.602	34.108	0.112	-0.098
-704.587	-200.000	0.049	-0.218
-703.572	-200.000	0.025	-0.224
-702.558	-61.732	-0.210	0.088
-701.543	-200.000	0.364	-0.001
-700.529	-100.992	0.105	0.026
-699.514	-99.773	0.222	-0.055
-698.499	149.327	0.059	-0.080
-697.485	187.145	-0.129	0.192
-696.470	-149.077	0.296	0.024
-695.456	-84.732	-0.100	0.032
-694.441	-200.000	0.041	0.212
-693.426	-118.006	-0.139	-0.025
-692.412	151.841	0.099	-0.135
-691.397	540.908	-0.230	-0.548
-690.383	-200.000	0.085	-0.381
-689.368	-64.561	0.181	-0.074
-688.354	-200.000	-0.009	0.312
-687.339	-124.217	-0.189	0.030
-686.324	-92.153	-0.220	0.062
-685.310	242.816	0.082	0.137
-684.295	52.822	-0.128	-0.122
-683.281	269.470	-0.104	-0.183
-682.266	275.775	-0.147	0.260
-681.251	-200.000	0.001	-0.279
-680.237	-200.000	-0.008	0.116
-679.222	614.773	0.097	0.244
-678.208	171.330	-0.245	-0.351
-677.193	-83.481	0.215	-0.069
-676.178	-200.000	0.036	-0.223
-675.164	-200.000	-0.004	-0.214
-674.149	-127.485	-0.404	-0.059
-673.135	-112.355	0.344	-0.069
-672.120	416.120	-0.109	0.232
-671.105	-150.860	-0.024	0.002
-670.091	-152.134	-0.132	-0.010
-669.076	-113.365	0.254	-0.050
-668.062	-63.466	-0.303	-0.124
-667.047	22.453	-0.288	-0.235
-666.032	105.317	0.044	-0.052
-665.018	-68.348	-0.268	-0.104
-664.003	510.468	0.026	-0.061
-662.989	-34.802	-0.184	0.101
-661.974	-180.149	-0.379	0.008
-660.959	-23.493	0.249	0.149
-659.945	540.527	-0.123	-0.293
-658.930	-200.000	-0.012	0.204
-657.916	124.130	-0.113	0.141
-656.901	18.481	0.159	-0.127
-655.886	-106.215	0.184	0.041
-654.872	-131.582	-0.176	-0.023
-653.857	23.956	-0.135	-0.111
-652.843	-101.233	-0.301	-0.073
-651.828	10.225	0.106	-0.080
-650.814	-200.000	0.048	-0.302
-649.799	90.221	-0.241	-0.268
-648.784	-46.767	0.466	0.228
-647.770	-41.586	-0.120	0.062
-646.755	-54.654	-0.400	0.180
-645.741	-200.000	0.006	-0.198
-644.726	-24.139	-0.202	-0.120
-643.711	-200.000	0.009	-0.056
-642.697	23.943	-0.211	-0.173
-641.682	800.000	-0.081	0.271
-640.668	138.665	0.231	-0.302
-639.653	-166.819	-0.229	-0.009
-638.638	11.629	-0.241	-0.184
-637.624	-98.574	0.181	0.046
-636.609	-200.000	-0.019	0.104
-635.595	800.000	-0.106	0.321
-634.580	-75.863	-0.142	0.050
-633.565	-63.236	-0.036	0.015
-632.551	-104.446	-0.189	0.044
-631.536	-67.926	0.223	0.087
-630.522	-88.420	-0.240	0.071
-629.507	-102.750	-0.266	0.063
-628.492	134.672	0.139	0.179
-627.478	-102.282	0.293	-0.070
-626.463	-200.000	-0.007	0.279
-625.449	-49.344	0.216	0.103
-624.434	-38.625	-0.185	-0.097
-623.419	-74.399	0.315	-0.113
-622.405	800.000	-0.084	0.247
-621.390	96.890	-0.128	0.147
-620.376	-58.943	-0.129	0.055
-619.361	244.824	0.114	-0.191
-618.346	319.433	0.123	-0.233
-617.332	635.368	0.180	0.455
-616.317	-176.430	0.269	-0.007
-615.303	-200.000	0.010	0.252
-614.288	440.306	-0.057	0.123
-613.273	-155.998	-0.468	-0.030
-612.259	-200.000	-0.030	0.218
-611.244	285.460	-0.055	-0.098
-610.230	800.000	0.075	-0.300
-609.215	22.318	-0.262	0.214
-608.201	-151.522	-0.145	0.011
-607.186	241.940	-0.172	0.287
-606.171	-36.165	0.219	0.118
-605.157	80.556	0.196	0.211
-604.142	-200.000	0.007	0.173
-603.128	89.959	-0.192	-0.214
-602.113	-71.034	-0.303	0.114
-601.098	204.943	0.085	-0.131
-600.084	312.074	-0.200	-0.374
-599.069	266.329	-0.058	-0.100
-598.055	147.692	0.334	-0.448
-597.040	147.248	-0.118	-0.158
-596.025	98.986	-0.268	0.308
-595.011	-200.000	-0.004	-0.144
-593.996	127.077	-0.068	0.086
-592.982	302.802	0.119	-0.220
-591.967	123.869	-0.170	-0.212
-590.952	51.259	-0.270	-0.255
-589.938	-13.643	0.128	0.083
-588.923	262.769	0.038	0.066
-587.909	-69.171	-0.237	0.091
-586.894	42.365	0.163	0.147
-585.879	250.811	-0.023	0.039
-584.865	-54.131	-0.113	0.051
-583.850	-39.420	0.400	0.209
-582.836	-200.000	0.010	0.065
-581.821	110.749	0.173	-0.207
-580.806	-129.494	-0.116	0.016
-579.792	-96.095	0.280	0.074
-578.777	-105.316	-0.252	-0.057
-577.763	81.151	-0.056	-0.060
-576.748	-39.886	0.192	0.100
-575.733	-17.423	-0.168	-0.105
-574.719	-123.833	-0.096	0.015
-573.704	-154.722	-0.230	0.015
-572.690	20.025	-0.216	-0.173
-571.675	293.879	-0.040	-0.073
-570.661	-155.397	0.196	-0.013
-569.646	18.103	-0.084	-0.067
-568.631	24.004	0.108	-0.089
-567.617	35.025	-0.350	0.305
-566.602	239.527	0.104	0.172
-565.588	36.213	0.188	0.165
-564.573	73.334	-0.160	-0.166
-563.558	98.743	-0.128	-0.147
-562.544	-200.000	0.001	-0.080
-561.529	100.861	0.252	0.292
-560.515	-200.000	0.010	0.064
-559.500	157.328	-0.138	0.189
-558.485	800.000	0.064	-0.247
-557.471	800.000	-0.110	0.313
-556.456	53.189	-0.223	0.212
-555.442	-43.848	0.103	-0.051
-554.427	-19.527	-0.358	-0.221
-553.412	30.387	-0.211	0.179
-552.398	-200.000	0.013	0.097
-551.383	781.536	0.056	-0.153
-550.369	223.737	0.068	-0.108
-549.354	-25.028	-0.109	0.064
-548.339	47.082	-0.106	0.098
-547.325	-200.000	0.055	-0.417
-546.310	42.448	-0.206	-0.186
-545.296	-200.000	0.048	-0.272
-544.281	231.646	-0.179	0.292
-543.266	-32.327	0.198	-0.110
-542.252	-20.416	-0.327	-0.200
-541.237	-200.000	-0.030	-0.269
-540.223	-200.000	-0.008	0.144
-539.208	411.099	0.111	-0.234
-538.193	698.276	-0.100	-0.262
-537.179	27.131	0.095	0.080
-536.164	-20.779	-0.247	0.150
-535.150	-94.556	0.555	0.150
-534.135	208.643	0.124	-0.193
-533.121	800.000	0.070	0.278
-532.106	-88.662	0.327	-0.097
-531.091	0.024	-0.077	-0.055
-530.077	194.591	0.070	-0.106
-529.062	-109.616	0.370	0.078
-528.048	-37.723	-0.106	0.056
-527.033	-200.000	0.101	0.000
-526.018	-200.000	0.190	-0.000
-525.004	-49.564	0.204	0.096
-523.989	-69.853	0.230	-0.087
-522.975	-154.493	-0.204	0.014
-521.960	-94.395	0.172	-0.047
-520.945	230.710	0.273	-0.444
-519.931	111.117	-0.048	-0.058
-518.916	-72.356	0.257	-0.095
-517.902	511.769	0.039	0.091
-516.887	-46.172	-0.177	0.087
-515.872	-189.382	-0.188	0.002
-514.858	-161.767	-0.198	0.010
-513.843	-200.000	-0.001	-0.465
-512.829	-77.412	0.125	0.043
-511.814	490.454	-0.045	-0.102
-510.799	-19.501	0.199	-0.122
-509.785	99.431	0.073	-0.084
-508.770	-200.000	-0.040	-0.210
-507.756	402.515	0.163	0.340
-506.741	-200.000	0.013	0.188
-505.726	154.622	-0.113	-0.154
-504.712	567.041	0.099	-0.238
-503.697	-41.533	0.082	0.042
-502.683	-200.000	-0.001	-0.023
-501.668	-100.342	0.350	-0.086
-500.653	90.245	-0.248	0.275
-499.639	256.545	-0.040	-0.067
-498.624	-200.000	0.005	0.153
-497.610	800.000	-0.044	0.152
-496.595	-118.387	0.141	0.025
-495.581	36.115	0.250	-0.218
-494.566	800.000	-0.054	-0.152
-493.551	800.000	-0.019	0.052
-492.537	184.960	0.198	0.291
-491.522	-143.167	-0.054	0.005
-490.508	-200.000	0.019	-0.404
-489.493	74.576	-0.068	-0.071
-488.478	60.011	-0.182	-0.178
-487.464	279.075	-0.252	0.446
-486.449	-71.726	0.215	0.080
-485.435	703.970	0.082	0.215
-484.420	268.294	0.166	-0.288
-483.405	99.973	-0.263	-0.302
-482.391	-133.884	-0.246	0.030
-481.376	-6.412	0.106	0.072
-480.362	-200.000	0.023	-0.157
-479.347	-200.000	-0.011	-0.121
-478.332	-67.679	-0.136	-0.053
-477.318	800.000	0.145	0.451
-476.303	110.598	0.150	0.178
-475.289	322.977	-0.075	-0.142
-474.274	-200.000	-0.019	-0.479
-473.259	172.674	-0.063	-0.090
-472.245	-121.474	0.393	0.065
-471.230	445.712	-0.118	-0.257
-470.216	18.195	-0.336	0.266
-469.201	338.580	0.112	0.216
-468.186	402.521	-0.065	-0.135
-467.172	800.000	0.058	0.244
-466.157	6.410	-0.135	0.099
-465.143	85.951	0.102	-0.112
-464.128	-200.000	-0.005	0.151
-463.113	-107.282	-0.193	0.042
-462.099	578.462	-0.143	-0.345
-461.084	6.187	0.161	0.118
-460.070	-200.000	-0.010	0.138
-459.055	-200.000	0.039	-0.191
-458.040	-129.632	-0.076	0.010
-457.026	-35.453	-0.098	-0.052
-456.011	-200.000	0.004	0.019
-454.997	287.376	-0.081	-0.145
-453.982	688.483	-0.118	0.306
-452.968	140.395	-0.033	0.043
-451.953	-200.000	0.021	-0.179
-450.938	138.450	-0.175	-0.228
-449.924	137.851	-0.113	-0.146
-448.909	-200.000	0.007	0.275
-447.895	-152.601	0.189	0.013
-446.880	-36.136	0.061	0.032
-445.865	-200.000	0.022	-0.100
-444.851	-33.598	-0.094	0.051
-443.836	-22.442	-0.232	-0.139
-442.822	66.786	-0.184	0.185
-441.807	-200.000	0.044	-0.312
-440.792	-200.000	0.007	0.079
-439.778	-200.000	0.002	0.252
-438.763	350.530	0.049	-0.095
-437.749	-200.000	0.054	-0.243
-436.734	13.402	0.093	-0.071
-435.719	-62.771	0.114	0.047
-434.705	-134.428	0.059	-0.007
-433.690	207.298	-0.038	-0.059
-432.676	-200.000	0.002	0.080
-431.661	-200.000	0.073	-0.428
-430.646	125.006	0.074	-0.092
-429.632	-35.819	-0.310	0.166
-428.617	-81.316	0.160	0.052
-427.603	-152.753	-0.330	0.023
-426.588	463.265	-0.075	0.165
-425.573	-200.000	0.021	0.392
-424.559	-200.000	0.043	0.359
-423.544	26.133	0.146	0.121
-422.530	-144.464	-0.191	0.017
-421.515	-108.399	-0.243	0.052
-420.500	-200.000	0.048	0.230
-419.486	-84.239	0.226	0.071
-418.471	550.965	0.042	-0.099
-417.457	-58.297	-0.317	-0.136
-416.442	-200.000	0.020	-0.220
-415.428	-26.179	-0.261	0.151
-414.413	-200.000	-0.015	0.102
-413.398	-102.183	0.194	0.046
-412.384	307.428	0.113	-0.209
-411.369	29.471	-0.168	-0.141
-410.355	-54.846	0.151	0.067
-409.340	470.587	-0.061	0.135
-408.325	393.900	0.028	-0.057
-407.311	-91.815	-0.411	-0.115
-406.296	360.375	-0.108	0.214
-405.282	-200.000	0.016	0.245
-404.267	316.777	-0.042	0.079
-403.252	-132.096	0.118	0.015
-402.238	-22.431	-0.165	-0.099
-401.223	126.765	-0.124	0.155
-400.209	-104.677	0.244	-0.056
-399.194	-200.000	0.079	0.432
-398.179	213.403	-0.060	-0.094
-397.165	268.361	0.137	0.237
-396.150	-2.534	-0.279	-0.193
-395.136	-123.004	0.220	-0.035
-394.121	-200.000	-0.035	0.246
-393.106	-7.648	0.143	-0.095
-392.092	245.537	-0.034	-0.057
-391.077	-112.202	0.034	0.007
-390.063	39.788	-0.234	-0.208
-389.048	-17.880	0.095	-0.059
-388.033	106.806	-0.191	-0.224
-387.019	532.897	0.163	0.381
-386.004	-200.000	-0.027	-0.165
-384.990	-161.867	0.285	0.014
-383.975	242.055	-0.077	-0.127
-382.960	-21.439	-0.033	0.020
-381.946	-164.807	0.175	-0.008
-380.931	-200.000	-0.006	0.289
-379.917	24.438	0.162	-0.133
-378.902	-200.000	0.018	-0.310
-377.888	55.373	0.038	0.036
-376.873	-42.395	0.131	0.066
-375.858	-46.747	0.259	0.125
-374.844	40.938	0.048	0.042
-373.829	146.854	-0.136	0.180
-372.815	-39.075	0.028	0.015
-371.800	-8.962	-0.084	-0.055
-370.785	-27.162	-0.144	0.083
-369.771	346.131	0.090	-0.175
-368.756	187.249	-0.109	-0.161
-367.742	307.695	0.044	-0.081
-366.727	-106.604	-0.325	0.071
-365.712	-200.000	-0.043	0.314
-364.698	-36.566	-0.023	-0.012
-363.683	31.290	0.238	-0.201
-362.669	-58.405	-0.273	0.117
-361.654	-182.473	0.210	0.004
-360.639	-57.543	0.047	0.020
-359.625	-163.817	-0.274	-0.013
-358.610	150.492	-0.237	-0.317
-357.596	61.580	0.143	-0.141
-356.581	-200.000	0.007	-0.287
-355.566	655.300	0.053	0.135
-354.552	-4.079	0.077	-0.052
-353.537	800.000	0.117	-0.382
-352.523	-200.000	-0.003	-0.062
-351.508	-121.574	0.225	0.037
-350.493	82.440	0.102	0.109
-349.479	383.700	0.001	0.002
-348.464	-28.710	0.096	-0.055
-347.450	191.991	0.123	0.183
-346.435	-200.000	0.018	0.087
-345.420	239.610	-0.223	0.365
-344.406	-200.000	-0.028	-0.488
-343.391	-34.925	0.184	-0.099
-342.377	-45.656	-0.290	0.142
-341.362	-66.709	0.112	-0.044
-340.348	-93.851	-0.223	0.061
-339.333	-82.929	0.316	0.101
-338.318	800.000	-0.073	0.246
-337.304	-2.231	0.299	0.207
-336.289	-200.000	-0.002	0.156
-335.275	-92.900	-0.274	-0.075
-334.260	800.000	0.046	-0.152
-333.245	-42.890	0.235	-0.117
-332.231	120.692	-0.100	0.123
-331.216	-200.000	-0.013	0.389
-330.202	201.491	-0.013	0.019
-329.187	-41.568	-0.248	-0.126
-328.172	-45.372	0.254	0.124
-327.158	115.017	-0.269	0.323
-326.143	277.367	-0.123	-0.215
-325.129	-61.320	0.197	-0.082
-324.114	-55.047	0.115	-0.051
-323.099	-200.000	0.010	0.120
-322.085	475.595	0.060	-0.134
-321.070	300.129	-0.074	-0.134
-320.056	497.606	0.113	0.257
-319.041	-93.930	0.207	0.056
-318.026	-200.000	-0.020	0.312
-317.012	-174.865	0.267	0.007
-315.997	29.390	-0.123	0.103
-314.983	217.184	0.160	0.250
-313.968	-110.957	0.230	-0.047
-312.953	800.000	-0.142	-0.422
-311.939	314.379	0.097	-0.180
-310.924	168.795	0.063	-0.088
-309.910	-114.108	-0.201	0.038
-308.895	493.400	0.145	0.328
-307.880	42.269	0.232	0.208
-306.866	-56.447	-0.125	-0.055
-305.851	-200.000	-0.084	0.403
-304.837	461.475	0.093	0.204
-303.822	-83.192	0.320	0.101
-302.807	274.955	-0.014	0.024
-301.793	26.256	-0.206	-0.170
-300.778	83.932	0.087	0.093
-299.764	-15.598	0.064	-0.040
-298.749	420.399	0.166	-0.349
-297.735	594.184	-0.030	-0.072
-296.720	-200.000	-0.021	0.141
-295.705	189.499	-0.074	0.109
-294.691	-200.000	0.018	-0.174
-293.676	-74.731	0.326	-0.115
-292.662	-200.000	0.056	-0.449
-291.647	21.371	-0.183	0.146
-290.632	243.661	-0.157	0.260
-289.618	38.410	0.229	0.200
-288.603	-52.803	-0.147	-0.067
-287.589	-122.778	0.189	0.030
-286.574	-200.000	-0.010	0.137
-285.559	146.667	0.183	-0.242
-284.545	-75.780	0.151	0.053
-283.530	-78.470	-0.091	-0.031
-282.516	-200.000	-0.075	-0.491
-281.501	672.202	-0.103	-0.263
-280.486	76.899	0.172	-0.180
-279.472	2.995	0.116	-0.083
-278.457	31.446	-0.203	0.171
-277.443	17.016	0.086	0.067
-276.428	53.142	0.188	-0.177
-275.413	-60.560	0.192	-0.080
-274.399	800.000	-0.055	-0.224
-273.384	262.916	-0.182	0.310
-272.370	217.111	-0.102	0.160
-271.355	-83.965	0.360	0.113
-270.340	-125.824	0.387	0.057
-269.326	-200.000	0.018	-0.093
-268.311	64.166	-0.157	-0.155
-267.297	243.936	0.025	-0.041
-266.282	800.000	0.014	0.044
-265.267	325.724	-0.152	-0.287
-264.253	-45.934	0.259	0.125
-263.238	-200.000	0.025	-0.221
-262.224	-200.000	-0.035	-0.386
-261.209	46.118	0.119	-0.109
-260.195	800.000	-0.047	-0.157
-259.180	108.430	0.103	-0.121
-258.165	800.000	0.053	0.215
-257.151	81.350	-0.074	-0.079
-256.136	800.000	0.031	0.115
-255.122	177.347	-0.086	0.123
-254.107	332.485	0.065	-0.124
-253.092	-43.896	0.148	0.073
-252.078	-132.776	0.367	-0.046
-251.063	800.000	0.020	-0.062
-250.049	352.344	-0.037	-0.072
-249.034	-74.197	0.228	-0.081
-248.019	14.242	-0.321	0.246
-247.005	210.968	-0.205	0.316
-245.990	201.785	-0.073	0.110
-244.976	292.895	0.235	-0.421
-243.961	269.745	0.097	-0.168
-242.946	46.625	0.324	0.295
-241.932	220.471	0.182	0.287
-240.917	-135.816	-0.072	0.008
-239.903	800.000	-0.041	-0.145
-238.888	-192.748	-0.343	-0.003
-237.873	-200.000	-0.009	-0.167
-236.859	339.728	-0.103	0.197
-235.844	715.721	0.196	-0.511
-234.830	-58.374	-0.242	0.103
-233.815	-136.901	0.285	-0.032
-232.800	-93.874	-0.115	0.031
-231.786	-200.000	0.009	-0.082
-230.771	-94.222	0.201	0.054
-229.757	96.385	0.145	-0.163
-228.742	-167.440	0.091	0.004
-227.727	15.889	0.182	0.141
-226.713	-112.367	0.396	-0.078
-225.698	800.000	-0.059	0.225
-224.684	36.679	0.176	0.152
-223.669	-126.783	0.111	-0.016
-222.655	-68.274	0.113	-0.043
-221.640	-200.000	0.037	-0.184
-220.625	-200.000	0.011	0.153
-219.611	-16.581	0.264	0.164
-218.596	133.766	0.080	-0.101
-217.582	48.510	0.093	-0.086
-216.567	240.420	-0.075	0.123
-215.552	161.531	-0.211	0.289
-214.538	-147.276	-0.011	0.001
-213.523	800.000	0.073	0.236
-212.509	-106.926	-0.160	0.035
-211.494	251.341	0.162	-0.271
-210.479	-200.000	0.001	0.108
-209.465	9.371	-0.024	0.018
-208.450	93.915	0.152	-0.169
-207.436	-200.000	-0.231	0.000
-206.421	161.048	0.147	-0.202
-205.406	623.598	0.042	-0.104
-204.392	-55.415	0.106	0.047
-203.377	53.001	-0.169	-0.159
-202.363	-200.000	-0.037	-0.392
-201.348	13.937	-0.433	-0.330
-200.333	361.085	0.108	0.213
-199.319	-34.572	0.189	-0.101
-198.304	-14.629	-0.263	0.166
-197.290	211.953	0.217	0.334
-196.275	226.478	-0.125	0.199
-195.260	91.688	-0.153	0.168
-194.246	-200.000	-0.069	0.322
-193.231	-156.434	-0.325	0.020
-192.217	800.000	0.054	0.199
-191.202	42.396	-0.259	0.231
-190.187	-37.578	-0.307	0.161
-189.173	-22.549	0.086	0.051
-188.158	50.006	0.057	0.053
-187.144	-200.000	0.008	-0.066
-186.129	518.294	-0.088	-0.202
-185.114	50.753	0.168	-0.156
-184.100	257.336	0.112	-0.189
-183.085	-34.019	0.239	-0.129
-182.071	-121.365	-0.249	0.041
-181.056	-127.157	-0.243	-0.035
-180.042	-40.188	0.062	-0.032
-179.027	-200.000	0.018	0.211
-178.012	-25.333	0.294	-0.170
-176.998	800.000	0.034	0.093
-175.983	103.338	0.196	-0.226
-174.969	63.163	-0.198	0.194
-173.954	-200.000	-0.054	-0.264
-172.939	-159.394	-0.497	-0.027
-171.925	800.000	0.033	-0.090
-170.910	97.211	0.175	0.196
-169.896	4.778	-0.236	0.170
-168.881	800.000	0.101	0.339
-167.866	117.934	0.276	-0.333
-166.852	274.704	-0.086	0.150
-165.837	-0.991	-0.292	-0.202
-164.823	44.453	-0.112	0.101
-163.808	32.735	-0.430	-0.364
-162.793	-200.000	0.040	0.283
-161.779	104.463	0.160	0.184
-160.764	-200.000	0.042	-0.266
-159.750	-36.860	0.119	-0.063
-158.735	341.624	-0.128	0.244
-157.720	-79.006	-0.208	0.069
-156.706	-68.357	-0.072	-0.027
-155.691	168.193	-0.137	0.190
-154.677	68.319	-0.208	-0.208
-153.662	-48.175	-0.012	-0.005
-152.647	118.725	-0.145	0.175
-151.633	101.232	-0.177	-0.202
-150.618	-117.969	-0.110	-0.019
-149.604	-200.000	-0.050	-0.330
-148.589	800.000	-0.018	0.055
-147.574	651.915	0.061	-0.154
-146.560	71.755	-0.217	-0.220
-145.545	71.075	-0.117	-0.119
-144.531	384.640	0.102	-0.206
-143.516	62.137	0.212	0.207
-142.502	11.169	0.184	0.137
-141.487	-131.603	-0.381	-0.049
-140.472	426.312	-0.129	-0.272
-139.458	800.000	0.081	0.340
-138.443	-41.624	-0.350	0.176
-137.429	-164.868	-0.050	-0.002
-136.414	-200.000	-0.009	-0.211
-135.399	-183.248	0.400	0.007
-134.385	-29.067	-0.130	-0.073
-133.370	-44.219	0.159	-0.078
-132.356	-64.736	0.116	-0.046
-131.341	-200.000	0.015	0.152
-130.326	-200.000	-0.001	-0.093
-129.312	219.103	0.087	0.136
-128.297	-49.904	-0.208	0.097
-127.283	-26.245	0.162	-0.093
-126.268	-30.914	-0.206	-0.114
-125.253	234.243	-0.081	0.130
-124.239	440.813	0.171	0.366
-123.224	-200.000	-0.031	0.275
-122.210	800.000	0.069	-0.259
-121.195	270.892	-0.163	-0.280
-120.180	-89.654	-0.372	-0.107
-119.166	-30.071	0.206	-0.115
-118.151	-116.579	0.455	-0.082
-117.137	-133.297	-0.194	-0.024
-116.122	-98.175	-0.137	0.034
-115.107	-124.480	0.441	-0.067
-114.093	-60.851	0.113	0.047
-113.078	800.000	0.025	-0.094
-112.064	-59.406	-0.110	-0.046
-111.049	20.195	0.101	-0.079
-110.034	210.171	0.183	0.281
-109.020	64.561	-0.107	-0.106
-108.005	197.637	-0.157	0.234
-106.991	-110.353	0.398	0.081
-105.976	746.667	0.114	-0.301
-104.962	-149.084	0.053	0.004
-103.947	60.936	-0.045	-0.044
-102.932	147.787	0.061	0.080
-101.918	-24.425	-0.202	-0.117
-100.903	-53.167	-0.166	-0.074
-99.889	137.616	-0.036	0.046
-98.874	-80.796	0.352	0.114
-97.859	-31.862	-0.318	-0.174
-96.845	-115.747	0.450	0.082
-95.830	49.271	-0.056	0.051
-94.816	800.000	0.093	0.272
-93.801	-8.661	0.083	0.055
-92.786	-155.519	-0.186	-0.012
-91.772	117.297	0.153	0.184
-90.757	516.955	0.087	0.198
-89.743	-200.000	0.072	-0.358
-88.728	-44.671	-0.213	-0.104
-87.713	-148.133	-0.070	-0.006
-86.699	54.346	0.292	-0.274
-85.684	419.677	-0.111	-0.232
-84.670	-87.133	0.159	0.047
-83.655	-127.827	0.362	0.051
-82.640	-75.206	0.064	0.022
-81.626	-200.000	0.037	-0.176
-80.611	-120.060	0.104	0.017
-79.597	-122.465	-0.357	-0.057
-78.582	-107.328	-0.226	-0.049
-77.567	800.000	0.095	0.281
-76.553	-118.738	-0.164	0.028
-75.538	800.000	-0.075	0.272
-74.524	-24.299	0.121	-0.070
-73.509	800.000	-0.044	0.181
-72.494	-171.679	0.186	0.006
-71.480	-46.255	0.116	-0.056
-70.465	-94.043	0.162	0.043
-69.451	187.636	0.166	0.242
-68.436	-200.000	-0.015	0.130
-67.422	797.680	-0.091	-0.246
-66.407	518.537	-0.087	0.200
-65.392	174.295	-0.265	0.374
-64.378	-200.000	0.001	-0.013
-63.363	-187.213	0.131	0.002
-62.349	-37.964	-0.329	-0.170
-61.334	106.796	-0.958	-1.109
-60.319	106.700	0.737	0.852
-59.305	800.000	-0.426	-1.202
-58.290	350.593	0.792	1.527
-57.276	610.823	0.681	1.659
-56.261	-200.000	133.725	697.732
-55.246	362.449	1661.452	3250.449
-54.232	134.165	2801.435	3538.265
-53.217	92.721	2166.212	2383.197
-52.203	33.602	1594.115	1350.337
-51.188	25.247	1341.319	1085.841
-50.173	23.008	1303.521	1042.021
-49.159	51.402	1377.486	1274.940
-48.144	47.712	1387.078	1261.388
-47.130	25.550	1333.359	1081.051
-46.115	22.239	1314.449	1046.017
-45.100	22.029	1308.870	1040.290
-44.086	21.959	1306.608	1038.035
-43.071	22.039	1303.934	1036.342
-42.057	22.002	1302.135	1034.654
-41.042	21.962	1300.418	1033.013
-40.027	21.921	1299.707	1032.166
-39.013	21.922	1297.207	1030.145
-37.998	22.118	1295.352	1029.779
-36.984	22.093	1293.882	1028.425
-35.969	22.012	1292.248	1026.611
-34.954	22.016	1290.367	1025.101
-33.940	22.053	1289.300	1024.428
-32.925	22.139	1287.599	1023.538
-31.911	22.091	1285.986	1021.937
-30.896	22.161	1284.760	1021.325
-29.881	22.137	1283.943	1020.496
-28.867	22.231	1282.223	1019.633
-27.852	22.251	1280.460	1018.310
-26.838	22.272	1279.584	1017.692
-25.823	22.216	1278.232	1016.252
-24.809	22.209	1276.988	1015.185
-23.794	22.234	1275.733	1014.292
-22.779	22.214	1274.451	1013.113
-21.765	22.242	1273.507	1012.488
-20.750	22.225	1271.861	1011.039
-19.736	22.174	1270.703	1009.786
-18.721	22.109	1269.481	1008.403
-17.706	22.035	1268.192	1006.915
-16.692	22.084	1266.959	1006.172
-15.677	22.182	1265.533	1005.565
-14.663	22.055	1264.928	1004.317
-13.648	22.116	1263.642	1003.603
-12.633	22.047	1263.106	1002.744
-11.619	22.053	1262.170	1001.994
-10.604	22.137	1261.095	1001.584
-9.590	22.048	1260.597	1000.637
-8.575	22.071	1259.719	1000.034
-7.560	22.171	1258.166	999.328
-6.546	22.156	1257.446	998.632
-5.531	22.213	1256.457	998.132
-4.517	22.060	1256.348	997.134
-3.502	22.119	1255.129	996.465
-2.487	22.056	1254.261	995.379
-1.473	22.157	1249.327	991.993
-0.458	20.173	1235.056	969.542
0.556	15.843	1219.125	931.899
1.571	12.136	1227.512	917.523
2.586	11.475	1243.245	925.454
3.600	11.548	1230.593	916.363
4.615	8.661	1159.421	848.014
5.629	3.368	1090.518	771.112
6.644	0.939	1074.318	747.604
7.659	0.653	1072.522	744.878
8.673	0.610	1071.774	744.083
9.688	0.739	1069.988	743.410
10.702	0.953	1067.767	742.852
11.717	4.093	1071.396	760.749
12.731	10.600	1079.835	798.799
13.746	15.814	1086.561	829.469
14.761	17.362	1088.171	838.258
15.775	16.639	1086.695	833.485
16.790	15.643	1084.731	827.008
17.804	14.969	1082.837	822.180
18.819	14.709	1081.804	820.048
19.834	14.520	1080.937	818.389
20.848	14.249	1079.837	816.154
21.863	13.957	1079.464	814.367
22.877	13.769	1078.643	812.757
23.892	13.720	1077.853	811.851
24.907	13.759	1076.943	811.284
25.921	13.814	1076.037	810.797
26.936	13.885	1074.961	810.261
27.950	13.983	1074.074	809.998
28.965	13.940	1073.148	809.022
29.980	13.962	1072.179	808.324
30.994	14.038	1070.809	807.589
32.009	14.035	1069.808	806.747
33.023	14.174	1068.749	806.555
34.038	13.976	1067.976	804.940
35.053	13.952	1067.229	804.190
36.067	14.000	1066.114	803.509
37.082	13.849	1065.893	802.544
38.096	13.987	1064.671	802.215
39.111	14.022	1064.118	801.896
40.126	13.842	1063.218	800.280
41.140	13.683	1062.055	798.567
42.155	13.782	1060.754	797.995
43.169	13.743	1059.837	797.051
44.184	13.757	1058.576	796.099
45.199	13.796	1057.553	795.444
46.213	13.884	1056.611	795.089
47.228	13.972	1054.998	794.226
48.242	13.833	1054.366	793.014
49.257	13.912	1053.177	792.427
50.271	13.871	1052.715	791.813
51.286	13.910	1051.929	791.336
52.301	14.039	1050.679	790.943
53.315	13.987	1049.264	789.560
54.330	13.890	1048.501	788.456
55.344	13.901	1047.291	787.528
56.359	13.847	1046.835	786.859
57.374	13.821	1046.071	786.092
58.388	13.696	1045.225	784.794
59.403	13.820	1044.419	784.705
60.417	13.729	1043.513	783.527
61.432	13.707	1042.273	782.420
62.447	13.662	1041.937	781.890
63.461	13.691	1040.869	781.156
64.476	13.754	1040.105	780.807
65.490	13.742	1038.876	779.759
66.505	13.726	1038.569	779.388
67.520	13.700	1038.379	779.053
68.534	13.699	1037.480	778.304
69.549	13.784	1036.260	777.716
70.563	13.752	1035.231	776.726
71.578	13.739	1034.849	776.312
72.593	13.682	1034.489	775.706
73.607	13.610	1033.658	774.677
74.622	13.770	1032.470	774.467
75.636	13.734	1031.997	773.875
76.651	13.707	1031.578	773.365
77.666	13.675	1030.928	772.659
78.680	13.710	1030.155	772.178
79.695	13.544	1029.811	771.078
80.709	13.730	1028.857	771.159
81.724	13.706	1028.434	770.664
82.739	13.733	1027.484	770.010
83.753	13.989	1026.077	770.071
84.768	14.030	1025.311	769.621
85.782	13.903	1024.800	768.581
86.797	14.047	1023.612	768.286
87.812	13.946	1022.952	767.258
88.826	13.876	1022.023	766.167
89.841	13.861	1020.662	765.012
90.855	13.993	1019.840	764.935
91.870	13.950	1019.431	764.364
92.884	14.076	1017.969	763.776
93.899	14.048	1017.687	763.373
94.914	13.944	1016.833	762.187
95.928	14.060	1015.537	761.677
96.943	14.163	1014.631	761.403
97.957	13.919	1014.266	759.943
98.972	14.045	1013.357	759.771
99.987	13.999	1012.626	758.945
101.001	13.951	1011.747	758.003
102.016	13.876	1010.693	756.804
103.030	14.065	1009.651	756.818
104.045	14.034	1008.597	755.820
105.060	13.878	1007.976	754.576
106.074	13.909	1006.970	753.897
107.089	13.837	1006.177	752.911
108.103	13.958	1005.254	752.702
109.118	13.911	1004.161	751.603
110.133	13.817	1003.632	750.718
111.147	13.912	1002.314	750.094
112.162	14.027	1001.527	749.958
113.176	13.938	1000.633	748.820
114.191	14.042	999.838	748.626
115.206	13.896	999.558	747.697
116.220	13.949	998.490	747.067
117.235	13.941	997.226	746.021
118.249	13.959	996.299	745.340
119.264	14.026	995.608	745.060
120.279	13.926	994.758	743.909
121.293	13.900	993.963	743.131
122.308	13.903	993.344	742.619
123.322	13.937	992.362	741.967
124.337	13.841	991.379	740.740
125.352	13.967	990.018	740.218
126.366	13.955	988.858	739.232
127.381	13.979	987.781	738.469
128.395	13.860	987.168	737.416
129.410	13.801	986.376	736.496
130.424	13.927	985.636	736.439
131.439	13.942	984.602	735.670
132.454	14.025	983.834	735.396
133.468	14.035	982.726	734.550
134.483	13.908	982.200	733.530
135.497	13.942	981.042	732.751
136.512	13.908	980.516	732.142
137.527	13.959	979.540	731.573
138.541	14.029	978.564	731.085
139.556	14.112	978.038	730.994
140.570	14.023	977.267	729.960
141.585	14.185	976.350	729.923
142.600	14.104	975.525	728.888
143.614	14.230	974.456	728.577
144.629	14.044	973.957	727.324
145.643	14.112	972.663	726.591
146.658	14.033	971.716	725.475
147.673	14.199	970.586	725.291
148.687	13.981	970.356	724.104
149.702	14.005	969.288	723.349
150.716	14.021	968.881	723.047
151.731	14.078	967.967	722.550
152.746	14.055	967.057	721.706
153.760	14.209	966.111	721.607
154.775	14.160	965.920	721.188
155.789	14.115	965.471	720.594
156.804	14.088	964.840	719.942
157.819	14.217	963.758	719.627
158.833	14.309	963.200	719.544
159.848	14.195	962.088	718.158
160.862	14.298	961.168	717.851
161.877	14.212	960.154	716.662
162.892	14.188	959.545	716.040
163.906	14.344	958.466	715.840
164.921	14.118	957.976	714.441
165.935	14.209	956.990	714.032
166.950	14.257	956.089	713.503
167.964	14.286	955.610	713.208
168.979	14.314	954.495	712.432
169.994	14.387	952.972	711.544
171.008	14.298	952.973	711.101
172.023	14.447	952.099	711.023
173.037	14.455	951.223	710.341
174.052	14.278	950.689	709.122
175.067	14.160	950.149	708.158
176.081	14.235	949.732	708.102
177.096	14.267	949.278	707.836
178.110	14.204	948.578	706.986
179.125	14.428	947.604	707.148
180.140	14.287	947.280	706.245
181.154	14.535	946.653	706.764
182.169	14.405	945.838	705.545
183.183	14.477	945.262	705.355
184.198	14.596	944.344	705.112
185.213	14.668	943.313	704.583
186.227	14.502	942.990	703.581
187.242	14.493	942.704	703.265
188.256	14.618	942.073	703.259
189.271	14.548	941.118	702.190
190.286	14.527	940.341	701.461
191.300	14.467	939.797	700.740
192.315	14.488	939.058	700.217
193.329	14.419	938.814	699.681
194.344	14.494	937.921	699.269
195.359	14.570	937.222	699.002
196.373	14.531	936.598	698.315
197.388	14.594	936.231	698.242
198.402	14.693	935.414	697.985
199.417	14.846	934.504	697.883
200.432	14.765	934.116	697.192
201.446	14.691	934.037	696.765
202.461	14.740	933.649	696.618
203.475	14.932	932.676	696.627
204.490	14.832	931.851	695.536
205.504	14.900	930.867	695.019
206.519	14.816	930.523	694.355
207.534	14.799	929.873	693.739
208.548	14.850	928.942	693.194
209.563	14.831	928.392	692.643
210.577	14.752	927.980	691.944
211.592	14.854	926.963	691.549
212.607	14.938	926.359	691.384
213.621	14.929	925.561	690.689
214.636	14.886	924.991	690.027
215.650	14.915	924.204	689.498
216.665	15.058	923.804	689.728
217.680	14.940	923.015	688.590
218.694	15.059	922.017	688.275
219.709	15.048	921.757	687.975
220.723	15.075	920.783	687.299
221.738	15.021	920.145	686.538
222.753	15.097	919.433	686.260
223.767	15.090	918.986	685.838
224.782	15.091	918.625	685.509
225.796	14.990	918.198	684.718
226.811	15.071	916.870	683.997
227.826	15.224	916.484	684.276
228.840	15.166	915.036	682.898
229.855	15.076	914.784	682.280
230.869	15.196	913.752	681.939
231.884	15.161	913.225	681.345
232.899	15.143	912.099	680.371
233.913	15.153	911.713	680.061
234.928	15.202	911.358	679.937
235.942	15.184	910.754	679.351
236.957	15.151	910.009	678.601
237.972	15.151	909.411	678.098
238.986	15.154	908.898	677.665
240.001	15.217	908.261	677.386
241.015	15.192	907.864	676.929
242.030	15.392	906.992	677.025
243.045	15.204	906.471	675.819
244.059	15.284	905.917	675.668
245.074	15.314	905.350	675.309
246.088	15.405	904.503	674.981
247.103	15.389	903.795	674.328
248.117	15.390	903.392	673.971
249.132	15.310	903.415	673.609
250.147	15.519	902.244	673.515
251.161	15.575	901.678	673.259
252.176	15.496	901.320	672.612
253.190	15.641	900.580	672.581
254.205	15.513	899.883	671.492
255.220	15.583	899.174	671.182
256.234	15.644	898.358	670.756
257.249	15.606	897.860	670.174
258.263	15.667	897.149	669.825
259.278	15.701	896.172	669.175
260.293	15.637	895.769	668.559
261.307	15.749	895.272	668.572
262.322	15.730	894.710	668.019
263.336	15.843	893.319	667.370
264.351	15.759	893.274	666.944
265.366	15.864	892.342	666.607
266.380	15.824	891.865	666.030
267.395	15.776	891.301	665.360
268.409	15.695	890.627	664.478
269.424	15.955	889.246	664.417
270.439	15.842	889.180	663.863
271.453	15.828	888.301	663.094
272.468	15.826	887.818	662.665
273.482	15.904	887.058	662.345
274.497	15.891	886.318	661.684
275.512	15.834	885.999	661.163
276.526	15.916	885.729	661.224
277.541	16.004	885.252	661.155
278.555	16.039	884.560	660.716
279.570	15.954	883.473	659.514
280.585	16.103	882.641	659.419
281.599	16.007	881.995	658.502
282.614	16.078	881.292	658.197
283.628	16.194	880.663	658.121
284.643	15.902	880.496	656.798
285.657	16.248	879.315	657.207
286.672	16.051	878.920	656.089
287.687	16.102	878.047	655.577
288.701	16.260	877.417	655.661
289.716	16.096	877.254	654.843
290.730	16.131	876.752	654.548
291.745	16.195	875.966	654.150
292.760	16.196	875.214	653.536
293.774	16.240	874.637	653.218
294.789	16.293	874.201	653.038
295.803	16.171	873.603	652.064
296.818	16.307	872.469	651.682
297.833	16.298	871.948	651.203
298.847	16.330	871.252	650.747
299.862	16.291	870.781	650.187
300.876	16.300	870.309	649.814
301.891	16.443	869.573	649.754
302.906	16.252	869.124	648.628
303.920	16.384	868.788	648.828
304.935	16.506	867.846	648.534
305.949	16.387	867.580	647.822
306.964	16.337	866.795	646.988
307.979	16.370	866.465	646.811
308.993	16.484	865.713	646.628
310.008	16.573	864.838	646.258
311.022	16.582	863.949	645.568
312.037	16.475	864.050	645.178
313.052	16.464	863.366	644.568
314.066	16.545	862.622	644.267
315.081	16.655	862.307	644.391
316.095	16.596	861.894	643.802
317.110	16.612	860.702	642.916
318.125	16.658	860.539	642.910
319.139	16.572	860.332	642.375
320.154	16.610	859.763	642.036
321.168	16.558	859.142	641.318
322.183	16.572	858.455	640.801
323.197	16.633	858.167	640.761
324.212	16.678	857.361	640.273
325.227	16.752	856.701	640.005
326.241	16.690	855.860	639.086
327.256	16.635	855.747	638.734
328.270	16.698	855.172	638.487
329.285	16.665	854.757	637.995
330.300	16.631	854.417	637.557
331.314	16.580	853.819	636.863
332.329	16.775	852.850	636.820
333.343	16.832	852.463	636.686
334.358	16.754	852.067	636.043
335.373	16.707	852.007	635.765
336.387	16.612	851.861	635.242
337.402	16.680	851.282	635.009
338.416	16.943	850.664	635.479
339.431	16.877	850.005	634.681
340.446	16.862	849.743	634.373
341.460	16.973	849.564	634.599
342.475	17.040	849.125	634.466
343.489	17.117	848.434	634.182
344.504	17.041	848.017	633.530
345.519	17.104	847.750	633.508
346.533	17.068	846.901	632.686
347.548	16.952	846.357	631.789
348.562	16.893	846.571	631.672
349.577	17.032	845.437	631.288
350.592	16.891	845.172	630.511
351.606	17.072	843.887	630.168
352.621	16.984	843.749	629.682
353.635	17.040	842.910	629.210
354.650	17.105	842.364	628.987
355.665	17.086	841.576	628.273
356.679	17.150	841.054	628.062
357.694	17.223	840.738	628.042
358.708	17.158	839.779	627.032
359.723	17.356	839.077	627.180
360.738	17.286	838.488	626.426
361.752	17.237	838.062	625.872
362.767	17.220	837.459	625.307
363.781	17.231	837.068	624.998
364.796	17.268	836.568	624.706
365.810	17.400	835.937	624.664
366.825	17.328	835.650	624.128
367.840	17.426	835.074	624.004
368.854	17.345	834.881	623.508
369.869	17.343	834.426	623.103
370.883	17.456	833.680	622.905
371.898	17.644	833.383	623.317
372.913	17.534	833.483	622.932
373.927	17.712	832.200	622.568
374.942	17.573	831.942	621.813
375.956	17.605	831.587	621.609
376.971	17.611	831.031	621.163
377.986	17.729	830.441	621.094
379.000	17.573	830.365	620.416
380.015	17.630	829.668	620.047
381.029	17.588	829.078	619.398
382.044	17.670	828.636	619.313
383.059	17.710	828.123	619.019
384.073	17.800	827.229	618.625
385.088	17.704	826.703	617.828
386.102	17.642	825.834	616.898
387.117	17.679	825.489	616.721
388.132	17.692	824.969	616.324
389.146	17.694	824.588	615.992
390.161	17.819	824.267	616.148
391.175	17.673	823.931	615.316
392.190	17.881	822.759	615.136
393.205	17.867	822.474	614.819
394.219	17.681	822.605	614.191
395.234	17.842	822.015	614.277
396.248	17.870	821.936	614.264
397.263	17.714	821.550	613.360
398.278	17.802	820.966	613.185
399.292	17.751	820.645	612.707
400.307	17.766	819.893	612.147
401.321	17.759	819.412	611.708
402.336	17.789	818.851	611.344
403.350	17.741	818.752	611.043
404.365	17.858	818.316	611.081
405.380	18.096	817.476	611.252
406.394	18.052	817.065	610.732
407.409	17.970	816.522	609.980
408.423	17.991	816.170	609.739
409.438	18.141	816.085	610.156
410.453	18.069	815.647	609.518
411.467	18.163	814.863	609.212
412.482	18.194	814.290	608.840
413.496	18.130	814.413	608.653
414.511	18.215	813.780	608.428
415.526	18.204	813.367	608.025
416.540	18.142	813.180	607.612
417.555	18.256	812.280	607.290
418.569	18.241	812.153	607.089
419.584	18.428	811.471	607.188
420.599	18.330	811.120	606.523
421.613	116.223	1299.977	1491.215
422.628	100.625	1371.157	1491.272
