DTS Sentinel unit serial number:	SN413079Multiplexer serial number:	ORYXHardware model number:	OX4-SRSoftware version number:	ORYX F/W v4.00 Oryx Data Collector v3.7.2.0data status	okinstallation	princeton_trtdifferential loss correction	single-endedforward channel	channel 1reverse channel	N/Adate	2019/09/19time	04:58:35forward acquisition time	60.00reverse acquisition time	0.00gamma	496.2192k internal	0.2343k external	0.2343temperature offset calibration	1.0018default loss term (dB/km)	0.3790temperature slope calibration	1.0000multiplexer offset coefficient	1.0000multiplexer slope coefficient	1.0000fibre end	0.00T internal ref (°C)	19.75T ext. ref 1 (°C)	0.61T ext. ref 2 (°C)	12.97length (m)	temperature (°C)	Stokes	anti-Stokes-747.200	-200.000	0.018	0.105
-746.185	202.561	-0.187	0.290
-745.171	22.668	-0.309	-0.254
-744.156	263.553	-0.115	0.201
-743.142	-18.817	-0.181	0.113
-742.127	760.224	-0.093	-0.254
-741.112	800.000	-0.025	0.091
-740.098	-120.760	0.180	0.030
-739.083	183.239	0.092	-0.136
-738.069	33.970	0.126	0.109
-737.054	-94.255	-0.191	0.052
-736.039	-200.000	-0.002	-0.200
-735.025	240.554	-0.021	-0.035
-734.010	-80.184	0.266	-0.089
-732.996	-200.000	0.011	-0.072
-731.981	48.144	0.243	-0.228
-730.966	-131.843	-0.139	-0.018
-729.952	-48.202	0.160	0.077
-728.937	-200.000	0.073	-0.331
-727.923	-200.000	0.043	-0.278
-726.908	659.394	0.049	-0.127
-725.894	22.822	-0.047	-0.038
-724.879	444.405	0.098	-0.216
-723.864	800.000	0.080	-0.328
-722.850	97.101	-0.201	-0.231
-721.835	800.000	0.074	-0.243
-720.821	283.247	-0.084	-0.151
-719.806	800.000	0.096	-0.391
-718.791	276.590	-0.225	0.399
-717.777	80.562	-0.066	-0.071
-716.762	-200.000	-0.056	-0.301
-715.748	-137.542	-0.006	-0.001
-714.733	617.005	0.084	0.211
-713.718	-29.185	-0.103	-0.059
-712.704	-67.491	-0.046	0.018
-711.689	18.435	-0.217	-0.174
-710.675	12.607	0.043	0.033
-709.660	164.261	-0.054	0.076
-708.645	-173.309	0.280	-0.009
-707.631	-24.640	0.137	-0.081
-706.616	147.435	0.080	-0.108
-705.602	-2.911	-0.150	0.105
-704.587	132.145	0.157	0.202
-703.572	114.057	-0.063	-0.077
-702.558	-35.695	0.070	-0.038
-701.543	-76.482	0.231	-0.081
-700.529	61.403	0.136	-0.135
-699.514	-85.110	-0.083	-0.026
-698.499	165.018	0.124	-0.175
-697.485	-200.000	0.038	0.175
-696.470	524.096	-0.035	-0.082
-695.456	-142.146	0.038	-0.004
-694.441	-200.000	0.029	-0.131
-693.426	-71.588	0.055	-0.021
-692.412	208.731	0.040	0.062
-691.397	-79.224	-0.426	-0.144
-690.383	-84.998	0.225	-0.070
-689.368	-138.692	0.256	-0.028
-688.354	22.260	-0.055	0.045
-687.339	786.898	0.040	0.109
-686.324	-2.473	-0.130	-0.091
-685.310	800.000	-0.073	0.232
-684.295	-158.663	0.117	-0.007
-683.281	-200.000	0.052	0.266
-682.266	-111.628	0.135	-0.027
-681.251	-200.000	0.007	-0.247
-680.237	95.896	-0.163	0.186
-679.222	-84.957	0.107	-0.033
-678.208	-76.950	-0.305	0.106
-677.193	800.000	-0.039	-0.165
-676.178	-117.167	0.149	-0.027
-675.164	145.923	0.129	0.173
-674.149	-52.500	0.082	0.038
-673.135	242.762	0.174	-0.292
-672.120	800.000	-0.079	0.272
-671.105	800.000	-0.082	0.327
-670.091	-200.000	-0.015	0.220
-669.076	-200.000	0.025	0.156
-668.062	585.899	-0.075	-0.184
-667.047	800.000	-0.024	0.103
-666.032	-42.408	-0.148	-0.075
-665.018	-22.788	-0.223	-0.135
-664.003	-154.409	-0.117	0.008
-662.989	-8.511	-0.063	0.042
-661.974	403.401	-0.085	0.179
-660.959	-129.376	0.096	-0.013
-659.945	-60.726	-0.232	0.098
-658.930	-63.144	-0.437	-0.180
-657.916	-33.845	-0.084	-0.046
-656.901	131.499	-0.074	0.095
-655.886	-35.573	-0.616	-0.333
-654.872	-107.489	-0.493	-0.108
-653.857	-104.137	0.331	0.077
-652.843	197.362	-0.060	0.091
-651.828	-152.941	0.283	-0.020
-650.814	-129.165	-0.363	0.051
-649.799	98.443	0.323	0.371
-648.784	86.507	0.179	-0.196
-647.770	-200.000	0.038	-0.323
-646.755	-200.000	-0.023	-0.121
-645.741	-120.311	-0.129	-0.022
-644.726	-40.901	-0.206	0.106
-643.711	61.125	-0.162	0.161
-642.697	112.649	-0.166	-0.201
-641.682	245.768	-0.106	0.177
-640.668	-74.609	0.464	-0.166
-639.653	83.348	-0.060	-0.066
-638.638	-53.230	-0.353	0.162
-637.624	800.000	0.073	0.292
-636.609	-1.367	-0.146	-0.103
-635.595	-154.636	-0.305	-0.020
-634.580	67.857	0.256	0.261
-633.565	-200.000	0.021	0.184
-632.551	-200.000	-0.010	-0.547
-631.536	35.775	-0.196	-0.172
-630.522	161.553	0.056	0.078
-629.507	91.516	-0.139	0.156
-628.492	544.916	-0.074	0.177
-627.478	-70.276	0.074	-0.028
-626.463	-200.000	-0.029	0.194
-625.449	-43.521	-0.171	0.086
-624.434	-200.000	0.013	0.058
-623.419	-78.903	-0.073	0.025
-622.405	162.776	-0.188	-0.263
-621.390	139.708	0.191	-0.251
-620.376	-200.000	-0.015	-0.092
-619.361	-108.672	0.265	-0.057
-618.346	20.322	0.195	0.157
-617.332	-173.476	-0.056	-0.002
-616.317	800.000	0.102	-0.414
-615.303	297.496	0.099	0.180
-614.288	-200.000	-0.001	-0.202
-613.273	633.011	-0.123	-0.312
-612.259	800.000	0.027	0.096
-611.244	-135.783	0.088	0.010
-610.230	-95.427	-0.123	0.033
-609.215	276.014	-0.037	-0.066
-608.201	-168.645	0.229	-0.009
-607.186	-34.834	0.192	-0.104
-606.171	-200.000	-0.016	-0.080
-605.157	-200.000	-0.017	-0.090
-604.142	800.000	0.005	0.018
-603.128	-200.000	0.038	-0.379
-602.113	-200.000	0.053	0.236
-601.098	402.640	-0.232	0.486
-600.084	800.000	-0.084	-0.288
-599.069	3.638	0.061	-0.044
-598.055	-200.000	-0.031	0.143
-597.040	-36.727	0.165	0.089
-596.025	-64.750	-0.041	0.017
-595.011	800.000	-0.121	-0.380
-593.996	406.731	-0.101	0.213
-592.982	566.384	-0.033	-0.079
-591.967	691.223	-0.142	0.369
-590.952	56.734	-0.213	0.207
-589.938	-148.710	0.124	-0.010
-588.923	75.124	-0.152	-0.159
-587.909	-200.000	0.029	0.163
-586.894	-200.000	0.004	-0.232
-585.879	-200.000	-0.029	-0.226
-584.865	6.751	0.082	0.061
-583.850	456.395	-0.050	-0.111
-582.836	-54.969	0.155	0.069
-581.821	129.445	-0.153	0.194
-580.806	207.452	-0.113	0.176
-579.792	412.766	-0.038	0.081
-578.777	-186.315	0.183	0.003
-577.763	161.004	0.193	-0.268
-576.748	-28.710	0.112	0.064
-575.733	499.539	0.255	0.585
-574.719	800.000	0.025	0.095
-573.704	-61.200	-0.290	0.121
-572.690	-200.000	-0.032	0.261
-571.675	-110.839	0.239	0.049
-570.661	800.000	0.051	-0.185
-569.646	-44.532	0.237	0.118
-568.631	-200.000	0.016	-0.141
-567.617	-43.886	-0.133	-0.067
-566.602	-107.320	0.335	-0.073
-565.588	-61.156	0.074	-0.031
-564.573	800.000	-0.057	0.197
-563.558	-200.000	-0.033	-0.187
-562.544	389.777	-0.047	0.098
-561.529	10.255	0.251	0.190
-560.515	-124.139	-0.200	0.031
-559.500	-72.246	-0.066	0.024
-558.485	-200.000	-0.074	-0.335
-557.471	-86.730	0.039	-0.012
-556.456	800.000	-0.055	-0.167
-555.442	233.215	-0.217	-0.355
-554.427	-66.558	-0.192	0.076
-553.412	97.430	0.031	0.036
-552.398	94.233	-0.303	-0.341
-551.383	304.048	-0.115	0.212
-550.369	-111.961	-0.085	-0.017
-549.354	-73.332	0.339	0.123
-548.339	-200.000	0.005	0.130
-547.325	-60.717	0.126	-0.053
-546.310	161.148	-0.146	-0.202
-545.296	767.810	0.136	-0.369
-544.281	800.000	0.048	-0.162
-543.266	471.801	0.109	0.244
-542.252	769.207	-0.078	0.210
-541.237	800.000	0.059	0.236
-540.223	-59.126	-0.295	0.127
-539.208	800.000	0.077	0.241
-538.193	-200.000	-0.003	-0.077
-537.179	-200.000	-0.031	-0.282
-536.164	-147.159	0.255	-0.022
-535.150	800.000	0.092	-0.290
-534.135	-200.000	0.005	-0.269
-533.121	535.685	0.080	-0.188
-532.106	-90.921	-0.227	-0.065
-531.091	115.825	-0.159	0.194
-530.077	-200.000	-0.006	0.192
-529.062	-200.000	0.001	-0.322
-528.048	-51.836	-0.117	0.054
-527.033	-142.088	-0.216	-0.021
-526.018	-200.000	-0.043	-0.215
-525.004	-120.190	0.138	-0.023
-523.989	10.405	0.115	0.087
-522.975	-113.179	0.212	-0.041
-521.960	69.758	0.207	-0.212
-520.945	-137.343	-0.259	-0.029
-519.931	-128.088	0.153	-0.022
-518.916	313.914	-0.104	-0.195
-517.902	-62.165	0.164	0.068
-516.887	-148.321	0.166	-0.014
-515.872	2.424	0.128	-0.092
-514.858	-70.700	0.281	0.105
-513.843	-200.000	-0.043	-0.228
-512.829	-17.646	0.261	-0.163
-511.814	-90.981	-0.363	0.104
-510.799	-191.212	-0.179	-0.002
-509.785	7.930	0.181	-0.135
-508.770	-35.343	-0.345	0.186
-507.756	234.956	-0.096	0.158
-506.741	-200.000	-0.057	0.287
-505.726	-104.419	0.129	0.030
-504.712	-123.796	-0.246	-0.039
-503.697	141.214	0.143	0.187
-502.683	-175.148	-0.520	-0.014
-501.668	800.000	0.068	-0.199
-500.653	-58.719	-0.162	-0.070
-499.639	4.567	0.043	-0.031
-498.624	-155.718	-0.178	-0.011
-497.610	75.905	-0.093	0.098
-496.595	140.121	-0.200	0.262
-495.581	652.824	-0.113	0.287
-494.566	-116.211	0.094	-0.017
-493.551	650.264	0.056	0.142
-492.537	800.000	-0.064	0.190
-491.522	-86.841	0.331	0.100
-490.508	-109.246	-0.503	-0.106
-489.493	800.000	-0.036	0.149
-488.478	-125.479	0.191	-0.029
-487.464	-87.445	0.389	-0.117
-486.449	-173.909	-0.349	0.010
-485.435	800.000	0.085	0.301
-484.420	193.698	0.106	-0.159
-483.405	67.334	-0.113	0.115
-482.391	-27.461	0.231	0.133
-481.376	-99.536	-0.312	-0.078
-480.362	399.491	0.107	-0.222
-479.347	314.214	-0.175	-0.326
-478.332	142.723	0.173	0.228
-477.318	-111.839	0.137	-0.027
-476.303	-200.000	-0.053	0.338
-475.289	238.773	-0.082	0.135
-474.274	393.299	-0.064	0.132
-473.259	49.206	-0.201	-0.187
-472.245	-114.627	0.155	0.029
-471.230	10.203	-0.224	-0.169
-470.216	8.435	-0.260	-0.194
-469.201	-56.670	0.155	-0.068
-468.186	-78.011	0.203	-0.069
-467.172	-81.031	0.153	0.050
-466.157	139.248	0.123	-0.160
-465.143	588.103	-0.037	0.090
-464.128	-32.780	-0.234	0.129
-463.113	-70.412	-0.159	0.060
-462.099	-32.681	0.241	-0.133
-461.084	51.703	-0.151	-0.142
-460.070	72.073	-0.221	0.228
-459.055	-20.574	-0.161	0.098
-458.040	-111.820	-0.067	0.013
-457.026	-13.646	0.289	0.186
-456.011	264.682	-0.048	0.083
-454.997	800.000	-0.103	0.357
-453.982	-75.432	0.123	-0.043
-452.968	-30.815	0.323	0.181
-451.953	188.788	0.459	-0.681
-450.938	-200.000	-0.051	0.275
-449.924	-64.795	-0.247	0.099
-448.909	-38.755	-0.223	-0.116
-447.895	-45.991	-0.128	0.063
-446.880	800.000	-0.078	0.331
-445.865	-37.337	-0.238	0.126
-444.851	-73.748	-0.070	0.025
-443.836	-139.850	-0.185	-0.019
-442.822	-66.285	-0.275	-0.109
-441.807	-200.000	0.009	-0.163
-440.792	517.371	-0.142	0.328
-439.778	-12.895	-0.280	-0.180
-438.763	-144.747	0.131	-0.012
-437.749	-200.000	0.009	-0.408
-436.734	527.373	-0.060	-0.141
-435.719	140.825	-0.030	0.040
-434.705	35.573	0.120	-0.104
-433.690	223.511	0.155	0.247
-432.676	104.335	-0.160	0.186
-431.661	97.246	0.154	-0.175
-430.646	97.015	0.015	-0.017
-429.632	288.912	-0.154	-0.276
-428.617	163.536	-0.068	0.095
-427.603	248.514	0.189	-0.316
-426.588	89.046	0.068	-0.075
-425.573	223.640	0.203	0.324
-424.559	27.466	-0.058	-0.048
-423.544	-21.218	-0.356	0.215
-422.530	407.421	-0.091	-0.190
-421.515	-45.492	0.224	-0.110
-420.500	6.202	-0.174	-0.128
-419.486	321.364	-0.076	0.143
-418.471	382.455	-0.273	0.556
-417.457	-200.000	0.010	-0.421
-416.442	-94.982	0.317	0.085
-415.428	800.000	-0.047	-0.168
-414.413	-200.000	-0.063	0.309
-413.398	-129.135	0.487	0.067
-412.384	106.731	-0.124	-0.145
-411.369	50.799	-0.282	0.264
-410.355	571.691	-0.017	0.041
-409.340	-200.000	-0.046	-0.250
-408.325	-55.274	-0.041	0.018
-407.311	-200.000	-0.014	-0.222
-406.296	371.844	-0.144	-0.289
-405.282	800.000	-0.084	0.246
-404.267	-200.000	-0.012	-0.197
-403.252	88.479	-0.067	-0.074
-402.238	-100.039	-0.225	0.056
-401.223	800.000	-0.026	-0.083
-400.209	51.422	0.148	0.139
-399.194	-131.072	0.203	-0.027
-398.179	-38.182	-0.145	-0.076
-397.165	236.314	-0.073	0.120
-396.150	-52.020	0.272	0.125
-395.136	800.000	0.018	-0.070
-394.121	-38.867	-0.095	0.050
-393.106	-115.941	-0.352	0.065
-392.092	-200.000	-0.064	0.416
-391.077	120.584	0.142	0.174
-390.063	800.000	0.071	0.230
-389.048	598.240	0.064	-0.157
-388.033	388.575	0.057	0.117
-387.019	81.204	0.227	0.242
-386.004	-200.000	0.034	0.247
-384.990	174.913	0.172	0.246
-383.975	129.338	0.217	-0.274
-382.960	800.000	0.054	-0.183
-381.946	-65.960	-0.042	-0.017
-380.931	47.318	0.332	-0.305
-379.917	4.744	0.176	-0.127
-378.902	126.670	-0.020	-0.025
-377.888	800.000	0.085	0.236
-376.873	800.000	-0.067	0.261
-375.858	800.000	-0.039	-0.117
-374.844	457.279	0.072	0.159
-373.829	103.097	0.212	0.246
-372.815	27.606	0.169	0.140
-371.800	-7.541	-0.079	-0.053
-370.785	800.000	0.078	-0.319
-369.771	-109.087	0.217	-0.046
-368.756	72.621	0.148	-0.152
-367.742	800.000	0.091	0.251
-366.727	800.000	0.060	0.166
-365.712	382.985	-0.053	0.107
-364.698	-200.000	0.032	-0.261
-363.683	48.799	-0.097	-0.090
-362.669	70.613	-0.219	-0.223
-361.654	2.797	-0.319	-0.229
-360.639	36.991	-0.171	0.149
-359.625	18.556	0.034	0.027
-358.610	-200.000	0.004	-0.067
-357.596	111.240	0.156	-0.185
-356.581	22.052	-0.149	-0.120
-355.566	800.000	0.063	-0.248
-354.552	800.000	0.105	-0.400
-353.537	260.894	-0.074	-0.126
-352.523	-200.000	0.009	0.083
-351.508	121.637	0.175	-0.215
-350.493	-200.000	0.005	0.128
-349.479	800.000	0.060	-0.208
-348.464	-97.831	0.114	0.029
-347.450	-175.238	0.190	0.005
-346.435	18.653	-0.247	0.195
-345.420	800.000	-0.084	0.305
-344.406	-29.566	-0.174	0.098
-343.391	-200.000	0.006	-0.166
-342.377	-164.158	0.151	-0.007
-341.362	-117.394	-0.445	-0.079
-340.348	519.832	-0.072	0.166
-339.333	23.716	0.145	0.117
-338.318	-116.759	-0.167	-0.030
-337.304	-200.000	-0.014	0.142
-336.289	-57.968	0.156	0.067
-335.275	59.029	0.142	0.137
-334.260	19.082	-0.217	0.172
-333.245	133.381	-0.315	0.402
-332.231	63.537	0.157	-0.155
-331.216	-200.000	-0.037	-0.237
-330.202	14.830	-0.205	-0.158
-329.187	-200.000	0.013	0.119
-328.172	-12.645	-0.172	0.111
-327.158	66.667	0.123	0.124
-326.143	122.537	-0.016	0.020
-325.129	669.487	0.103	-0.264
-324.114	42.958	-0.200	0.180
-323.099	-74.990	-0.036	0.013
-322.085	390.388	0.075	0.153
-321.070	-24.279	0.044	-0.026
-320.056	204.204	0.201	-0.307
-319.041	-69.008	0.356	-0.135
-318.026	-20.957	-0.190	0.115
-317.012	148.850	0.143	-0.190
-315.997	-131.341	-0.063	-0.008
-314.983	-56.663	-0.102	-0.044
-313.968	-200.000	0.032	0.180
-312.953	58.579	-0.256	0.247
-311.939	-7.241	-0.190	0.127
-310.924	-13.761	0.184	-0.117
-309.910	-28.272	-0.217	-0.124
-308.895	-62.980	0.285	0.116
-307.880	17.824	0.219	0.171
-306.866	-39.658	-0.056	0.029
-305.851	-140.154	-0.225	0.023
-304.837	2.473	0.176	-0.125
-303.822	-119.939	0.216	0.037
-302.807	47.694	-0.412	0.379
-301.793	-101.052	-0.118	-0.029
-300.778	614.826	-0.071	0.174
-299.764	800.000	-0.043	0.168
-298.749	-200.000	-0.023	-0.351
-297.735	-117.436	0.295	0.053
-296.720	-41.740	-0.195	0.098
-295.705	-32.255	-0.197	0.108
-294.691	27.339	-0.096	0.080
-293.676	-6.399	-0.071	0.048
-292.662	82.655	0.071	0.076
-291.647	-79.925	0.305	-0.101
-290.632	-57.822	0.159	0.068
-289.618	165.151	-0.111	0.154
-288.603	607.880	-0.164	0.402
-287.589	-53.775	-0.214	0.096
-286.574	-35.218	0.313	0.168
-285.559	38.622	-0.018	-0.016
-284.545	157.060	0.197	-0.267
-283.530	-147.108	-0.026	0.002
-282.516	-200.000	-0.043	0.552
-281.501	-42.227	0.076	-0.038
-280.486	13.086	0.065	-0.050
-279.472	-3.257	-0.168	0.115
-278.457	130.089	0.232	-0.292
-277.443	-15.869	0.447	0.280
-276.428	800.000	0.050	0.143
-275.413	78.560	-0.172	0.180
-274.399	-144.533	0.133	-0.012
-273.384	-14.851	0.214	-0.135
-272.370	16.357	0.158	-0.123
-271.355	43.979	0.177	0.160
-270.340	800.000	-0.085	-0.365
-269.326	47.973	0.140	-0.128
-268.311	-51.718	-0.152	-0.069
-267.297	66.833	0.070	-0.070
-266.282	-200.000	-0.017	0.256
-265.267	219.757	0.129	-0.203
-264.253	-200.000	-0.081	0.568
-263.238	24.371	-0.223	-0.181
-262.224	800.000	0.047	0.160
-261.209	-35.679	0.217	-0.115
-260.195	-19.545	0.497	-0.302
-259.180	142.338	0.177	-0.230
-258.165	-113.810	0.261	0.050
-257.151	-67.903	-0.194	0.074
-256.136	30.666	-0.067	0.056
-255.122	-45.259	0.204	-0.100
-254.107	168.801	0.194	-0.272
-253.092	-124.565	-0.066	-0.010
-252.078	-200.000	-0.067	-0.295
-251.063	199.335	0.111	-0.167
-250.049	-48.459	0.108	-0.051
-249.034	-200.000	0.016	-0.193
-248.019	225.375	0.076	-0.121
-247.005	22.554	-0.114	0.092
-245.990	800.000	0.031	-0.091
-244.976	-200.000	0.002	0.054
-243.961	800.000	0.028	-0.092
-242.946	114.196	0.162	0.194
-241.932	680.124	0.087	-0.223
-240.917	345.514	-0.048	-0.092
-239.903	157.758	0.097	-0.132
-238.888	87.687	-0.344	-0.374
-237.873	-113.968	0.110	0.021
-236.859	74.923	0.187	0.194
-235.844	-48.409	-0.158	0.075
-234.830	773.521	-0.015	0.040
-233.815	800.000	0.112	-0.349
-232.800	414.387	0.099	0.206
-231.786	-144.221	-0.375	-0.034
-230.771	13.139	0.194	0.148
-229.757	611.589	-0.107	-0.263
-228.742	-142.912	0.059	0.006
-227.727	-41.359	0.266	-0.135
-226.713	-103.891	-0.446	-0.102
-225.698	-85.755	0.058	-0.018
-224.684	200.589	-0.146	0.220
-223.669	48.106	-0.233	0.214
-222.655	6.154	0.316	0.230
-221.640	-7.960	-0.166	-0.110
-220.625	-7.569	0.046	0.031
-219.611	261.389	0.092	-0.155
-218.596	-18.052	0.251	0.154
-217.582	-137.767	-0.403	-0.044
-216.567	-200.000	0.019	-0.092
-215.552	484.606	-0.070	0.156
-214.538	800.000	-0.057	0.186
-213.523	800.000	-0.094	-0.272
-212.509	-55.684	-0.094	-0.041
-211.494	-136.299	0.259	-0.030
-210.479	-38.102	0.530	0.276
-209.465	36.207	-0.146	0.126
-208.450	609.666	-0.051	0.124
-207.436	81.429	0.173	0.183
-206.421	-40.492	0.085	0.043
-205.406	-80.590	-0.555	-0.181
-204.392	187.808	0.022	-0.032
-203.377	638.868	0.095	-0.238
-202.363	243.690	-0.068	-0.111
-201.348	-71.488	-0.293	-0.107
-200.333	-11.962	-0.296	-0.190
-199.319	602.245	0.082	-0.199
-198.304	240.189	-0.153	0.249
-197.290	2.724	-0.225	0.160
-196.275	166.589	-0.061	-0.084
-195.260	800.000	-0.021	0.085
-194.246	-82.858	0.232	0.074
-193.231	800.000	-0.078	-0.294
-192.217	63.518	-0.141	-0.139
-191.202	-200.000	0.008	-0.151
-190.187	517.433	0.040	-0.091
-189.173	-134.309	-0.276	0.033
-188.158	-200.000	0.010	0.124
-187.144	61.962	0.105	-0.103
-186.129	-200.000	-0.005	0.065
-185.114	-102.872	0.178	0.041
-184.100	437.993	0.108	-0.231
-183.085	-43.632	0.018	0.009
-182.071	-50.440	0.139	-0.064
-181.056	124.514	0.264	-0.325
-180.042	-200.000	-0.030	0.329
-179.027	-111.839	0.182	0.036
-178.012	53.673	0.109	-0.102
-176.998	16.671	0.093	-0.072
-175.983	-33.078	0.118	0.064
-174.969	162.571	-0.075	-0.103
-173.954	207.549	-0.082	0.126
-172.939	-145.859	0.134	0.012
-171.925	41.590	-0.242	-0.215
-170.910	-139.996	0.142	0.015
-169.896	-153.142	-0.314	-0.022
-168.881	146.560	0.162	0.213
-167.866	41.891	0.095	-0.084
-166.852	800.000	0.019	0.071
-165.837	-200.000	-0.001	0.200
-164.823	467.217	0.084	0.184
-163.808	800.000	-0.034	0.124
-162.793	-84.342	0.079	0.024
-161.779	115.600	-0.104	-0.124
-160.764	-102.890	0.339	0.079
-159.750	-187.584	0.072	-0.001
-158.735	-5.977	-0.248	-0.166
-157.720	-200.000	0.045	-0.296
-156.706	-200.000	-0.367	0.001
-155.691	-48.903	0.222	-0.104
-154.677	-60.391	0.243	-0.101
-153.662	-148.155	-0.198	0.016
-152.647	800.000	0.044	0.144
-151.633	-200.000	-0.010	0.060
-150.618	74.707	0.165	0.170
-149.604	-200.000	0.012	-0.147
-148.589	-55.332	0.134	0.059
-147.574	-16.485	0.194	0.121
-146.560	-15.875	0.148	0.092
-145.545	800.000	-0.083	-0.327
-144.531	514.150	0.028	-0.064
-143.516	280.450	0.069	0.121
-142.502	-200.000	0.036	0.186
-141.487	43.272	-0.037	0.033
-140.472	800.000	-0.059	-0.210
-139.458	800.000	-0.094	0.316
-138.443	45.902	0.164	0.148
-137.429	155.963	-0.309	-0.416
-136.414	85.763	0.043	0.046
-135.399	-120.440	0.181	-0.030
-134.385	-122.769	-0.042	-0.007
-133.370	-91.245	0.171	0.048
-132.356	-20.121	-0.075	-0.046
-131.341	16.782	-0.082	0.063
-130.326	58.327	-0.010	-0.010
-129.312	58.792	-0.282	-0.271
-128.297	28.606	-0.178	0.147
-127.283	800.000	0.112	0.386
-126.268	-200.000	0.097	-0.429
-125.253	-128.432	-0.324	0.045
-124.239	-77.870	0.219	-0.074
-123.224	800.000	-0.165	0.522
-122.210	-11.499	0.055	0.035
-121.195	116.124	0.024	-0.029
-120.180	800.000	0.085	0.300
-119.166	183.991	0.126	-0.182
-118.151	-160.877	0.201	0.010
-117.137	209.923	-0.053	0.082
-116.122	800.000	0.055	0.164
-115.107	800.000	-0.102	0.344
-114.093	-188.309	0.189	0.002
-113.078	212.153	0.033	-0.051
-112.064	-37.802	-0.122	-0.063
-111.049	449.146	0.170	-0.366
-110.034	74.809	0.199	0.204
-109.020	-200.000	0.033	0.171
-108.005	156.857	0.182	-0.246
-106.991	7.449	-0.099	0.072
-105.976	-163.340	-0.146	0.007
-104.962	-66.422	-0.123	0.048
-103.947	-97.042	0.495	-0.126
-102.932	17.181	0.049	-0.038
-101.918	-200.000	0.026	0.166
-100.903	-25.952	0.189	-0.109
-99.889	283.537	0.115	-0.201
-98.874	-40.413	0.097	-0.049
-97.859	-200.000	-0.039	0.331
-96.845	107.938	-0.048	-0.055
-95.830	-70.256	0.302	-0.112
-94.816	-100.764	0.077	-0.019
-93.801	-62.546	0.261	-0.106
-92.786	-96.986	0.315	0.080
-91.772	-52.122	-0.140	-0.063
-90.757	-81.371	0.175	-0.056
-89.743	51.892	0.368	-0.342
-88.728	450.745	-0.107	0.231
-87.713	89.985	0.043	-0.047
-86.699	-13.053	0.324	0.206
-85.684	-39.444	-0.368	-0.188
-84.670	800.000	-0.094	0.256
-83.655	800.000	0.068	-0.239
-82.640	-14.706	-0.458	0.287
-81.626	98.219	-0.157	0.176
-80.611	161.468	0.176	0.240
-79.597	159.910	-0.127	0.173
-78.582	565.690	0.035	-0.082
-77.567	-70.829	0.166	-0.061
-76.553	-70.991	-0.160	0.059
-75.538	77.872	0.138	0.143
-74.524	165.780	-0.117	-0.161
-73.509	800.000	-0.047	-0.171
-72.494	800.000	-0.105	0.418
-71.480	800.000	0.016	0.060
-70.465	-40.579	-0.178	0.090
-69.451	40.835	-0.080	0.070
-68.436	-37.471	-0.290	-0.151
-67.422	65.751	0.045	-0.045
-66.407	800.000	-0.033	0.116
-65.392	800.000	-0.050	-0.158
-64.378	-146.809	0.553	-0.047
-63.363	-37.295	0.136	0.071
-62.349	-200.000	0.013	0.153
-61.334	132.221	-1.219	-1.531
-60.319	-13.059	0.953	0.604
-59.305	429.944	-0.673	-1.420
-58.290	516.434	0.625	1.423
-57.276	470.078	0.633	1.387
-56.261	-200.000	137.924	628.389
-55.246	337.303	1653.042	3131.745
-54.232	136.264	2781.872	3535.677
-53.217	82.318	2158.134	2281.991
-52.203	30.267	1593.724	1326.258
-51.188	22.702	1345.893	1074.106
-50.173	20.819	1311.380	1035.338
-49.159	46.555	1386.857	1254.241
-48.144	42.356	1395.360	1236.082
-47.130	22.661	1343.260	1071.585
-46.115	19.847	1324.705	1039.852
-45.100	19.657	1319.216	1034.361
-44.086	19.718	1316.414	1032.491
-43.071	19.585	1314.412	1030.083
-42.057	19.596	1312.265	1028.429
-41.042	19.568	1310.872	1027.126
-40.027	19.693	1308.796	1026.204
-39.013	19.733	1306.724	1024.778
-37.998	19.635	1305.179	1022.942
-36.984	19.745	1303.720	1022.411
-35.969	19.777	1302.060	1021.256
-34.954	19.694	1300.484	1019.492
-33.940	19.730	1299.115	1018.591
-32.925	19.750	1297.756	1017.598
-31.911	19.826	1296.068	1016.685
-30.896	19.923	1294.568	1016.032
-29.881	19.883	1293.312	1014.775
-28.867	19.880	1292.012	1013.695
-27.852	19.773	1290.654	1011.962
-26.838	19.782	1289.648	1011.186
-25.823	19.890	1287.949	1010.445
-24.809	19.782	1286.507	1008.648
-23.794	19.779	1285.634	1007.904
-22.779	19.798	1283.917	1006.625
-21.765	19.746	1283.245	1005.761
-20.750	19.781	1281.651	1004.673
-19.736	19.787	1280.395	1003.681
-18.721	19.726	1279.303	1002.431
-17.706	19.787	1278.064	1001.779
-16.692	19.739	1276.759	1000.437
-15.677	19.709	1275.740	999.427
-14.663	19.696	1274.682	998.478
-13.648	19.722	1273.590	997.734
-12.633	19.757	1272.072	996.709
-11.619	19.742	1271.699	996.293
-10.604	19.792	1270.499	995.599
-9.590	19.583	1270.019	993.982
-8.575	19.779	1268.374	993.783
-7.560	19.749	1267.599	992.963
-6.546	19.672	1267.298	992.243
-5.531	19.574	1266.573	991.076
-4.517	19.702	1265.616	991.020
-3.502	19.800	1264.522	990.685
-2.487	19.739	1263.983	989.877
-1.473	19.590	1258.979	985.070
-0.458	17.774	1244.129	963.164
0.556	13.220	1228.594	925.421
1.571	9.649	1236.820	911.372
2.586	8.825	1252.928	918.439
3.600	9.056	1240.414	910.499
4.615	7.018	1169.141	847.201
5.629	2.600	1101.695	775.923
6.644	0.610	1086.152	754.965
7.659	0.640	1084.377	753.816
8.673	0.555	1083.801	752.923
9.688	0.646	1082.310	752.275
10.702	0.718	1079.668	750.732
11.717	3.322	1082.163	765.351
12.731	9.417	1090.216	801.408
13.746	15.058	1097.812	835.140
14.761	17.140	1100.237	847.311
15.775	16.439	1099.009	842.793
16.790	15.520	1096.684	836.362
17.804	14.865	1095.190	831.889
18.819	14.487	1094.047	829.068
19.834	14.310	1092.658	827.062
20.848	14.095	1091.804	825.277
21.863	13.787	1091.360	823.338
22.877	13.644	1090.289	821.752
23.892	13.651	1089.474	821.095
24.907	13.718	1088.929	820.945
25.921	13.603	1088.565	820.029
26.936	13.830	1087.348	820.163
27.950	13.667	1086.564	818.695
28.965	13.815	1084.748	817.984
29.980	13.819	1083.401	816.913
30.994	13.835	1082.554	816.280
32.009	13.784	1081.838	815.417
33.023	13.771	1080.334	814.151
34.038	13.805	1079.729	813.789
35.053	13.841	1078.665	813.090
36.067	13.881	1077.659	812.455
37.082	13.784	1076.982	811.401
38.096	13.751	1076.354	810.695
39.111	13.794	1075.279	810.021
40.126	13.746	1074.136	808.854
41.140	13.771	1072.888	807.964
42.155	13.674	1071.962	806.727
43.169	13.656	1071.092	805.913
44.184	13.679	1069.921	805.069
45.199	13.679	1068.996	804.304
46.213	13.696	1067.506	803.192
47.228	13.669	1066.852	802.501
48.242	13.626	1065.868	801.483
49.257	13.775	1064.800	801.326
50.271	13.692	1064.057	800.297
51.286	13.776	1062.673	799.591
52.301	13.819	1061.674	798.972
53.315	13.696	1061.261	798.000
54.330	13.682	1059.834	796.791
55.344	13.566	1059.395	795.830
56.359	13.749	1058.118	795.679
57.374	13.622	1057.503	794.540
58.388	13.628	1056.488	793.735
59.403	13.646	1055.732	793.180
60.417	13.633	1054.477	792.109
61.432	13.633	1053.805	791.533
62.447	13.679	1053.264	791.273
63.461	13.509	1052.557	789.865
64.476	13.515	1051.441	788.985
65.490	13.553	1050.828	788.634
66.505	13.657	1049.982	788.427
67.520	13.580	1049.199	787.401
68.534	13.666	1048.192	786.987
69.549	13.637	1047.745	786.441
70.563	13.674	1046.561	785.660
71.578	13.679	1045.221	784.608
72.593	13.555	1045.259	783.980
73.607	13.468	1044.680	783.064
74.622	13.465	1044.225	782.642
75.636	13.487	1043.124	781.850
76.651	13.469	1042.411	781.163
77.666	13.505	1041.911	780.889
78.680	13.559	1040.744	780.198
79.695	13.513	1040.727	779.898
80.709	13.665	1039.577	779.681
81.724	13.562	1039.019	778.713
82.739	13.644	1038.016	778.275
83.753	13.692	1037.640	778.151
84.768	13.708	1036.602	777.379
85.782	13.825	1035.402	776.956
86.797	13.760	1034.960	776.254
87.812	13.620	1033.998	774.807
88.826	13.639	1032.722	773.870
89.841	13.729	1031.574	773.361
90.855	13.782	1030.543	772.767
91.870	13.706	1030.354	772.205
92.884	13.881	1029.038	771.966
93.899	13.843	1028.230	771.114
94.914	13.931	1027.505	770.907
95.928	13.895	1026.959	770.266
96.943	13.901	1025.998	769.504
97.957	13.739	1025.088	768.003
98.972	13.854	1024.311	767.884
99.987	13.876	1023.371	767.213
101.001	13.774	1021.938	765.600
102.016	13.946	1021.335	765.877
103.030	13.843	1020.875	764.988
104.045	13.857	1019.635	764.054
105.060	13.792	1018.961	763.181
106.074	13.675	1017.702	761.636
107.089	13.754	1016.783	761.241
108.103	13.831	1015.797	760.788
109.118	13.721	1015.089	759.686
110.133	13.721	1014.212	758.966
111.147	13.739	1013.297	758.297
112.162	13.605	1012.948	757.353
113.176	13.785	1011.750	757.212
114.191	13.855	1010.906	756.836
115.206	13.717	1010.761	756.030
116.220	13.735	1009.293	754.947
117.235	13.739	1008.177	754.066
118.249	13.759	1007.694	753.725
119.264	13.799	1006.755	753.137
120.279	13.747	1005.615	751.984
121.293	13.649	1005.950	751.721
122.308	13.750	1004.186	750.797
123.322	13.739	1003.495	750.162
124.337	13.751	1002.112	749.116
125.352	13.744	1000.863	748.083
126.366	13.792	999.816	747.451
127.381	13.681	999.065	746.327
128.395	13.752	998.009	745.792
129.410	13.792	997.133	745.250
130.424	13.759	996.393	744.483
131.439	13.867	995.283	744.068
132.454	13.808	994.663	743.274
133.468	13.702	993.954	742.207
134.483	13.826	992.703	741.760
135.497	13.755	992.214	741.011
136.512	13.667	991.304	739.876
137.527	13.711	990.298	739.256
138.541	13.824	989.640	739.201
139.556	13.801	989.144	738.665
140.570	13.907	988.252	738.406
141.585	13.948	987.331	737.830
142.600	13.946	986.863	737.408
143.614	13.936	985.717	736.442
144.629	13.934	984.871	735.738
145.643	13.914	983.779	734.765
146.658	13.839	983.137	733.891
147.673	13.719	982.711	732.977
148.687	13.880	981.416	732.658
149.702	13.813	980.670	731.740
150.716	13.883	980.022	731.499
151.731	13.881	979.328	730.910
152.746	13.976	977.940	730.224
153.760	13.940	977.747	729.860
154.775	13.900	977.234	729.238
155.789	14.041	976.635	729.344
156.804	13.974	975.771	728.339
157.819	14.018	975.113	727.975
158.833	14.074	974.150	727.437
159.848	14.082	973.268	726.751
160.862	14.100	972.269	726.017
161.877	14.136	971.302	725.388
162.892	14.190	970.306	724.815
163.906	14.157	969.383	723.918
164.921	14.020	968.842	722.854
165.935	14.099	967.910	722.438
166.950	14.204	966.743	721.960
167.964	14.144	965.883	720.995
168.979	14.156	965.136	720.424
169.994	14.079	964.610	719.636
171.008	14.140	963.552	719.047
172.023	14.152	963.247	718.808
173.037	14.327	962.347	718.827
174.052	14.211	961.645	717.737
175.067	14.165	960.998	716.994
176.081	14.135	960.388	716.345
177.096	14.163	959.615	715.827
178.110	14.154	959.435	715.589
179.125	14.252	958.396	715.174
180.140	14.207	958.150	714.734
181.154	14.279	957.608	714.572
182.169	14.429	956.805	714.554
183.183	14.306	956.296	713.583
184.198	14.332	955.713	713.196
185.213	14.349	954.984	712.662
186.227	14.427	954.135	712.300
187.242	14.472	953.539	711.986
188.256	14.508	953.033	711.697
189.271	14.519	951.782	710.749
190.286	14.431	951.256	709.915
191.300	14.333	950.719	709.038
192.315	14.339	950.043	708.493
193.329	14.342	949.470	708.017
194.344	14.311	948.847	707.358
195.359	14.412	948.165	707.214
196.373	14.385	947.570	706.595
197.388	14.472	947.116	706.564
198.402	14.531	946.230	706.090
199.417	14.553	945.641	705.680
200.432	14.523	945.182	705.148
201.446	14.682	944.838	705.499
202.461	14.738	943.965	705.024
203.475	14.766	943.412	704.666
204.490	14.646	942.784	703.630
205.504	14.527	941.921	702.423
206.519	14.577	941.223	702.047
207.534	14.574	940.671	701.562
208.548	14.668	939.530	701.042
209.563	14.660	939.202	700.704
210.577	14.646	938.139	699.791
211.592	14.857	937.526	700.155
212.607	14.724	936.923	699.087
213.621	14.724	936.142	698.442
214.636	14.770	935.560	698.135
215.650	14.779	934.728	697.493
216.665	14.849	934.079	697.236
217.680	14.818	933.506	696.618
218.694	14.846	932.742	696.103
219.709	14.958	932.007	695.960
220.723	14.919	931.140	695.089
221.738	14.743	930.681	693.956
222.753	14.830	930.044	693.777
223.767	14.765	929.589	693.110
224.782	15.120	928.799	693.931
225.796	14.895	928.533	692.737
226.811	14.955	927.902	692.454
227.826	14.929	927.209	691.769
228.840	14.978	925.858	690.902
229.855	15.069	925.278	690.784
230.869	14.919	924.456	689.490
231.884	14.970	924.218	689.459
232.899	14.922	923.155	688.410
233.913	14.920	922.648	687.962
234.928	15.146	921.617	688.060
235.942	14.987	921.075	686.942
236.957	14.884	920.623	686.124
237.972	15.110	919.910	686.457
238.986	14.964	919.281	685.328
240.001	15.009	918.602	684.947
241.015	15.128	917.848	684.810
242.030	15.101	917.374	684.286
243.045	15.233	916.499	684.110
244.059	15.124	915.889	683.151
245.074	15.254	915.008	682.963
246.088	15.091	914.750	682.044
247.103	15.262	913.847	682.007
248.117	15.151	913.673	681.367
249.132	15.400	912.569	681.494
250.147	15.386	911.764	680.777
251.161	15.382	911.094	680.200
252.176	15.350	910.696	679.710
253.190	15.403	909.984	679.334
254.205	15.455	909.498	679.120
255.220	15.427	908.717	678.365
256.234	15.466	908.021	677.943
257.249	15.521	907.575	677.774
258.263	15.464	906.729	676.849
259.278	15.511	906.007	676.441
260.293	15.567	905.296	676.076
261.307	15.549	904.923	675.664
262.322	15.595	904.037	675.129
263.336	15.674	903.027	674.631
264.351	15.747	902.508	674.475
265.366	15.733	902.046	674.017
266.380	15.623	901.574	673.162
267.395	15.555	901.052	672.440
268.409	15.734	900.117	672.401
269.424	15.870	899.111	672.133
270.439	15.822	898.346	671.310
271.453	15.766	897.796	670.616
272.468	15.718	897.378	670.054
273.482	15.763	896.574	669.572
274.497	15.715	895.987	668.883
275.512	15.679	895.781	668.527
276.526	15.777	895.098	668.348
277.541	15.785	894.464	667.847
278.555	15.887	893.651	667.587
279.570	15.956	893.547	667.724
280.585	15.903	892.634	666.771
281.599	16.014	891.450	666.268
282.614	15.983	891.114	665.834
283.628	15.960	890.241	665.032
284.643	16.114	889.516	665.040
285.657	15.922	889.247	664.020
286.672	15.964	888.724	663.739
287.687	15.864	887.884	662.659
288.701	16.050	886.874	662.576
289.716	15.935	886.694	661.933
290.730	15.994	885.889	661.505
291.745	15.970	885.507	661.069
292.760	15.936	885.141	660.600
293.774	16.048	883.933	660.080
294.789	16.218	883.409	660.295
295.803	16.022	882.866	659.067
296.818	16.063	882.262	658.718
297.833	16.077	881.179	657.904
298.847	16.206	880.672	657.970
299.862	16.230	880.075	657.560
300.876	16.237	879.644	657.206
301.891	16.168	878.906	656.330
302.906	16.138	878.775	656.057
303.920	16.367	877.776	656.140
304.935	16.329	877.280	655.564
305.949	16.124	877.225	654.672
306.964	16.232	876.147	654.227
307.979	16.300	875.616	654.034
308.993	16.458	874.930	654.077
310.008	16.262	874.446	652.901
311.022	16.351	873.722	652.645
312.037	16.497	872.976	652.594
313.052	16.356	872.671	651.762
314.066	16.389	872.100	651.407
315.081	16.329	871.064	650.344
316.095	16.410	870.625	650.271
317.110	16.327	870.326	649.669
318.125	16.381	869.719	649.368
319.139	16.384	869.433	649.107
320.154	16.415	869.015	648.856
321.168	16.483	868.077	648.360
322.183	16.633	867.305	648.301
323.197	16.391	866.958	647.057
324.212	16.316	867.267	646.945
325.227	16.398	865.981	646.239
326.241	16.496	865.371	646.104
327.256	16.401	864.937	645.358
328.270	16.551	864.316	645.413
329.285	16.498	863.469	644.520
330.300	16.462	863.225	644.143
331.314	16.479	862.474	643.592
332.329	16.534	862.098	643.462
333.343	16.605	861.880	643.513
334.358	16.632	861.039	642.932
335.373	16.555	860.776	642.385
336.387	16.723	860.426	642.703
337.402	16.646	860.337	642.287
338.416	16.668	859.682	641.827
339.431	16.717	859.100	641.520
340.446	16.742	858.609	641.192
341.460	16.722	858.559	641.021
342.475	16.827	857.994	640.940
343.489	16.935	857.532	640.949
344.504	16.882	857.004	640.296
345.519	16.904	856.558	639.987
346.533	16.887	856.298	639.672
347.548	16.892	855.613	639.125
348.562	16.949	854.603	638.526
349.577	16.812	854.551	637.915
350.592	16.865	853.869	637.550
351.606	16.891	853.200	637.094
352.621	16.890	852.415	636.446
353.635	16.985	851.716	636.224
354.650	17.053	850.900	635.814
355.665	16.957	850.505	635.102
356.679	16.884	849.882	634.309
357.694	17.061	849.399	634.552
358.708	17.018	848.522	633.680
359.723	16.956	847.775	632.836
360.738	16.994	847.270	632.543
361.752	17.253	846.689	633.020
362.767	17.271	846.081	632.578
363.781	17.136	845.781	631.793
364.796	17.202	845.264	631.598
365.810	17.178	844.882	631.166
366.825	17.361	844.430	631.452
367.840	17.321	843.925	630.870
368.854	17.214	843.224	629.895
369.869	17.226	843.018	629.728
370.883	17.213	842.576	629.295
371.898	17.285	841.903	629.004
372.913	17.316	841.786	628.974
373.927	17.341	841.231	628.595
374.942	17.349	840.747	628.207
375.956	17.335	840.534	627.943
376.971	17.528	839.376	627.732
377.986	17.462	839.674	627.659
379.000	17.621	838.633	627.409
380.015	17.445	838.656	626.723
381.029	17.395	838.124	626.085
382.044	17.476	837.252	625.676
383.059	17.552	836.538	625.367
384.073	17.477	836.029	624.656
385.088	17.487	835.176	623.999
386.102	17.587	834.797	624.029
387.117	17.629	834.038	623.560
388.132	17.669	833.420	623.189
389.146	17.551	833.421	622.702
390.161	17.603	832.714	622.310
391.175	17.623	832.371	622.071
392.190	17.647	831.665	621.576
393.205	17.630	830.987	620.951
394.219	17.605	831.109	620.896
395.234	17.678	830.762	620.847
396.248	17.637	830.103	620.153
397.263	17.612	829.753	619.743
398.278	17.695	829.079	619.489
399.292	17.667	828.839	619.152
400.307	17.738	828.022	618.744
401.321	17.608	827.970	618.180
402.336	17.825	827.245	618.371
403.350	17.654	826.821	617.380
404.365	17.760	826.423	617.408
405.380	17.821	825.616	616.972
406.394	17.891	825.404	617.013
407.409	17.873	824.794	616.438
408.423	17.861	824.596	616.191
409.438	17.994	824.112	616.256
410.453	18.055	823.810	616.196
411.467	17.940	823.327	615.366
412.482	18.047	822.909	615.382
413.496	18.073	822.641	615.222
414.511	17.745	822.678	614.016
415.526	17.968	821.678	614.016
416.540	18.047	821.452	614.077
417.555	18.233	820.541	614.009
418.569	17.999	820.491	613.077
419.584	18.081	819.777	612.784
420.599	18.238	819.276	612.917
421.613	115.591	1302.325	1492.338
422.628	100.247	1372.640	1492.398
