DTS Sentinel unit serial number:	SN413079Multiplexer serial number:	ORYXHardware model number:	OX4-SRSoftware version number:	ORYX F/W v4.00 Oryx Data Collector v3.7.2.0data status	okinstallation	princeton_trtdifferential loss correction	single-endedforward channel	channel 1reverse channel	N/Adate	2019/09/18time	15:38:35forward acquisition time	60.00reverse acquisition time	0.00gamma	496.2192k internal	0.2300k external	0.2300temperature offset calibration	1.0002default loss term (dB/km)	0.3790temperature slope calibration	1.0000multiplexer offset coefficient	1.0000multiplexer slope coefficient	1.0000fibre end	0.00T internal ref (°C)	36.36T ext. ref 1 (°C)	0.79T ext. ref 2 (°C)	30.56length (m)	temperature (°C)	Stokes	anti-Stokes-747.200	9.159	-0.037	-0.029
-746.185	30.318	-0.199	0.173
-745.171	-34.870	0.258	-0.144
-744.156	60.907	-0.252	-0.255
-743.142	294.180	0.072	-0.133
-742.127	305.837	-0.110	0.208
-741.112	503.548	0.155	0.367
-740.098	-200.000	-0.010	0.073
-739.083	-200.000	-0.008	-0.204
-738.069	257.155	0.129	0.226
-737.054	-108.205	0.242	-0.053
-736.039	-160.631	0.162	0.009
-735.025	-22.016	0.107	0.066
-734.010	-81.574	-0.304	-0.102
-732.996	-58.097	-0.117	-0.052
-731.981	510.156	0.081	-0.192
-730.966	84.050	-0.146	-0.163
-729.952	452.799	-0.166	0.375
-728.937	572.154	0.116	-0.288
-727.923	59.396	-0.047	0.047
-726.908	-200.000	0.047	-0.222
-725.894	-68.042	-0.211	-0.084
-724.879	75.571	-0.140	-0.150
-723.864	-200.000	0.005	-0.036
-722.850	128.237	0.122	0.158
-721.835	-18.963	0.219	-0.139
-720.821	61.288	-0.260	0.263
-719.806	800.000	-0.046	-0.197
-718.791	-200.000	-0.007	-0.039
-717.777	-72.901	-0.181	0.068
-716.762	-146.464	-0.159	0.014
-715.748	124.033	0.200	-0.256
-714.733	671.375	-0.059	0.155
-713.718	-24.216	0.086	0.052
-712.704	3.600	-0.271	-0.201
-711.689	34.962	-0.137	0.122
-710.675	-55.547	-0.115	-0.052
-709.660	-31.077	0.245	0.141
-708.645	-119.707	-0.245	-0.043
-707.631	-104.277	0.395	-0.093
-706.616	24.991	0.082	-0.069
-705.602	-200.000	0.012	-0.267
-704.587	209.377	-0.132	0.210
-703.572	-200.000	0.023	0.171
-702.558	207.418	-0.160	0.255
-701.543	-200.000	-0.038	-0.348
-700.529	-8.736	0.063	-0.043
-699.514	-148.696	0.120	-0.010
-698.499	35.992	0.250	-0.224
-697.485	800.000	0.054	-0.204
-696.470	56.768	-0.125	-0.124
-695.456	224.168	-0.120	0.197
-694.441	-32.431	-0.043	0.024
-693.426	262.669	0.138	0.243
-692.412	225.889	-0.185	0.306
-691.397	-32.973	0.100	0.056
-690.383	-148.692	0.058	0.005
-689.368	-200.000	-0.001	-0.032
-688.354	-111.051	-0.161	-0.034
-687.339	-200.000	-0.007	-0.106
-686.324	800.000	-0.055	-0.157
-685.310	-59.414	0.196	0.086
-684.295	800.000	-0.105	-0.466
-683.281	-200.000	0.016	0.294
-682.266	-200.000	0.007	0.169
-681.251	-1.755	0.383	0.274
-680.237	192.497	0.096	-0.148
-679.222	800.000	-0.041	0.145
-678.208	164.457	0.076	0.109
-677.193	-200.000	0.046	0.222
-676.178	-33.362	-0.221	0.125
-675.164	235.436	0.136	-0.229
-674.149	-46.558	-0.347	-0.173
-673.135	-200.000	-0.017	-0.145
-672.120	156.611	-0.110	-0.155
-671.105	-200.000	0.056	-0.250
-670.091	-200.000	0.002	0.117
-669.076	223.469	-0.046	0.076
-668.062	32.637	0.034	-0.030
-667.047	-121.335	0.082	-0.014
-666.032	102.298	0.090	0.107
-665.018	-20.988	-0.169	0.105
-664.003	236.727	0.188	0.317
-662.989	-200.000	-0.011	0.064
-661.974	364.469	0.126	0.257
-660.959	40.614	0.103	0.094
-659.945	-200.000	-0.043	-0.255
-658.930	-200.000	-0.042	0.226
-657.916	73.702	-0.177	-0.188
-656.901	-172.452	0.323	0.010
-655.886	54.493	-0.212	-0.207
-654.872	378.210	-0.048	0.100
-653.857	800.000	-0.075	-0.255
-652.843	76.965	-0.112	-0.121
-651.828	275.691	0.169	0.305
-650.814	311.234	0.155	0.294
-649.799	65.430	-0.150	-0.155
-648.784	315.759	0.158	0.303
-647.770	-39.283	0.221	0.118
-646.755	365.759	-0.191	-0.391
-645.741	-200.000	-0.006	0.106
-644.726	-67.486	0.101	0.040
-643.711	337.820	0.085	-0.168
-642.697	349.785	-0.175	-0.352
-641.682	-156.920	-0.186	0.012
-640.668	800.000	0.147	-0.479
-639.653	144.687	0.133	-0.181
-638.638	-76.483	-0.049	-0.018
-637.624	75.382	-0.231	-0.248
-636.609	-63.448	0.336	-0.140
-635.595	440.951	-0.142	-0.315
-634.580	97.139	0.145	-0.168
-633.565	16.984	-0.048	-0.039
-632.551	423.757	-0.190	-0.415
-631.536	-200.000	0.011	-0.079
-630.522	-82.304	0.196	0.065
-629.507	800.000	0.021	0.081
-628.492	2.005	0.185	-0.135
-627.478	-10.068	-0.243	0.164
-626.463	-200.000	-0.155	0.000
-625.449	-200.000	-0.000	-0.153
-624.434	800.000	-0.013	0.051
-623.419	20.849	0.162	-0.133
-622.405	800.000	-0.068	-0.209
-621.390	103.027	0.071	0.084
-620.376	37.891	0.167	-0.151
-619.361	-186.833	0.365	-0.005
-618.346	224.735	-0.225	0.369
-617.332	800.000	-0.086	0.301
-616.317	-25.079	-0.326	-0.196
-615.303	-200.000	0.064	0.318
-614.288	18.129	0.084	-0.068
-613.273	-200.000	0.021	0.223
-612.259	-79.324	0.256	0.088
-611.244	94.984	0.035	0.040
-610.230	151.515	-0.170	-0.234
-609.215	-200.000	-0.033	-0.392
-608.201	786.966	-0.220	-0.612
-607.186	-200.000	0.041	-0.475
-606.171	5.599	-0.047	0.035
-605.157	248.125	0.115	-0.197
-604.142	-63.724	0.098	0.041
-603.128	274.861	0.061	-0.109
-602.113	17.883	-0.399	-0.322
-601.098	536.643	-0.099	0.238
-600.084	-71.402	0.324	-0.123
-599.069	-114.464	-0.225	-0.044
-598.055	-200.000	0.002	-0.400
-597.040	-200.000	0.035	0.247
-596.025	-200.000	0.001	-0.087
-595.011	-101.903	0.302	-0.074
-593.996	-11.188	-0.261	-0.174
-592.982	326.048	-0.230	-0.446
-591.967	68.609	-0.194	0.202
-590.952	-25.876	0.065	-0.039
-589.938	453.124	0.126	-0.283
-588.923	800.000	-0.110	-0.383
-587.909	-120.620	-0.289	0.050
-586.894	-129.372	0.239	-0.034
-585.879	-61.150	0.209	0.089
-584.865	800.000	0.050	0.199
-583.850	-200.000	-0.035	0.271
-582.836	800.000	-0.063	0.278
-581.821	-66.179	-0.103	0.042
-580.806	384.528	-0.088	-0.185
-579.792	174.398	-0.145	-0.212
-578.777	-150.048	-0.342	-0.027
-577.763	166.997	0.060	0.086
-576.748	-32.720	-0.298	-0.168
-575.733	-104.820	-0.175	0.041
-574.719	-166.931	0.322	0.013
-573.704	277.581	-0.095	-0.171
-572.690	740.521	-0.037	0.102
-571.675	-59.299	0.218	0.095
-570.661	224.467	-0.115	-0.188
-569.646	-124.587	-0.096	0.015
-568.631	62.637	0.213	-0.216
-567.617	-12.970	0.038	-0.025
-566.602	41.528	-0.035	-0.032
-565.588	363.178	-0.146	-0.298
-564.573	-145.149	0.213	-0.020
-563.558	-2.070	0.114	-0.081
-562.544	457.519	-0.077	0.172
-561.529	800.000	-0.046	0.191
-560.515	29.202	-0.150	-0.129
-559.500	203.957	0.097	-0.152
-558.485	98.706	0.073	0.085
-557.471	127.184	0.237	0.304
-556.456	-48.502	-0.096	-0.047
-555.442	-25.316	0.198	0.119
-554.427	-58.780	0.198	0.087
-553.412	-200.000	0.075	0.423
-552.398	291.777	-0.207	0.381
-551.383	-87.977	-0.123	0.037
-550.369	11.106	-0.119	0.092
-549.354	-15.386	-0.095	0.062
-548.339	-12.831	-0.079	-0.052
-547.325	-38.082	-0.166	-0.089
-546.310	-200.000	-0.064	-0.319
-545.296	31.579	-0.133	-0.115
-544.281	-32.761	0.201	0.113
-543.266	-28.263	0.123	-0.072
-542.252	7.276	-0.098	-0.074
-541.237	252.167	0.069	0.119
-540.223	-200.000	0.034	-0.188
-539.208	337.076	0.197	0.387
-538.193	39.530	-0.160	-0.145
-537.179	-86.941	-0.276	0.085
-536.164	800.000	-0.085	0.278
-535.150	-99.469	0.187	-0.047
-534.135	-200.000	0.039	-0.225
-533.121	120.147	-0.140	-0.175
-532.106	476.047	0.056	-0.128
-531.091	-138.198	-0.253	-0.028
-530.077	-1.920	-0.242	0.172
-529.062	-20.280	-0.317	0.197
-528.048	-69.086	-0.241	0.094
-527.033	-121.794	0.051	-0.008
-526.018	-104.938	-0.289	-0.067
-525.004	-101.446	-0.129	0.032
-523.989	-200.000	0.064	0.388
-522.975	110.725	-0.064	-0.078
-521.960	-99.656	-0.304	-0.077
-520.945	-145.020	0.076	0.007
-519.931	-36.019	-0.219	-0.120
-518.916	-200.000	-0.034	0.238
-517.902	93.424	0.058	-0.066
-516.887	-200.000	0.114	-0.525
-515.872	-200.000	-0.037	0.207
-514.858	286.899	-0.123	-0.224
-513.843	-133.077	-0.331	-0.042
-512.829	-200.000	-0.036	0.248
-511.814	800.000	-0.135	0.540
-510.799	800.000	-0.073	-0.207
-509.785	-200.000	-0.013	-0.060
-508.770	176.487	0.097	-0.142
-507.756	-84.263	-0.010	-0.003
-506.741	-200.000	-0.019	-0.097
-505.726	100.602	0.019	0.022
-504.712	80.451	-0.066	0.072
-503.697	-200.000	0.021	0.137
-502.683	174.203	-0.085	-0.124
-501.668	220.508	-0.150	-0.243
-500.653	-10.917	0.301	0.201
-499.639	-2.608	0.183	-0.130
-498.624	-124.096	-0.084	0.013
-497.610	201.264	0.059	0.092
-496.595	-12.408	0.051	-0.034
-495.581	135.507	-0.047	-0.062
-494.566	-200.000	0.012	-0.069
-493.551	55.485	0.179	-0.175
-492.537	478.989	0.126	-0.287
-491.522	-200.000	0.073	-0.440
-490.508	135.161	-0.223	-0.292
-489.493	194.963	-0.129	-0.198
-488.478	-149.727	0.122	0.010
-487.464	800.000	0.060	0.210
-486.449	431.695	-0.048	0.105
-485.435	-29.743	-0.185	-0.107
-484.420	-200.000	0.007	-0.205
-483.405	-43.507	0.149	0.076
-482.391	-200.000	0.031	0.220
-481.376	615.441	-0.113	0.285
-480.362	-8.797	-0.072	-0.049
-479.347	-56.572	-0.316	0.141
-478.332	-68.075	0.204	0.080
-477.318	-200.000	-0.003	-0.081
-476.303	17.346	0.075	0.060
-475.289	-96.522	-0.080	0.021
-474.274	-200.000	0.015	0.196
-473.259	-77.449	-0.200	-0.070
-472.245	-94.046	0.393	0.109
-471.230	193.703	-0.062	0.094
-470.216	-15.305	0.134	-0.087
-469.201	-10.932	0.152	-0.101
-468.186	-55.831	-0.130	-0.058
-467.172	-200.000	0.005	-0.283
-466.157	-157.058	-0.115	-0.007
-465.143	409.078	0.128	-0.274
-464.128	146.580	-0.122	-0.166
-463.113	80.246	-0.026	0.028
-462.099	-87.959	0.160	0.049
-461.084	-200.000	0.007	-0.220
-460.070	800.000	0.083	-0.299
-459.055	-12.397	-0.116	-0.076
-458.040	-122.388	0.080	-0.013
-457.026	-55.378	0.120	0.054
-456.011	-120.531	-0.080	0.014
-454.997	256.036	0.123	-0.213
-453.982	-138.070	0.125	-0.014
-452.968	-101.985	0.318	0.077
-451.953	-144.451	-0.241	-0.023
-450.938	351.688	0.020	0.039
-449.924	74.851	-0.134	0.142
-448.909	-200.000	0.012	-0.135
-447.895	-200.000	0.032	0.174
-446.880	-200.000	0.006	-0.074
-445.865	-200.000	-0.003	-0.105
-444.851	800.000	0.092	-0.389
-443.836	231.538	-0.105	0.174
-442.822	66.015	0.046	-0.047
-441.807	-200.000	-0.003	0.062
-440.792	-14.910	-0.132	0.085
-439.778	-72.004	-0.105	0.039
-438.763	-16.512	0.131	-0.084
-437.749	-120.562	0.236	0.040
-436.734	-124.118	0.069	0.011
-435.719	49.849	-0.219	0.208
-434.705	800.000	0.096	0.274
-433.690	325.165	-0.055	0.107
-432.676	-143.927	-0.403	-0.038
-431.661	800.000	-0.087	-0.313
-430.646	800.000	0.043	0.133
-429.632	-24.894	-0.038	-0.023
-428.617	15.797	0.151	-0.120
-427.603	-187.278	0.307	0.004
-426.588	-151.585	-0.220	0.016
-425.573	213.254	0.160	0.255
-424.559	156.902	-0.023	-0.032
-423.544	468.482	-0.098	0.222
-422.530	-26.225	-0.143	0.085
-421.515	-160.721	-0.197	-0.011
-420.500	-200.000	0.022	-0.185
-419.486	800.000	-0.042	0.125
-418.471	-200.000	0.046	0.281
-417.457	-52.441	0.145	0.068
-416.442	-132.329	0.200	-0.026
-415.428	99.292	-0.179	0.208
-414.413	-135.286	-0.207	0.025
-413.398	-124.101	-0.262	0.041
-412.384	-174.703	0.282	0.008
-411.369	82.323	-0.183	0.199
-410.355	544.575	0.191	-0.459
-409.340	-102.886	-0.105	-0.025
-408.325	-153.934	-0.450	0.031
-407.311	260.998	0.039	0.067
-406.296	-200.000	0.004	0.098
-405.282	-131.066	-0.191	-0.026
-404.267	-200.000	-0.039	0.210
-403.252	420.565	-0.057	0.124
-402.238	-200.000	0.002	0.093
-401.223	159.987	-0.108	0.151
-400.209	800.000	0.133	0.381
-399.194	-50.127	-0.089	-0.042
-398.179	111.751	-0.187	0.227
-397.165	-16.859	-0.232	0.148
-396.150	-200.000	0.027	-0.173
-395.136	68.260	0.130	-0.134
-394.121	-146.987	0.117	-0.010
-393.106	-88.948	0.187	0.056
-392.092	-72.079	-0.094	-0.035
-391.077	-120.160	-0.088	-0.015
-390.063	111.654	0.112	0.136
-389.048	36.485	-0.129	0.114
-388.033	-78.772	-0.199	-0.068
-387.019	-12.631	-0.242	0.159
-386.004	-51.454	0.288	0.135
-384.990	-121.697	-0.257	0.043
-383.975	-54.839	-0.122	0.055
-382.960	-129.881	0.369	-0.051
-381.946	-121.532	0.169	-0.028
-380.931	-159.285	-0.179	0.010
-379.917	-101.571	0.174	-0.042
-378.902	-200.000	-0.048	-0.374
-377.888	-75.313	-0.110	-0.039
-376.873	-70.590	0.397	-0.151
-375.858	-23.247	-0.234	-0.142
-374.844	-170.329	-0.138	-0.005
-373.829	592.077	0.165	0.410
-372.815	-200.000	-0.019	0.102
-371.800	275.166	0.145	-0.258
-370.785	51.931	0.273	0.261
-369.771	-43.076	-0.227	0.116
-368.756	398.649	0.137	0.288
-367.742	-144.863	-0.192	-0.018
-366.727	-101.384	-0.333	0.082
-365.712	-57.525	0.397	-0.175
-364.698	-200.000	0.008	0.079
-363.683	-7.404	0.104	0.071
-362.669	800.000	0.044	-0.160
-361.654	-137.155	-0.341	-0.039
-360.639	-200.000	-0.042	0.185
-359.625	125.128	0.063	0.079
-358.610	293.091	-0.157	0.288
-357.596	-167.287	0.136	0.006
-356.581	-37.164	0.143	0.077
-355.566	800.000	0.021	0.080
-354.552	275.538	-0.015	0.027
-353.537	102.477	0.052	-0.061
-352.523	-129.282	0.363	0.051
-351.508	-200.000	0.038	-0.283
-350.493	710.818	0.087	-0.233
-349.479	-54.655	-0.221	-0.100
-348.464	73.204	0.216	0.227
-347.450	-137.673	0.217	-0.024
-346.435	277.602	-0.105	-0.187
-345.420	80.879	-0.133	-0.144
-344.406	-4.042	-0.106	-0.074
-343.391	176.549	0.095	0.139
-342.377	-200.000	0.054	0.354
-341.362	800.000	0.104	0.308
-340.348	-11.290	0.235	0.155
-339.333	656.077	0.192	0.495
-338.318	-106.924	0.233	0.052
-337.304	43.492	0.126	0.115
-336.289	39.472	0.257	-0.231
-335.275	-80.771	-0.114	-0.038
-334.260	-200.000	0.034	-0.152
-333.245	-49.047	-0.225	-0.108
-332.231	800.000	-0.022	0.074
-331.216	404.063	0.048	0.101
-330.202	-109.473	0.469	-0.099
-329.187	-200.000	-0.002	0.244
-328.172	-135.099	0.123	-0.015
-327.158	-112.110	-0.165	-0.033
-326.143	-36.448	0.119	-0.064
-325.129	-200.000	-0.013	-0.158
-324.114	-138.309	-0.041	-0.005
-323.099	800.000	0.094	0.287
-322.085	1.296	-0.024	0.017
-321.070	230.484	-0.063	-0.103
-320.056	67.454	-0.087	-0.089
-319.041	30.241	0.188	-0.161
-318.026	-200.000	-0.019	0.098
-317.012	-145.232	-0.221	0.020
-315.997	296.386	-0.094	-0.173
-314.983	-100.611	0.104	-0.026
-313.968	800.000	-0.058	-0.234
-312.953	-126.299	-0.177	-0.027
-311.939	-10.770	-0.230	0.152
-310.924	35.504	0.094	0.083
-309.910	117.278	0.094	0.116
-308.895	3.634	-0.467	-0.342
-307.880	-84.366	0.045	0.014
-306.866	20.587	-0.123	0.100
-305.851	-60.295	-0.273	-0.117
-304.837	-35.132	-0.171	-0.094
-303.822	-200.000	-0.017	0.257
-302.807	-113.976	0.228	-0.044
-301.793	-0.547	-0.147	0.105
-300.778	-200.000	0.000	0.309
-299.764	-128.135	-0.099	0.014
-298.749	-32.840	0.144	0.080
-297.735	-200.000	0.062	0.289
-296.720	-88.405	0.149	-0.045
-295.705	-21.949	0.149	0.090
-294.691	200.747	-0.111	-0.170
-293.676	-13.321	0.179	-0.116
-292.662	-181.544	-0.265	-0.005
-291.647	-106.347	0.269	0.060
-290.632	-102.350	0.207	0.050
-289.618	-56.502	0.219	0.097
-288.603	252.421	0.169	0.289
-287.589	11.177	0.149	0.115
-286.574	630.558	-0.012	-0.031
-285.559	6.505	-0.147	-0.109
-284.545	-60.229	0.105	-0.045
-283.530	-17.645	-0.158	0.100
-282.516	-55.788	0.163	-0.073
-281.501	263.406	-0.114	0.199
-280.486	-200.000	0.008	0.428
-279.472	-24.952	0.275	0.163
-278.457	-71.322	0.262	0.098
-277.443	-200.000	-0.019	0.123
-276.428	5.237	-0.195	-0.144
-275.413	117.281	0.121	-0.148
-274.399	-200.000	-0.017	0.107
-273.384	800.000	-0.103	-0.371
-272.370	194.283	-0.123	-0.187
-271.355	278.482	0.091	-0.162
-270.340	800.000	0.031	-0.132
-269.326	-21.024	0.068	0.042
-268.311	170.635	-0.214	0.306
-267.297	-200.000	-0.060	0.285
-266.282	-200.000	0.026	-0.118
-265.267	108.359	0.194	-0.232
-264.253	-5.335	-0.357	0.245
-263.238	-200.000	-0.000	0.254
-262.224	-80.027	0.252	-0.085
-261.209	189.373	0.086	0.130
-260.195	9.185	-0.099	-0.075
-259.180	-109.157	0.331	-0.070
-258.165	195.859	-0.251	0.382
-257.151	23.033	0.192	-0.158
-256.136	-200.000	0.047	-0.224
-255.122	106.866	0.059	0.070
-254.107	-200.000	0.001	0.258
-253.092	-88.451	0.413	-0.123
-252.078	-94.594	-0.194	-0.053
-251.063	152.601	0.083	-0.113
-250.049	729.938	0.050	0.132
-249.034	-126.951	-0.232	-0.034
-248.019	-200.000	-0.009	0.580
-247.005	-200.000	0.032	-0.231
-245.990	701.390	-0.107	-0.283
-244.976	800.000	0.102	-0.300
-243.961	-200.000	-0.019	-0.208
-242.946	24.822	0.082	-0.068
-241.932	47.573	0.070	0.065
-240.917	36.223	-0.207	0.182
-239.903	-39.122	0.134	0.071
-238.888	26.785	-0.189	-0.159
-237.873	-151.875	0.609	0.045
-236.859	25.766	-0.215	-0.179
-235.844	-200.000	-0.012	-0.218
-234.830	-156.356	0.124	0.008
-233.815	70.034	0.077	0.079
-232.800	-171.873	0.254	-0.008
-231.786	-200.000	-0.019	-0.094
-230.771	109.965	0.204	0.245
-229.757	-75.229	0.148	0.053
-228.742	-4.964	-0.127	0.087
-227.727	-200.000	0.047	0.300
-226.713	-200.000	0.005	-0.097
-225.698	-200.000	0.075	-0.343
-224.684	-200.000	0.012	-0.057
-223.669	-101.423	0.114	0.028
-222.655	-113.532	-0.271	-0.053
-221.640	140.155	-0.178	0.234
-220.625	23.296	-0.200	0.165
-219.611	-141.152	-0.166	0.017
-218.596	174.312	-0.293	0.424
-217.582	31.052	-0.093	0.080
-216.567	800.000	0.049	-0.143
-215.552	-94.819	0.118	-0.032
-214.538	-24.815	0.248	0.147
-213.523	177.975	-0.246	0.358
-212.509	48.347	-0.094	-0.088
-211.494	-136.361	0.236	0.027
-210.479	-200.000	-0.025	0.148
-209.465	24.842	0.268	-0.222
-208.450	800.000	-0.103	0.356
-207.436	800.000	0.015	-0.047
-206.421	460.106	-0.137	-0.304
-205.406	-48.554	-0.056	0.027
-204.392	100.747	-0.023	0.026
-203.377	-100.763	0.124	-0.031
-202.363	-15.296	0.084	0.054
-201.348	34.898	0.243	0.212
-200.333	-140.941	-0.200	-0.020
-199.319	-2.191	-0.109	-0.076
-198.304	-41.867	0.122	-0.062
-197.290	244.866	0.011	-0.018
-196.275	27.054	0.041	-0.034
-195.260	319.569	-0.141	0.267
-194.246	319.335	0.049	0.092
-193.231	-182.450	-0.079	-0.001
-192.217	122.338	-0.030	0.038
-191.202	-55.920	0.249	0.111
-190.187	-200.000	-0.042	-0.286
-189.173	800.000	0.098	-0.292
-188.158	27.380	-0.118	0.099
-187.144	-53.757	-0.046	-0.021
-186.129	81.847	0.219	0.237
-185.114	343.089	0.096	0.187
-184.100	203.238	0.106	0.163
-183.085	207.784	-0.234	-0.365
-182.071	-125.516	0.099	0.015
-181.056	-114.494	0.294	-0.056
-180.042	22.531	-0.077	-0.063
-179.027	-200.000	-0.054	0.382
-178.012	-39.849	-0.256	0.134
-176.998	-21.539	-0.063	-0.039
-175.983	-65.315	0.116	-0.046
-174.969	54.802	0.062	0.060
-173.954	-102.312	0.085	0.020
-172.939	-164.508	-0.040	0.002
-171.925	124.611	-0.252	0.317
-170.910	20.536	0.349	0.282
-169.896	-200.000	-0.023	0.286
-168.881	-125.429	-0.203	-0.031
-167.866	-11.410	0.142	-0.093
-166.852	391.932	0.158	-0.326
-165.837	-144.216	0.183	-0.017
-164.823	307.081	0.125	-0.232
-163.808	-43.887	-0.271	-0.136
-162.793	-85.359	0.231	-0.072
-161.779	-55.857	0.160	0.071
-160.764	2.302	0.147	0.106
-159.750	-200.000	-0.038	0.175
-158.735	-37.281	-0.059	0.032
-157.720	-200.000	-0.005	0.206
-156.706	-92.081	0.208	-0.059
-155.691	-200.000	-0.049	-0.268
-154.677	-200.000	0.087	-0.394
-153.662	14.300	-0.171	-0.133
-152.647	800.000	0.130	0.485
-151.633	-200.000	-0.022	-0.169
-150.618	-200.000	0.008	0.249
-149.604	-44.232	0.354	-0.177
-148.589	18.131	-0.111	-0.088
-147.574	800.000	-0.027	-0.077
-146.560	-55.015	-0.201	-0.090
-145.545	-76.204	-0.342	0.120
-144.531	-127.290	0.439	0.064
-143.516	320.837	-0.034	0.064
-142.502	-200.000	0.041	-0.352
-141.487	-6.460	0.334	0.226
-140.472	56.519	-0.186	0.180
-139.458	517.189	-0.040	0.094
-138.443	800.000	0.026	0.074
-137.429	-118.935	-0.009	-0.002
-136.414	-88.297	0.194	0.058
-135.399	-0.951	0.205	0.144
-134.385	271.605	0.059	-0.104
-133.370	83.709	0.115	0.125
-132.356	-181.503	-0.277	0.005
-131.341	135.956	0.060	0.078
-130.326	-10.474	0.257	-0.169
-129.312	-142.833	-0.408	-0.039
-128.297	-200.000	0.020	0.096
-127.283	642.817	0.078	0.198
-126.268	-140.177	-0.171	0.018
-125.253	-154.896	-0.303	0.020
-124.239	800.000	0.116	0.343
-123.224	29.725	0.084	-0.071
-122.210	-64.363	0.114	0.046
-121.195	561.721	-0.123	0.296
-120.180	18.079	0.186	-0.148
-119.166	-200.000	0.104	0.530
-118.151	-200.000	0.010	0.426
-117.137	-23.642	0.217	-0.130
-116.122	318.783	-0.197	-0.371
-115.107	800.000	-0.024	-0.082
-114.093	-179.114	0.166	-0.004
-113.078	202.724	0.074	0.114
-112.064	-18.537	-0.130	-0.081
-111.049	71.518	-0.206	-0.212
-110.034	404.152	0.076	0.159
-109.020	800.000	-0.021	-0.070
-108.005	662.329	0.033	-0.084
-106.991	-70.947	-0.050	-0.019
-105.976	-200.000	0.015	-0.065
-104.962	368.682	0.125	0.251
-103.947	-93.762	0.111	-0.031
-102.932	-176.965	-0.028	-0.001
-101.918	-151.700	0.067	0.005
-100.903	-21.463	-0.134	-0.081
-99.889	-95.935	0.062	0.016
-98.874	-18.280	0.290	0.180
-97.859	-200.000	-0.004	-0.140
-96.845	-106.631	0.239	-0.053
-95.830	1.995	-0.254	-0.182
-94.816	-73.549	-0.388	-0.141
-93.801	220.222	0.125	0.200
-92.786	-19.414	0.075	0.047
-91.772	-179.231	0.203	0.004
-90.757	12.017	-0.188	0.143
-89.743	-200.000	-0.043	-0.304
-88.728	-20.120	0.144	0.088
-87.713	800.000	-0.034	0.114
-86.699	121.098	0.003	0.004
-85.684	-132.841	-0.106	0.013
-84.670	-38.066	0.104	-0.055
-83.655	-145.021	0.038	0.003
-82.640	-45.832	-0.141	0.069
-81.626	95.106	-0.181	0.205
-80.611	94.960	-0.156	-0.177
-79.597	91.597	0.146	-0.163
-78.582	-46.513	-0.245	-0.120
-77.567	-34.658	0.286	0.155
-76.553	-37.189	-0.120	-0.064
-75.538	400.139	0.125	-0.261
-74.524	-91.483	-0.153	-0.043
-73.509	-200.000	0.000	-0.198
-72.494	-48.750	0.092	-0.044
-71.480	-13.407	0.179	0.116
-70.465	800.000	-0.017	0.063
-69.451	29.087	-0.092	-0.077
-68.436	-133.841	0.134	0.017
-67.422	-172.309	0.186	-0.006
-66.407	211.721	-0.143	-0.224
-65.392	260.560	-0.141	0.242
-64.378	-66.671	0.298	0.117
-63.363	76.800	-0.161	-0.170
-62.349	-200.000	-0.031	0.156
-61.334	88.113	-0.912	-1.005
-60.319	26.363	0.387	0.321
-59.305	-200.000	-0.081	-0.876
-58.290	149.707	0.611	0.822
-57.276	538.558	0.747	1.763
-56.261	-200.000	90.343	531.849
-55.246	477.374	1416.284	3180.544
-54.232	143.519	2629.106	3475.935
-53.217	112.247	2234.014	2681.417
-52.203	47.720	1674.269	1551.088
-51.188	39.720	1404.484	1250.653
-50.173	36.452	1361.599	1192.288
-49.159	56.325	1406.317	1356.386
-48.144	60.532	1424.974	1400.672
-47.130	40.270	1381.239	1233.189
-46.115	36.528	1363.460	1194.200
-45.100	36.303	1358.890	1188.765
-44.086	36.200	1356.602	1186.083
-43.071	36.220	1353.786	1183.695
-42.057	36.099	1351.989	1181.336
-41.042	36.252	1349.886	1180.390
-40.027	36.365	1348.256	1179.607
-39.013	36.326	1346.319	1177.626
-37.998	36.310	1344.646	1176.017
-36.984	36.299	1343.234	1174.672
-35.969	36.391	1340.986	1173.215
-34.954	36.413	1338.766	1171.361
-33.940	36.469	1337.515	1170.561
-32.925	36.482	1335.923	1169.197
-31.911	36.358	1335.018	1167.613
-30.896	36.487	1333.553	1167.062
-29.881	36.404	1332.000	1165.156
-28.867	36.442	1330.713	1164.214
-27.852	36.507	1328.701	1162.800
-26.838	36.518	1327.240	1161.539
-25.823	36.472	1326.142	1160.257
-24.809	36.389	1324.653	1158.411
-23.794	36.446	1322.760	1157.049
-22.779	36.397	1321.576	1155.674
-21.765	36.468	1319.943	1154.625
-20.750	36.475	1318.870	1153.683
-19.736	36.343	1317.638	1151.773
-18.721	36.339	1316.442	1150.657
-17.706	36.319	1314.969	1149.201
-16.692	36.230	1313.999	1147.778
-15.677	36.319	1313.383	1147.726
-14.663	36.360	1311.302	1146.108
-13.648	36.339	1309.887	1144.701
-12.633	36.296	1309.047	1143.665
-11.619	36.265	1308.959	1143.357
-10.604	36.309	1307.604	1142.392
-9.590	36.216	1306.918	1141.197
-8.575	36.279	1305.901	1140.636
-7.560	36.266	1305.760	1140.391
-6.546	36.221	1304.356	1138.853
-5.531	36.300	1303.209	1138.272
-4.517	36.309	1302.112	1137.320
-3.502	36.370	1300.869	1136.552
-2.487	36.300	1300.122	1135.441
-1.473	36.264	1296.263	1131.815
-0.458	34.922	1280.851	1110.528
0.556	29.858	1260.807	1065.480
1.571	24.885	1263.931	1039.239
2.586	22.698	1277.870	1037.755
3.600	21.233	1266.133	1019.586
4.615	15.647	1190.075	927.513
5.629	6.096	1109.604	815.365
6.644	1.088	1086.993	773.180
7.659	0.778	1084.362	769.661
8.673	0.639	1083.286	768.121
9.688	0.636	1081.784	766.976
10.702	1.060	1079.952	767.759
11.717	6.114	1087.628	798.887
12.731	14.562	1098.959	850.366
13.746	17.735	1102.206	869.000
14.761	17.409	1101.345	866.583
15.775	16.680	1098.933	860.904
16.790	15.560	1097.565	854.064
17.804	14.890	1095.574	849.040
18.819	14.569	1093.970	846.094
19.834	14.181	1093.449	843.645
20.848	14.041	1092.084	841.812
21.863	13.703	1091.588	839.643
22.877	13.492	1091.061	838.094
23.892	13.531	1089.736	837.200
24.907	13.604	1089.244	837.116
25.921	13.520	1088.570	836.099
26.936	13.606	1087.671	835.769
27.950	13.624	1086.440	834.839
28.965	13.654	1085.514	834.208
29.980	13.702	1084.248	833.401
30.994	13.703	1083.116	832.461
32.009	13.827	1081.923	832.095
33.023	13.800	1080.661	830.915
34.038	13.790	1079.707	830.054
35.053	13.761	1078.980	829.279
36.067	13.802	1078.335	828.914
37.082	13.747	1077.162	827.666
38.096	13.759	1076.675	827.277
39.111	13.697	1075.825	826.242
40.126	13.633	1074.633	824.934
41.140	13.500	1073.989	823.705
42.155	13.559	1072.531	822.811
43.169	13.499	1071.572	821.702
44.184	13.505	1070.186	820.597
45.199	13.609	1069.098	820.206
46.213	13.530	1068.484	819.272
47.228	13.685	1066.966	818.799
48.242	13.634	1065.966	817.708
49.257	13.675	1064.919	817.033
50.271	13.545	1064.455	815.968
51.286	13.700	1063.306	815.774
52.301	13.703	1062.093	814.788
53.315	13.653	1061.227	813.805
54.330	13.698	1059.796	812.857
55.344	13.570	1059.424	811.875
56.359	13.515	1058.664	810.948
57.374	13.664	1057.715	810.877
58.388	13.545	1056.716	809.462
59.403	13.531	1055.676	808.525
60.417	13.427	1055.572	807.864
61.432	13.497	1054.530	807.335
62.447	13.496	1053.450	806.431
63.461	13.454	1052.767	805.635
64.476	13.514	1051.751	805.075
65.490	13.483	1051.011	804.288
66.505	13.539	1050.284	803.935
67.520	13.472	1049.500	802.938
68.534	13.469	1049.088	802.537
69.549	13.479	1048.155	801.802
70.563	13.536	1047.171	801.251
71.578	13.378	1046.615	799.992
72.593	13.470	1045.837	799.771
73.607	13.390	1044.904	798.600
74.622	13.418	1044.358	798.247
75.636	13.421	1043.690	797.682
76.651	13.451	1042.850	797.113
77.666	13.416	1042.157	796.346
78.680	13.429	1041.588	795.904
79.695	13.428	1041.040	795.408
80.709	13.460	1040.408	795.008
81.724	13.406	1039.668	794.115
82.739	13.523	1038.719	793.879
83.753	13.572	1037.901	793.417
84.768	13.571	1036.742	792.457
85.782	13.628	1036.180	792.230
86.797	13.696	1035.409	791.894
87.812	13.560	1034.665	790.608
88.826	13.728	1033.270	790.272
89.841	13.590	1032.414	788.888
90.855	13.742	1031.350	788.730
91.870	13.730	1030.553	787.994
92.884	13.746	1029.792	787.419
93.899	13.717	1029.074	786.661
94.914	13.755	1028.121	786.046
95.928	13.793	1027.307	785.535
96.943	13.613	1026.994	784.374
97.957	13.626	1025.935	783.555
98.972	13.727	1025.006	783.251
99.987	13.733	1024.105	782.522
101.001	13.796	1022.842	781.786
102.016	13.707	1022.084	780.718
103.030	13.808	1021.207	780.457
104.045	13.694	1020.430	779.257
105.060	13.815	1019.543	779.079
106.074	13.742	1019.141	778.358
107.089	13.642	1017.700	776.719
108.103	13.573	1017.202	775.949
109.118	13.581	1015.926	774.943
110.133	13.566	1015.072	774.154
111.147	13.604	1014.198	773.599
112.162	13.608	1013.120	772.723
113.176	13.709	1012.479	772.640
114.191	13.743	1011.420	771.918
115.206	13.724	1010.932	771.390
116.220	13.666	1010.080	770.404
117.235	13.643	1008.795	769.250
118.249	13.583	1008.398	768.600
119.264	13.610	1007.239	767.771
120.279	13.643	1006.414	767.230
121.293	13.572	1005.958	766.483
122.308	13.719	1004.923	766.307
123.322	13.741	1003.867	765.536
124.337	13.653	1002.707	764.176
125.352	13.743	1001.954	763.950
126.366	13.528	1000.831	762.036
127.381	13.630	999.767	761.629
128.395	13.711	998.790	761.189
129.410	13.600	997.680	759.767
130.424	13.769	996.736	759.755
131.439	13.738	996.359	759.257
132.454	13.708	995.570	758.454
133.468	13.779	994.628	757.991
134.483	13.759	993.907	757.284
135.497	13.875	992.785	756.892
136.512	13.738	991.871	755.506
137.527	13.780	991.042	754.995
138.541	13.726	990.336	754.147
139.556	13.716	989.739	753.582
140.570	13.836	989.156	753.614
141.585	13.985	988.154	753.461
142.600	13.881	986.887	751.957
143.614	13.947	986.212	751.676
144.629	13.930	985.298	750.836
145.643	13.947	984.338	750.113
146.658	13.891	983.386	749.069
147.673	13.843	982.188	747.875
148.687	13.702	981.709	746.809
149.702	13.890	980.599	746.743
150.716	13.884	979.479	745.798
151.731	13.826	979.086	745.170
152.746	14.055	978.212	745.466
153.760	13.838	977.649	743.999
154.775	13.873	977.384	743.890
155.789	14.000	976.435	743.670
156.804	14.004	975.473	742.887
157.819	14.003	974.734	742.255
158.833	13.915	974.815	741.858
159.848	13.995	973.450	741.112
160.862	14.017	972.283	740.256
161.877	13.903	971.748	739.273
162.892	13.872	970.828	738.374
163.906	13.940	969.870	737.878
164.921	13.951	969.243	737.385
165.935	13.926	968.341	736.522
166.950	14.090	966.949	736.127
167.964	13.915	966.550	734.982
168.979	14.009	965.181	734.291
169.994	13.933	964.184	733.134
171.008	14.023	963.460	732.913
172.023	14.005	963.224	732.591
173.037	14.090	962.060	732.016
174.052	14.025	961.602	731.316
175.067	14.032	961.048	730.859
176.081	13.977	960.233	729.932
177.096	13.993	959.788	729.600
178.110	14.046	959.062	729.220
179.125	14.057	958.651	728.891
180.140	14.102	957.938	728.482
181.154	14.065	957.609	728.003
182.169	14.170	956.937	727.886
183.183	14.327	956.332	728.047
184.198	14.148	955.871	726.852
185.213	14.195	954.776	726.162
186.227	14.268	954.015	725.834
187.242	14.222	953.364	725.076
188.256	14.257	952.818	724.750
189.271	14.326	952.108	724.446
190.286	14.296	951.112	723.492
191.300	14.145	950.914	722.623
192.315	14.167	949.717	721.743
193.329	14.150	949.244	721.245
194.344	14.216	948.523	720.921
195.359	14.216	948.062	720.506
196.373	14.243	947.336	720.006
197.388	14.363	946.956	720.173
198.402	14.435	946.182	719.830
199.417	14.329	945.845	719.056
200.432	14.419	945.186	718.878
201.446	14.628	944.601	719.269
202.461	14.476	944.028	718.117
203.475	14.648	943.559	718.435
204.490	14.500	942.965	717.282
205.504	14.602	941.938	716.878
206.519	14.492	941.393	715.924
207.534	14.457	940.338	714.912
208.548	14.503	939.790	714.628
209.563	14.467	939.132	713.911
210.577	14.544	938.356	713.586
211.592	14.580	937.540	713.058
212.607	14.627	937.140	712.892
213.621	14.758	936.172	712.652
214.636	14.593	935.614	711.459
215.650	14.691	934.593	711.036
216.665	14.733	933.585	710.385
217.680	14.756	933.396	710.275
218.694	14.615	933.001	709.315
219.709	14.823	931.799	709.222
220.723	14.774	931.224	708.513
221.738	14.675	930.689	707.621
222.753	14.703	929.725	706.946
223.767	14.698	929.587	706.758
224.782	14.798	928.886	706.583
225.796	14.846	928.185	706.193
226.811	14.822	927.732	705.682
227.826	14.812	926.559	704.684
228.840	14.906	925.565	704.263
229.855	14.836	924.659	703.217
230.869	14.778	924.583	702.855
231.884	14.827	923.731	702.350
232.899	14.782	923.097	701.615
233.913	14.879	922.128	701.225
234.928	14.892	921.653	700.857
235.942	14.822	921.354	700.275
236.957	14.817	920.663	699.665
237.972	14.801	920.043	699.064
238.986	14.859	919.558	698.876
240.001	14.842	918.731	698.118
241.015	14.818	918.008	697.404
242.030	15.046	916.924	697.470
243.045	15.025	916.777	697.207
244.059	14.956	916.370	696.550
245.074	14.922	915.577	695.742
246.088	15.020	914.898	695.572
247.103	15.085	914.079	695.160
248.117	14.987	913.764	694.453
249.132	15.217	912.827	694.632
250.147	15.191	912.493	694.210
251.161	15.218	911.619	693.592
252.176	15.251	910.748	693.004
253.190	15.240	910.202	692.484
254.205	15.322	909.655	692.345
255.220	15.243	909.064	691.508
256.234	15.348	908.612	691.536
257.249	15.279	907.821	690.589
258.263	15.268	906.750	689.666
259.278	15.371	905.948	689.421
260.293	15.332	905.661	688.979
261.307	15.475	904.777	688.835
262.322	15.461	904.470	688.480
263.336	15.539	903.426	687.945
264.351	15.600	902.843	687.689
265.366	15.532	902.285	686.928
266.380	15.465	901.757	686.189
267.395	15.698	900.706	686.280
268.409	15.623	900.191	685.522
269.424	15.591	899.101	684.498
270.439	15.548	898.937	684.137
271.453	15.479	898.027	683.104
272.468	15.525	897.781	683.045
273.482	15.624	897.187	682.936
274.497	15.538	896.077	681.682
275.512	15.709	895.605	681.957
276.526	15.645	895.682	681.695
277.541	15.719	894.270	680.857
278.555	15.697	893.866	680.399
279.570	15.762	893.405	680.253
280.585	15.828	892.347	679.653
281.599	15.540	891.896	678.087
282.614	15.740	891.071	678.206
283.628	15.845	890.499	678.134
284.643	15.574	890.668	677.112
285.657	15.710	889.328	676.580
286.672	15.736	889.157	676.495
287.687	15.737	888.280	675.770
288.701	15.799	887.579	675.428
289.716	15.922	886.775	675.249
290.730	15.978	886.137	674.929
291.745	15.860	885.656	674.028
292.760	15.902	885.112	673.724
293.774	15.941	884.473	673.332
294.789	15.929	883.943	672.824
295.803	15.955	883.067	672.199
296.818	16.028	882.198	671.770
297.833	15.935	881.728	670.984
298.847	15.894	881.192	670.353
299.862	16.035	880.527	670.348
300.876	16.013	880.331	670.053
301.891	16.012	879.031	669.001
302.906	16.125	878.775	669.193
303.920	16.202	878.299	669.078
304.935	16.083	877.976	668.301
305.949	16.193	876.698	667.702
306.964	16.175	876.389	667.336
307.979	16.255	875.961	667.269
308.993	16.248	875.146	666.560
310.008	16.093	874.808	665.633
311.022	16.359	873.547	665.663
312.037	16.200	873.482	664.927
313.052	16.136	872.908	664.183
314.066	16.159	872.147	663.633
315.081	16.166	872.037	663.519
316.095	16.271	871.012	663.093
317.110	16.167	870.449	662.198
318.125	16.243	870.004	662.098
319.139	16.230	869.522	661.620
320.154	16.211	869.203	661.246
321.168	16.248	868.667	660.926
322.183	16.248	868.290	660.578
323.197	16.261	867.441	659.926
324.212	16.375	866.452	659.561
325.227	16.359	865.816	658.954
326.241	16.233	865.591	658.234
327.256	16.319	864.989	658.053
328.270	16.336	864.379	657.596
329.285	16.294	863.731	656.883
330.300	16.478	863.130	657.083
331.314	16.327	862.598	656.033
332.329	16.357	862.336	655.892
333.343	16.354	861.999	655.565
334.358	16.341	861.553	655.119
335.373	16.434	860.983	654.988
336.387	16.464	860.776	654.887
337.402	16.593	860.489	655.110
338.416	16.513	860.053	654.410
339.431	16.594	859.409	654.177
340.446	16.526	859.179	653.680
341.460	16.634	858.633	653.626
342.475	16.542	858.696	653.261
343.489	16.783	857.399	653.146
344.504	16.650	857.543	652.684
345.519	16.754	857.048	652.650
346.533	16.823	855.939	652.014
347.548	16.767	855.590	651.475
348.562	16.731	854.862	650.723
349.577	16.742	854.372	650.336
350.592	16.692	854.049	649.841
351.606	16.580	853.072	648.611
352.621	16.724	852.589	648.739
353.635	16.662	852.017	648.009
354.650	16.753	851.203	647.677
355.665	16.776	850.665	647.301
356.679	16.728	850.117	646.643
357.694	16.842	849.221	646.340
358.708	16.805	848.847	645.854
359.723	16.711	848.321	645.040
360.738	16.731	848.002	644.818
361.752	16.909	846.905	644.602
362.767	16.878	846.439	644.073
363.781	17.045	845.985	644.306
364.796	16.986	845.857	643.926
365.810	16.914	845.173	643.077
366.825	17.022	844.682	643.054
367.840	17.047	844.252	642.766
368.854	17.123	843.497	642.420
369.869	17.118	843.137	642.070
370.883	17.087	842.813	641.651
371.898	17.224	842.564	641.922
372.913	17.124	842.107	641.140
373.927	17.052	841.696	640.498
374.942	17.124	841.212	640.342
375.956	17.134	840.717	639.946
376.971	17.162	840.238	639.632
377.986	17.166	839.890	639.325
379.000	17.315	839.138	639.256
380.015	17.416	838.545	639.128
381.029	17.317	838.131	638.386
382.044	17.394	837.108	637.836
383.059	17.402	836.732	637.525
384.073	17.313	836.519	636.972
385.088	17.465	835.801	636.937
386.102	17.301	835.211	635.818
387.117	17.193	834.837	635.076
388.132	17.326	833.947	634.839
389.146	17.442	833.318	634.736
390.161	17.337	832.865	633.941
391.175	17.396	832.679	633.965
392.190	17.412	832.357	633.723
393.205	17.274	832.156	632.999
394.219	17.318	831.201	632.382
395.234	17.286	830.964	632.026
396.248	17.395	830.226	631.812
397.263	17.516	829.879	631.942
398.278	17.503	829.550	631.588
399.292	17.447	828.919	630.843
400.307	17.478	828.349	630.468
401.321	17.427	828.081	630.021
402.336	17.580	827.579	630.150
403.350	17.455	827.412	629.504
404.365	17.538	826.822	629.305
405.380	17.698	826.008	629.221
406.394	17.666	825.654	628.778
407.409	17.821	824.922	628.735
408.423	17.734	824.912	628.354
409.438	17.670	824.838	628.004
410.453	17.885	824.057	628.143
411.467	17.675	823.647	627.006
412.482	17.841	823.248	627.256
413.496	17.806	823.176	627.018
414.511	17.937	822.503	626.928
415.526	17.929	821.969	626.437
416.540	17.869	821.676	625.940
417.555	17.952	820.830	625.544
418.569	17.864	820.735	625.095
419.584	17.939	820.222	624.922
420.599	17.942	819.773	624.536
421.613	101.409	1282.020	1427.896
422.628	87.517	1349.373	1428.018
