DTS Sentinel unit serial number:	SN413079Multiplexer serial number:	ORYXHardware model number:	OX4-SRSoftware version number:	ORYX F/W v4.00 Oryx Data Collector v3.7.2.0data status	okinstallation	princeton_trtdifferential loss correction	single-endedforward channel	channel 1reverse channel	N/Adate	2019/09/11time	07:16:11forward acquisition time	60.00reverse acquisition time	0.00gamma	496.2192k internal	0.2328k external	0.2328temperature offset calibration	0.9913default loss term (dB/km)	0.3790temperature slope calibration	1.0000multiplexer offset coefficient	1.0000multiplexer slope coefficient	1.0000fibre end	0.00T internal ref (°C)	30.56T ext. ref 1 (°C)	-0.09T ext. ref 2 (°C)	26.99length (m)	temperature (°C)	Stokes	anti-Stokes-747.200	800.000	-0.087	-0.372
-746.185	-200.000	0.011	0.192
-745.171	245.028	-0.155	0.263
-744.156	-53.313	-0.122	0.057
-743.142	-95.295	0.224	0.061
-742.127	-71.859	-0.070	0.026
-741.112	800.000	0.034	0.132
-740.098	319.368	-0.161	0.308
-739.083	203.049	-0.175	0.272
-738.069	-123.914	0.186	0.030
-737.054	800.000	-0.042	0.144
-736.039	234.171	0.243	-0.404
-735.025	70.622	-0.262	0.273
-734.010	-64.375	-0.338	-0.139
-732.996	113.920	-0.105	-0.129
-731.981	57.128	-0.114	-0.112
-730.966	712.048	-0.171	-0.457
-729.952	-200.000	0.066	-0.358
-728.937	-41.979	-0.153	0.079
-727.923	-129.463	-0.638	0.089
-726.908	225.566	-0.085	0.138
-725.894	57.245	0.062	-0.061
-724.879	800.000	0.054	-0.215
-723.864	-20.944	0.331	-0.204
-722.850	-94.862	-0.105	0.029
-721.835	-67.008	0.234	-0.093
-720.821	341.314	0.103	-0.202
-719.806	57.839	-0.340	-0.335
-718.791	-35.026	0.228	0.125
-717.777	-44.049	-0.203	0.103
-716.762	-200.000	-0.003	-0.238
-715.748	-81.208	0.169	-0.056
-714.733	-200.000	0.015	-0.104
-713.718	-200.000	-0.006	0.340
-712.704	-200.000	-0.004	0.107
-711.689	-28.778	-0.280	-0.162
-710.675	655.670	-0.046	-0.119
-709.660	335.655	-0.105	-0.204
-708.645	-116.947	0.151	-0.028
-707.631	-200.000	-0.351	0.001
-706.616	-21.634	-0.228	-0.140
-705.602	-91.108	-0.249	-0.072
-704.587	-47.295	0.241	0.118
-703.572	-119.045	0.130	0.023
-702.558	62.269	0.185	-0.186
-701.543	-130.323	0.095	-0.013
-700.529	507.834	0.103	0.240
-699.514	800.000	0.023	-0.082
-698.499	559.418	-0.015	-0.037
-697.485	340.345	-0.041	-0.081
-696.470	-44.841	-0.111	-0.056
-695.456	800.000	0.049	-0.157
-694.441	-14.243	0.178	0.115
-693.426	-200.000	-0.021	-0.283
-692.412	-151.014	-0.248	-0.019
-691.397	114.069	0.114	-0.139
-690.383	5.848	0.245	0.183
-689.368	-78.989	-0.116	-0.040
-688.354	-94.577	0.086	0.023
-687.339	33.243	-0.145	-0.126
-686.324	49.354	0.216	0.205
-685.310	-200.000	-0.018	-0.166
-684.295	-145.076	-0.091	0.008
-683.281	-13.712	-0.199	0.130
-682.266	193.923	-0.007	0.010
-681.251	-196.447	0.327	-0.002
-680.237	-5.041	-0.166	-0.115
-679.222	-155.500	-0.078	0.005
-678.208	404.043	0.023	-0.049
-677.193	-122.438	-0.337	-0.055
-676.178	-99.287	-0.176	-0.045
-675.164	390.334	0.082	0.170
-674.149	-123.693	-0.207	0.033
-673.135	-200.000	0.030	0.214
-672.120	263.604	-0.202	-0.354
-671.105	184.075	-0.155	-0.230
-670.091	-200.000	0.013	0.175
-669.076	-17.910	-0.118	0.074
-668.062	206.928	-0.133	-0.208
-667.047	-200.000	-0.014	-0.269
-666.032	800.000	-0.059	0.227
-665.018	-200.000	-0.020	0.091
-664.003	-200.000	0.001	-0.020
-662.989	-80.689	-0.384	-0.128
-661.974	-63.704	0.155	0.064
-660.959	-94.259	-0.419	-0.115
-659.945	224.469	-0.137	-0.222
-658.930	207.725	-0.213	-0.334
-657.916	-4.350	-0.278	-0.193
-656.901	-5.949	0.133	0.091
-655.886	-200.000	-0.056	0.282
-654.872	45.612	-0.104	-0.096
-653.857	248.746	0.186	-0.316
-652.843	-62.163	-0.305	-0.128
-651.828	176.188	0.075	0.109
-650.814	-107.202	-0.301	0.066
-649.799	-44.457	-0.390	-0.196
-648.784	-58.849	-0.132	0.057
-647.770	47.189	-0.223	0.209
-646.755	-153.792	-0.427	0.029
-645.741	203.769	0.191	-0.296
-644.726	800.000	0.040	0.155
-643.711	-200.000	-0.022	-0.131
-642.697	-93.489	-0.321	0.089
-641.682	-200.000	0.030	-0.176
-640.668	60.965	-0.092	-0.092
-639.653	11.166	0.102	-0.078
-638.638	256.632	-0.028	0.047
-637.624	-60.802	0.107	0.045
-636.609	-200.000	0.010	-0.079
-635.595	26.274	0.247	-0.207
-634.580	800.000	-0.019	0.056
-633.565	-200.000	0.001	-0.165
-632.551	-200.000	-0.023	-0.280
-631.536	21.112	-0.232	-0.189
-630.522	-200.000	0.040	-0.282
-629.507	-74.176	-0.337	-0.122
-628.492	-114.696	0.165	0.032
-627.478	-200.000	0.000	0.018
-626.463	-54.005	0.212	-0.097
-625.449	-67.511	0.208	0.082
-624.434	156.873	0.138	-0.192
-623.419	34.089	-0.178	-0.156
-622.405	115.407	0.147	0.181
-621.390	343.001	0.163	-0.319
-620.376	-136.558	0.542	-0.063
-619.361	-72.140	-0.287	0.107
-618.346	800.000	0.068	-0.227
-617.332	9.080	-0.124	0.094
-616.317	-94.777	-0.087	-0.024
-615.303	400.188	-0.105	-0.221
-614.288	-101.565	0.392	0.096
-613.273	-34.001	-0.545	-0.300
-612.259	171.199	-0.086	0.123
-611.244	800.000	-0.019	-0.085
-610.230	-37.986	-0.145	-0.077
-609.215	353.849	0.104	-0.208
-608.201	-163.025	-0.404	-0.020
-607.186	-85.766	0.346	0.108
-606.171	33.108	-0.216	0.187
-605.157	3.990	0.191	0.140
-604.142	-111.086	0.324	-0.067
-603.128	6.263	-0.147	0.110
-602.113	-117.419	0.291	0.053
-601.098	-124.932	0.278	0.043
-600.084	800.000	0.069	0.192
-599.069	-200.000	0.049	0.295
-598.055	-40.245	-0.123	-0.064
-597.040	-87.651	-0.426	0.129
-596.025	4.031	0.224	0.164
-595.011	0.131	-0.344	0.245
-593.996	-91.670	0.311	-0.089
-592.982	134.968	-0.096	-0.125
-591.967	-200.000	0.107	0.507
-590.952	-200.000	-0.009	0.214
-589.938	-181.083	-0.348	-0.007
-588.923	-200.000	-0.052	-0.321
-587.909	220.439	-0.062	-0.099
-586.894	101.508	-0.209	0.244
-585.879	74.325	-0.027	-0.028
-584.865	-139.384	0.325	0.035
-583.850	-55.535	-0.249	0.112
-582.836	114.700	0.177	0.217
-581.821	-200.000	-0.020	-0.504
-580.806	-91.088	-0.104	-0.030
-579.792	-156.548	0.351	-0.022
-578.777	-50.055	0.236	-0.112
-577.763	-200.000	0.001	-0.013
-576.748	-77.541	-0.130	0.045
-575.733	800.000	0.154	0.435
-574.719	641.418	-0.059	-0.151
-573.704	-101.452	-0.146	0.036
-572.690	10.648	0.051	0.039
-571.675	0.581	0.235	-0.168
-570.661	-122.511	-0.157	-0.026
-569.646	186.277	-0.074	0.110
-568.631	93.812	0.241	0.273
-567.617	-16.619	0.361	-0.229
-566.602	43.639	-0.255	-0.234
-565.588	-36.745	-0.233	-0.125
-564.573	-103.625	0.178	0.042
-563.558	409.764	0.033	0.069
-562.544	-142.405	-0.198	-0.020
-561.529	-111.060	0.203	-0.042
-560.515	78.928	-0.202	0.216
-559.500	91.420	0.118	-0.133
-558.485	-82.756	-0.116	0.038
-557.471	-117.744	-0.410	0.074
-556.456	800.000	0.114	-0.424
-555.442	800.000	-0.073	0.208
-554.427	-200.000	0.031	0.206
-553.412	304.518	-0.141	0.261
-552.398	44.538	0.269	-0.247
-551.383	152.602	0.085	-0.116
-550.369	44.424	0.156	-0.144
-549.354	-200.000	0.030	0.173
-548.339	-120.839	0.054	-0.009
-547.325	800.000	-0.021	-0.085
-546.310	-59.334	0.122	0.053
-545.296	-52.803	0.063	0.029
-544.281	-74.669	-0.222	-0.080
-543.266	161.307	0.054	-0.076
-542.252	-105.960	-0.261	-0.059
-541.237	232.303	0.063	0.103
-540.223	417.413	0.113	-0.242
-539.208	186.912	-0.187	-0.279
-538.193	93.126	0.027	-0.031
-537.179	-83.314	-0.073	-0.023
-536.164	124.274	-0.336	0.422
-535.150	129.935	-0.142	0.182
-534.135	155.124	-0.190	0.261
-533.121	15.439	-0.099	0.078
-532.106	-78.309	0.098	-0.034
-531.091	800.000	-0.039	0.153
-530.077	-43.555	0.175	0.088
-529.062	-67.508	0.065	-0.025
-528.048	489.420	0.079	0.180
-527.033	-53.483	-0.241	0.110
-526.018	133.680	0.204	-0.264
-525.004	-29.127	0.089	-0.051
-523.989	736.173	-0.064	0.171
-522.975	-53.730	-0.214	0.097
-521.960	139.702	-0.078	0.102
-520.945	57.149	-0.102	0.099
-519.931	271.516	0.035	0.061
-518.916	-183.003	-0.342	-0.006
-517.902	800.000	-0.065	0.190
-516.887	-79.746	-0.255	-0.086
-515.872	-173.000	0.335	-0.010
-514.858	-200.000	0.036	0.677
-513.843	278.115	0.134	0.238
-512.829	-200.000	0.019	-0.173
-511.814	-14.848	0.256	-0.164
-510.799	-101.044	-0.309	-0.076
-509.785	78.677	-0.251	0.268
-508.770	800.000	0.015	-0.062
-507.756	-89.713	0.277	0.081
-506.741	-110.910	0.148	-0.030
-505.726	28.129	-0.363	-0.306
-504.712	-43.669	-0.169	0.085
-503.697	-132.722	0.186	0.024
-502.683	39.688	0.073	-0.065
-501.668	-19.901	0.183	-0.113
-500.653	-55.955	0.157	-0.070
-499.639	42.736	-0.089	0.081
-498.624	-84.651	-0.159	0.050
-497.610	800.000	-0.027	-0.088
-496.595	-67.969	-0.334	0.130
-495.581	202.573	-0.062	0.096
-494.566	-101.562	0.214	-0.052
-493.551	-200.000	-0.009	0.113
-492.537	-200.000	-0.017	-0.088
-491.522	-200.000	0.012	0.134
-490.508	197.871	-0.202	-0.308
-489.493	-200.000	-0.092	0.000
-488.478	-27.960	0.212	0.122
-487.464	471.203	-0.102	0.228
-486.449	699.228	0.105	-0.275
-485.435	106.176	0.166	-0.196
-484.420	-150.430	0.271	-0.021
-483.405	-81.105	0.338	-0.111
-482.391	678.000	0.091	0.236
-481.376	800.000	0.101	-0.423
-480.362	-42.084	-0.300	-0.153
-479.347	-119.164	0.427	-0.074
-478.332	-47.131	0.234	-0.114
-477.318	326.465	-0.223	0.427
-476.303	273.383	0.226	0.399
-475.289	367.332	-0.079	0.158
-474.274	392.093	-0.034	-0.071
-473.259	113.122	-0.080	-0.097
-472.245	44.589	-0.377	0.345
-471.230	172.094	-0.165	0.236
-470.216	126.698	0.201	0.254
-469.201	326.802	-0.101	0.192
-468.186	639.593	-0.068	-0.172
-467.172	357.825	0.057	0.113
-466.157	-200.000	0.004	-0.105
-465.143	800.000	0.038	-0.148
-464.128	-93.725	-0.279	-0.077
-463.113	180.857	0.197	0.289
-462.099	-59.686	-0.264	0.113
-461.084	-136.497	0.197	-0.023
-460.070	-200.000	-0.045	0.287
-459.055	-151.899	-0.136	-0.010
-458.040	-74.846	0.175	0.063
-457.026	-107.637	-0.425	0.093
-456.011	800.000	-0.056	-0.183
-454.997	193.320	0.146	-0.221
-453.982	-200.000	-0.004	-0.127
-452.968	-102.932	-0.409	-0.097
-451.953	-17.031	-0.293	-0.184
-450.938	-115.030	0.174	0.033
-449.924	183.717	-0.063	0.093
-448.909	-21.233	0.114	0.069
-447.895	-138.788	0.183	0.020
-446.880	-85.997	-0.053	0.016
-445.865	800.000	-0.072	-0.234
-444.851	-122.593	0.458	-0.074
-443.836	25.812	-0.202	-0.168
-442.822	-184.372	-0.313	0.005
-441.807	-138.978	-0.490	-0.053
-440.792	37.532	-0.104	0.092
-439.778	-63.614	-0.166	-0.068
-438.763	84.893	0.197	0.215
-437.749	-127.366	-0.314	0.046
-436.734	-15.563	-0.104	-0.066
-435.719	-67.169	-0.091	-0.036
-434.705	9.226	0.218	0.164
-433.690	71.550	-0.177	-0.183
-432.676	72.161	-0.185	-0.192
-431.661	112.228	-0.242	-0.291
-430.646	-25.494	0.149	-0.087
-429.632	92.160	0.038	0.042
-428.617	-86.269	0.099	-0.030
-427.603	48.336	-0.144	0.135
-426.588	14.888	-0.145	-0.113
-425.573	800.000	-0.047	0.165
-424.559	186.978	-0.093	-0.137
-423.544	-200.000	-0.010	0.270
-422.530	47.171	-0.038	0.035
-421.515	-124.780	0.203	0.031
-420.500	581.283	0.104	0.255
-419.486	-200.000	0.013	0.144
-418.471	329.637	-0.115	0.220
-417.457	-164.194	-0.061	0.003
-416.442	32.902	-0.157	0.135
-415.428	-200.000	0.042	0.253
-414.413	800.000	-0.016	0.065
-413.398	-35.971	0.125	-0.067
-412.384	-9.826	-0.111	-0.074
-411.369	18.078	-0.236	0.187
-410.355	800.000	0.078	0.246
-409.340	552.084	-0.101	0.242
-408.325	148.122	-0.120	-0.160
-407.311	-200.000	0.008	0.040
-406.296	-200.000	0.010	-0.267
-405.282	800.000	-0.142	0.494
-404.267	188.073	0.111	0.164
-403.252	125.163	0.175	-0.219
-402.238	800.000	-0.031	-0.117
-401.223	-2.538	-0.251	0.175
-400.209	800.000	0.045	0.135
-399.194	7.751	0.141	0.105
-398.179	-81.432	-0.403	0.132
-397.165	800.000	-0.103	0.351
-396.150	800.000	0.036	-0.155
-395.136	-200.000	-0.035	0.271
-394.121	345.800	0.169	0.330
-393.106	39.015	0.327	-0.291
-392.092	-115.510	-0.129	0.024
-391.077	-200.000	0.073	-0.548
-390.063	121.080	-0.049	-0.060
-389.048	91.963	-0.243	-0.272
-388.033	93.893	-0.171	-0.192
-387.019	2.296	0.083	-0.060
-386.004	121.777	-0.166	-0.206
-384.990	-74.315	-0.111	0.040
-383.975	-19.134	-0.245	-0.151
-382.960	-200.000	-0.004	0.132
-381.946	259.434	0.073	0.125
-380.931	-36.605	-0.157	0.084
-379.917	-81.948	0.270	0.088
-378.902	7.424	0.145	0.108
-377.888	-141.066	-0.074	-0.008
-376.873	800.000	0.119	-0.334
-375.858	24.171	-0.045	-0.037
-374.844	686.701	-0.086	0.222
-373.829	-53.491	0.157	-0.071
-372.815	-126.152	0.070	0.010
-371.800	800.000	0.040	-0.130
-370.785	-200.000	0.005	-0.209
-369.771	14.481	-0.261	0.202
-368.756	33.521	0.223	0.192
-367.742	531.930	0.047	-0.110
-366.727	-200.000	-0.009	-0.113
-365.712	-41.457	-0.106	0.054
-364.698	175.443	-0.120	0.173
-363.683	95.858	0.291	-0.330
-362.669	76.744	-0.129	-0.136
-361.654	249.411	-0.164	-0.275
-360.639	-42.305	0.280	0.142
-359.625	212.636	-0.090	0.141
-358.610	382.639	-0.076	-0.155
-357.596	-200.000	0.019	0.110
-356.581	-83.611	0.071	-0.023
-355.566	-133.295	0.051	-0.006
-354.552	-200.000	0.002	0.070
-353.537	208.009	-0.073	0.113
-352.523	800.000	-0.153	0.485
-351.508	-200.000	0.018	0.211
-350.493	21.250	0.096	0.078
-349.479	8.217	-0.078	-0.058
-348.464	-168.387	0.132	0.005
-347.450	-162.595	-0.065	0.003
-346.435	-16.062	0.227	-0.143
-345.420	-200.000	0.075	-0.451
-344.406	83.910	-0.106	-0.115
-343.391	74.480	-0.067	0.069
-342.377	-200.000	0.009	-0.304
-341.362	27.571	0.198	0.166
-340.348	287.409	0.051	0.091
-339.333	-200.000	0.319	-0.001
-338.318	800.000	0.033	-0.095
-337.304	-38.969	0.106	-0.055
-336.289	-58.784	0.168	0.072
-335.275	-200.000	-0.006	-0.176
-334.260	-101.069	0.197	-0.048
-333.245	-200.000	0.039	0.326
-332.231	-83.001	-0.078	-0.025
-331.216	-150.181	0.131	-0.010
-330.202	-118.006	-0.065	0.012
-329.187	459.434	0.039	0.085
-328.172	800.000	0.070	-0.212
-327.158	800.000	0.043	-0.154
-326.143	-200.000	-0.065	0.323
-325.129	-51.905	-0.261	-0.120
-324.114	-32.450	0.263	0.145
-323.099	52.354	-0.043	0.041
-322.085	800.000	-0.100	-0.342
-321.070	-125.926	0.261	-0.039
-320.056	7.395	0.140	-0.103
-319.041	800.000	-0.007	-0.031
-318.026	-44.655	-0.141	0.070
-317.012	62.608	0.329	0.326
-315.997	-54.941	0.110	-0.049
-314.983	800.000	0.020	-0.074
-313.968	126.027	0.170	-0.213
-312.953	-9.598	-0.051	0.034
-311.939	13.509	-0.012	-0.009
-310.924	-31.122	0.252	-0.141
-309.910	47.649	0.298	-0.275
-308.895	-200.000	0.005	0.083
-307.880	-125.253	0.173	0.026
-306.866	800.000	0.068	0.197
-305.851	800.000	-0.018	-0.065
-304.837	-118.051	-0.071	-0.013
-303.822	216.536	0.119	-0.187
-302.807	216.589	-0.133	0.210
-301.793	-200.000	-0.016	-0.250
-300.778	282.467	-0.066	0.118
-299.764	-200.000	-0.047	0.321
-298.749	-127.564	0.081	0.012
-297.735	800.000	0.078	0.278
-296.720	-200.000	-0.014	-0.342
-295.705	-200.000	-0.031	0.250
-294.691	-75.365	-0.350	-0.124
-293.676	-200.000	0.001	-0.101
-292.662	-81.653	0.117	0.038
-291.647	-200.000	-0.030	-0.165
-290.632	-6.307	0.042	-0.028
-289.618	800.000	0.065	-0.198
-288.603	-200.000	0.005	-0.064
-287.589	98.275	0.123	-0.140
-286.574	-200.000	-0.010	0.288
-285.559	800.000	0.026	0.081
-284.545	-112.657	0.257	-0.051
-283.530	678.066	-0.015	0.038
-282.516	162.368	-0.249	-0.346
-281.501	-110.616	0.086	0.018
-280.486	90.186	0.143	0.158
-279.472	-200.000	-0.006	0.231
-278.457	800.000	0.025	-0.077
-277.443	99.184	-0.245	0.280
-276.428	-21.438	-0.139	0.084
-275.413	800.000	0.058	0.161
-274.399	800.000	-0.059	0.167
-273.384	-104.516	-0.156	-0.036
-272.370	-200.000	-0.034	0.185
-271.355	-89.097	0.340	0.099
-270.340	800.000	0.078	0.296
-269.326	79.641	0.288	0.306
-268.311	-98.567	0.052	0.013
-267.297	-200.000	-0.004	-0.099
-266.282	-84.010	-0.120	0.038
-265.267	-200.000	0.036	-0.164
-264.253	361.355	-0.025	0.050
-263.238	108.655	0.123	-0.146
-262.224	563.373	0.041	0.097
-261.209	52.723	0.243	-0.230
-260.195	41.057	-0.068	0.060
-259.180	-140.320	-0.214	0.022
-258.165	-153.444	-0.237	-0.016
-257.151	599.021	-0.050	-0.123
-256.136	332.565	-0.138	-0.264
-255.122	-53.879	0.102	-0.046
-254.107	-50.460	0.247	-0.115
-253.092	551.654	-0.071	0.170
-252.078	-200.000	-0.037	0.333
-251.063	60.734	-0.158	-0.155
-250.049	-200.000	-0.037	-0.200
-249.034	124.012	-0.172	0.214
-248.019	-156.384	0.290	-0.018
-247.005	800.000	0.084	0.266
-245.990	31.297	0.089	0.076
-244.976	-78.808	-0.227	-0.076
-243.961	-42.271	-0.129	-0.065
-242.946	-59.319	-0.204	-0.087
-241.932	-200.000	0.021	0.206
-240.917	-90.014	0.467	0.134
-239.903	69.911	-0.160	-0.163
-238.888	-200.000	0.031	-0.161
-237.873	-155.921	0.294	-0.018
-236.859	-68.895	-0.047	0.018
-235.844	-14.046	-0.252	0.161
-234.830	-1.820	-0.230	-0.160
-233.815	800.000	-0.038	-0.162
-232.800	-0.952	0.170	0.119
-231.786	19.685	0.313	-0.249
-230.771	41.865	-0.187	-0.167
-229.757	791.609	0.096	0.261
-228.742	-33.909	0.047	0.026
-227.727	-15.528	0.156	-0.098
-226.713	-124.158	0.236	0.036
-225.698	-200.000	-0.030	-0.186
-224.684	177.486	-0.127	-0.183
-223.669	146.293	0.091	0.120
-222.655	-112.216	0.066	-0.013
-221.640	284.075	-0.101	0.179
-220.625	122.395	-0.157	0.194
-219.611	-10.185	-0.212	-0.139
-218.596	-200.000	0.058	-0.306
-217.582	80.671	0.166	0.177
-216.567	-40.360	-0.274	0.141
-215.552	671.040	-0.150	-0.382
-214.538	800.000	-0.038	0.108
-213.523	-68.051	0.091	0.035
-212.509	107.206	0.208	0.244
-211.494	476.794	-0.110	0.245
-210.479	200.919	-0.087	0.131
-209.465	273.448	0.062	0.107
-208.450	-103.956	-0.072	-0.017
-207.436	87.685	0.165	-0.180
-206.421	800.000	-0.047	0.173
-205.406	-135.415	-0.275	-0.032
-204.392	800.000	0.012	0.042
-203.377	-49.441	-0.051	0.024
-202.363	140.930	0.249	-0.324
-201.348	511.591	0.113	-0.260
-200.333	444.328	0.041	0.089
-199.319	-91.651	-0.161	-0.045
-198.304	13.550	-0.184	0.141
-197.290	32.493	0.149	0.127
-196.275	-200.000	-0.018	-0.133
-195.260	-200.000	-0.004	-0.355
-194.246	99.679	0.295	-0.337
-193.231	79.339	0.095	0.100
-192.217	342.649	0.092	0.178
-191.202	219.609	0.170	-0.268
-190.187	-200.000	0.001	-0.118
-189.173	-76.103	0.114	0.040
-188.158	-67.128	0.240	0.093
-187.144	-115.758	0.124	-0.023
-186.129	-65.362	0.066	0.026
-185.114	-103.971	-0.271	-0.062
-184.100	135.473	-0.265	-0.340
-183.085	558.842	-0.070	-0.167
-182.071	-165.283	-0.106	0.005
-181.056	65.990	0.070	-0.070
-180.042	-200.000	-0.003	0.212
-179.027	285.582	-0.142	0.253
-178.012	-28.405	0.192	0.109
-176.998	-77.151	-0.206	-0.071
-175.983	-140.941	0.177	0.018
-174.969	21.406	0.279	0.223
-173.954	-200.000	0.002	-0.252
-172.939	18.361	-0.041	0.032
-171.925	163.209	0.128	-0.178
-170.910	-200.000	-0.038	-0.278
-169.896	-200.000	-0.065	-0.394
-168.881	-14.220	-0.131	-0.083
-167.866	136.438	-0.124	0.159
-166.852	61.656	0.056	0.055
-165.837	-200.000	-0.072	-0.377
-164.823	-200.000	0.024	0.407
-163.808	800.000	0.009	-0.035
-162.793	367.264	0.101	-0.201
-161.779	-92.627	0.021	-0.006
-160.764	800.000	0.087	-0.249
-159.750	36.277	0.034	-0.030
-158.735	-0.813	0.394	0.275
-157.720	-95.738	0.151	0.040
-156.706	5.722	0.200	-0.146
-155.691	68.362	0.228	-0.230
-154.677	-89.437	-0.055	-0.016
-153.662	-83.757	0.144	-0.045
-152.647	-131.549	-0.117	0.015
-151.633	102.933	0.113	-0.131
-150.618	37.625	-0.063	-0.055
-149.604	65.335	0.146	-0.146
-148.589	136.753	0.029	-0.037
-147.574	546.617	0.070	0.165
-146.560	21.269	0.095	-0.076
-145.545	800.000	-0.100	-0.387
-144.531	-83.281	-0.055	0.017
-143.516	-200.000	-0.065	-0.308
-142.502	-111.617	0.263	0.053
-141.487	47.720	0.115	-0.106
-140.472	102.028	0.131	-0.150
-139.458	-7.778	-0.128	0.085
-138.443	-7.164	-0.042	0.028
-137.429	-200.000	0.022	0.234
-136.414	-90.855	0.183	-0.052
-135.399	435.576	0.045	-0.096
-134.385	-105.861	-0.178	-0.040
-133.370	800.000	0.032	-0.103
-132.356	800.000	0.026	-0.073
-131.341	2.711	0.072	-0.051
-130.326	-200.000	0.029	0.218
-129.312	-174.188	0.052	-0.001
-128.297	533.226	0.119	0.277
-127.283	-200.000	-0.024	0.250
-126.268	170.402	0.091	-0.128
-125.253	669.340	0.147	0.374
-124.239	26.566	-0.326	0.268
-123.224	100.984	0.128	0.146
-122.210	47.962	-0.206	0.189
-121.195	-117.149	-0.101	-0.018
-120.180	-144.600	-0.282	0.026
-119.166	-200.000	0.036	0.285
-118.151	-60.546	-0.113	0.047
-117.137	596.998	0.073	0.178
-116.122	-171.202	0.230	0.008
-115.107	-200.000	-0.026	0.226
-114.093	298.924	-0.249	0.450
-113.078	-200.000	-0.012	-0.337
-112.064	-65.055	-0.383	0.152
-111.049	-200.000	-0.024	-0.166
-110.034	156.202	-0.071	0.096
-109.020	800.000	0.056	-0.185
-108.005	-194.814	0.265	-0.002
-106.991	171.239	-0.117	0.165
-105.976	-10.334	-0.164	-0.107
-104.962	173.701	0.206	0.292
-103.947	99.258	-0.062	-0.070
-102.932	308.645	0.180	0.331
-101.918	-25.137	0.076	0.044
-100.903	219.525	-0.038	-0.060
-99.889	-200.000	0.010	0.088
-98.874	530.559	0.127	0.296
-97.859	74.229	0.126	-0.130
-96.845	208.293	0.109	0.167
-95.830	-139.533	0.316	-0.033
-94.816	-187.186	0.243	0.003
-93.801	199.877	-0.175	-0.263
-92.786	-139.282	0.147	0.016
-91.772	37.958	0.128	0.112
-90.757	446.745	0.230	0.498
-89.743	-28.676	0.116	0.065
-88.728	-200.000	-0.062	0.321
-87.713	88.343	-0.199	-0.217
-86.699	9.737	0.069	0.051
-85.684	743.847	-0.147	0.388
-84.670	-80.178	0.276	0.091
-83.655	-23.056	0.086	0.051
-82.640	800.000	-0.068	-0.261
-81.626	-84.549	-0.537	0.166
-80.611	234.361	0.118	0.190
-79.597	-70.435	0.162	0.060
-78.582	25.621	0.287	0.235
-77.567	-47.858	0.218	-0.104
-76.553	-86.425	0.269	0.081
-75.538	-96.307	0.166	0.043
-74.524	118.025	0.056	0.068
-73.509	800.000	-0.085	0.250
-72.494	441.804	0.193	-0.414
-71.480	-155.652	0.203	0.013
-70.465	17.322	-0.183	-0.143
-69.451	-129.276	0.317	0.043
-68.436	-200.000	-0.027	0.139
-67.422	-173.786	0.205	0.006
-66.407	-200.000	-0.032	0.187
-65.392	12.556	0.177	0.134
-64.378	-13.369	0.155	-0.099
-63.363	-138.357	-0.282	-0.031
-62.349	14.278	0.065	0.050
-61.334	5.592	-1.038	-0.752
-60.319	216.064	0.435	0.678
-59.305	101.272	-0.663	-0.757
-58.290	325.756	0.641	1.203
-57.276	338.140	0.744	1.420
-56.261	-200.000	98.520	603.487
-55.246	578.692	1426.927	3424.510
-54.232	187.421	2625.790	3841.654
-53.217	115.775	2160.820	2592.167
-52.203	42.907	1605.302	1434.937
-51.188	34.022	1340.620	1145.097
-50.173	31.109	1299.002	1092.476
-49.159	53.706	1349.482	1270.341
-48.144	54.948	1365.516	1292.788
-47.130	34.263	1322.432	1130.813
-46.115	30.778	1304.635	1095.095
-45.100	30.602	1299.841	1089.995
-44.086	30.572	1297.632	1087.922
-43.071	30.461	1295.417	1085.375
-42.057	30.557	1292.872	1083.761
-41.042	30.466	1291.983	1082.440
-40.027	30.515	1290.036	1081.054
-39.013	30.512	1288.248	1079.493
-37.998	30.553	1286.222	1077.987
-36.984	30.528	1284.795	1076.604
-35.969	30.572	1283.166	1075.455
-34.954	30.604	1281.179	1073.930
-33.940	30.649	1280.289	1073.400
-32.925	30.575	1279.075	1071.914
-31.911	30.672	1277.355	1070.986
-30.896	30.694	1276.279	1070.171
-29.881	30.676	1274.659	1068.666
-28.867	30.736	1273.376	1067.892
-27.852	30.727	1271.737	1066.426
-26.838	30.631	1270.296	1064.625
-25.823	30.670	1269.130	1063.826
-24.809	30.665	1267.491	1062.383
-23.794	30.684	1266.505	1061.623
-22.779	30.691	1264.773	1060.166
-21.765	30.711	1263.585	1059.244
-20.750	30.650	1262.405	1057.863
-19.736	30.507	1261.456	1056.218
-18.721	30.447	1260.169	1054.758
-17.706	30.566	1258.788	1054.232
-16.692	30.508	1257.661	1052.921
-15.677	30.480	1256.575	1051.807
-14.663	30.440	1255.354	1050.522
-13.648	30.448	1254.284	1049.628
-12.633	30.521	1253.557	1049.391
-11.619	30.650	1252.469	1049.166
-10.604	30.409	1252.301	1047.625
-9.590	30.413	1250.927	1046.451
-8.575	30.470	1249.551	1045.584
-7.560	30.383	1249.088	1044.663
-6.546	30.440	1247.964	1044.006
-5.531	30.456	1247.166	1043.385
-4.517	30.481	1246.038	1042.539
-3.502	30.421	1245.711	1041.886
-2.487	30.560	1244.393	1041.523
-1.473	30.580	1240.325	1038.188
-0.458	29.540	1226.026	1020.435
0.556	24.031	1210.013	986.973
1.571	20.873	1216.084	974.209
2.586	20.073	1231.259	981.745
3.600	19.704	1220.082	970.679
4.615	14.630	1148.174	886.502
5.629	5.262	1072.379	781.238
6.644	0.309	1051.236	741.442
7.659	-0.129	1048.423	737.246
8.673	-0.278	1047.211	735.599
9.688	-0.240	1045.658	734.625
10.702	0.329	1044.576	736.582
11.717	6.668	1053.560	774.022
12.731	15.629	1066.965	828.143
13.746	20.062	1071.425	853.414
14.761	20.876	1072.563	858.261
15.775	21.049	1071.869	858.479
16.790	20.651	1071.470	856.124
17.804	20.734	1070.900	856.005
18.819	20.764	1070.344	855.630
19.834	20.894	1069.318	855.370
20.848	20.907	1069.119	855.201
21.863	20.816	1069.294	854.821
22.877	20.869	1068.005	853.971
23.892	20.956	1066.904	853.445
24.907	20.736	1066.895	852.282
25.921	20.838	1065.483	851.580
26.936	20.762	1064.400	850.265
27.950	20.787	1062.489	848.786
28.965	20.525	1060.855	846.132
29.980	20.669	1059.385	845.582
30.994	20.847	1058.564	845.719
32.009	20.805	1057.148	844.307
33.023	20.609	1056.033	842.396
34.038	20.767	1055.326	842.520
35.053	20.797	1054.735	842.119
36.067	20.893	1053.749	841.720
37.082	20.888	1053.119	841.117
38.096	21.106	1052.199	841.359
39.111	21.117	1051.605	840.866
40.126	21.072	1049.582	838.955
41.140	20.605	1048.111	835.461
42.155	20.556	1046.266	833.684
43.169	20.614	1045.790	833.507
44.184	20.507	1044.903	832.215
45.199	20.418	1043.824	830.855
46.213	20.531	1043.060	830.715
47.228	20.704	1042.122	830.722
48.242	20.780	1041.042	830.149
49.257	20.796	1040.534	829.744
50.271	20.834	1039.971	829.407
51.286	20.991	1038.780	829.128
52.301	20.889	1037.812	827.799
53.315	20.723	1037.538	826.717
54.330	20.926	1035.886	826.288
55.344	20.700	1035.647	824.953
56.359	20.654	1034.743	823.945
57.374	20.662	1033.295	822.754
58.388	20.699	1032.481	822.209
59.403	20.560	1031.819	820.956
60.417	20.387	1031.131	819.516
61.432	20.550	1030.082	819.379
62.447	20.630	1029.401	819.141
63.461	20.699	1028.833	818.940
64.476	20.599	1027.436	817.288
65.490	20.573	1026.316	816.200
66.505	20.508	1026.031	815.597
67.520	20.730	1025.018	815.761
68.534	20.520	1024.124	813.996
69.549	20.064	1023.126	810.994
70.563	20.200	1022.029	810.690
71.578	20.052	1021.879	809.810
72.593	20.028	1020.387	808.440
73.607	20.152	1020.195	808.798
74.622	20.333	1019.848	809.296
75.636	20.341	1018.809	808.435
76.651	20.277	1018.185	807.569
77.666	20.259	1017.289	806.707
78.680	20.355	1016.791	806.687
79.695	20.450	1015.533	806.056
80.709	20.427	1015.416	805.787
81.724	20.433	1014.248	804.816
82.739	20.631	1013.768	805.279
83.753	20.871	1013.226	805.886
84.768	21.052	1012.552	806.118
85.782	21.164	1011.681	805.868
86.797	20.995	1010.814	804.327
87.812	20.980	1008.917	802.678
88.826	21.004	1008.596	802.465
89.841	20.980	1007.611	801.497
90.855	21.111	1006.613	801.235
91.870	21.055	1005.873	800.318
92.884	20.920	1004.743	798.730
93.899	20.865	1003.522	797.435
94.914	21.076	1002.861	797.805
95.928	20.820	1002.149	796.000
96.943	20.635	1000.953	794.134
97.957	20.421	999.610	792.023
98.972	20.352	998.232	790.547
99.987	20.585	997.770	791.169
101.001	20.795	997.076	791.506
102.016	20.760	996.493	790.812
103.030	20.618	995.516	789.321
104.045	20.569	994.212	787.997
105.060	20.369	993.060	786.109
106.074	20.456	992.935	786.333
107.089	21.013	992.259	788.249
108.103	20.828	991.178	786.485
109.118	20.626	989.889	784.478
110.133	20.757	988.707	784.064
111.147	20.564	987.192	781.927
112.162	20.186	986.751	779.809
113.176	20.520	986.209	780.812
114.191	20.423	985.323	779.605
115.206	20.107	984.382	777.374
116.220	20.178	983.395	776.846
117.235	20.266	982.555	776.508
118.249	20.180	982.029	775.639
119.264	20.244	980.906	774.969
120.279	20.219	980.038	774.103
121.293	20.341	979.297	773.994
122.308	20.345	977.835	772.786
123.322	20.247	976.994	771.619
124.337	20.167	975.564	770.065
125.352	19.726	973.784	766.637
126.366	19.688	972.661	765.517
127.381	20.474	972.853	769.078
128.395	20.754	972.470	769.949
129.410	20.745	971.501	769.071
130.424	20.927	970.104	768.699
131.439	20.802	969.357	767.488
132.454	20.714	968.696	766.509
133.468	20.727	967.447	765.512
134.483	20.928	966.632	765.682
135.497	21.048	966.255	765.843
136.512	20.993	965.148	764.655
137.527	21.012	964.508	764.164
138.541	20.995	963.751	763.423
139.556	21.056	962.616	762.723
140.570	21.125	962.141	762.583
141.585	21.112	960.948	761.510
142.600	20.890	960.158	759.852
143.614	21.232	959.261	760.561
144.629	21.309	958.823	760.484
145.643	21.064	957.667	758.434
146.658	20.931	955.971	756.447
147.673	21.006	954.728	755.723
148.687	20.917	953.719	754.469
149.702	20.923	952.610	753.552
150.716	20.740	952.061	752.261
151.731	20.957	951.392	752.603
152.746	21.091	950.979	752.786
153.760	21.212	949.883	752.373
154.775	21.180	949.313	751.717
155.789	21.227	948.218	750.987
156.804	20.998	947.900	749.683
157.819	21.307	946.543	749.871
158.833	21.311	946.199	749.549
159.848	21.306	944.595	748.191
160.862	21.287	943.279	747.003
161.877	21.226	942.604	746.143
162.892	21.202	941.792	745.330
163.906	21.138	940.986	744.352
164.921	21.184	939.491	743.301
165.935	21.277	938.745	743.038
166.950	21.124	938.240	741.925
167.964	21.263	936.936	741.417
168.979	21.035	936.048	739.680
169.994	20.939	935.117	738.476
171.008	21.248	935.010	739.634
172.023	21.414	933.328	738.940
173.037	21.032	932.633	736.709
174.052	20.820	931.786	735.083
175.067	20.860	931.551	735.000
176.081	21.004	930.807	734.955
177.096	20.992	929.947	734.160
178.110	20.726	929.103	732.311
179.125	20.455	928.719	730.801
180.140	20.578	928.041	730.722
181.154	20.737	927.935	731.241
182.169	21.019	927.794	732.248
183.183	21.124	927.168	732.130
184.198	21.162	925.865	731.194
185.213	21.024	925.438	730.217
186.227	21.201	924.879	730.452
187.242	21.222	924.095	729.853
188.256	21.234	923.456	729.336
189.271	21.290	922.755	728.950
190.286	20.948	921.699	726.625
191.300	20.411	919.874	722.891
192.315	19.626	918.499	718.480
193.329	19.726	918.157	718.567
194.344	20.623	918.390	722.413
195.359	21.082	917.959	723.917
196.373	21.098	917.676	723.694
197.388	20.909	917.445	722.663
198.402	21.052	916.395	722.364
199.417	21.069	915.802	721.906
200.432	20.795	914.564	719.734
201.446	20.586	913.907	718.289
202.461	20.639	913.438	718.074
203.475	19.810	911.640	713.180
204.490	19.120	910.113	709.082
205.504	19.905	910.961	712.913
206.519	20.704	910.387	715.691
207.534	20.702	910.176	715.452
208.548	21.203	909.744	717.107
209.563	20.950	908.791	715.253
210.577	20.895	908.157	714.466
211.592	21.345	907.741	715.919
212.607	21.094	907.634	714.744
213.621	21.186	906.801	714.401
214.636	21.308	905.905	714.131
215.650	21.079	905.228	712.601
216.665	21.311	904.634	713.017
217.680	21.202	903.523	711.633
218.694	20.798	902.268	708.938
219.709	20.746	901.889	708.366
220.723	21.075	901.063	708.992
221.738	21.082	900.803	708.750
222.753	21.084	899.857	707.951
223.767	21.204	899.578	708.156
224.782	21.400	899.519	708.845
225.796	21.251	899.137	707.874
226.811	20.619	897.628	704.065
227.826	20.131	896.282	700.976
228.840	20.204	896.360	701.269
229.855	20.322	894.774	700.444
230.869	20.057	893.751	698.515
231.884	20.408	894.059	700.107
232.899	21.170	893.638	702.785
233.913	21.058	892.973	701.750
234.928	20.884	892.982	700.994
235.942	20.781	892.224	699.923
236.957	20.711	890.964	698.589
237.972	20.685	890.482	698.045
238.986	20.788	890.183	698.163
240.001	20.764	889.285	697.301
241.015	20.941	888.805	697.573
242.030	20.883	888.547	697.075
243.045	21.026	888.237	697.343
244.059	21.246	887.321	697.441
245.074	21.040	886.290	695.749
246.088	20.749	885.233	693.696
247.103	20.958	885.075	694.344
248.117	21.500	885.504	696.778
249.132	21.624	884.902	696.737
250.147	21.671	884.178	696.292
251.161	21.835	883.979	696.723
252.176	21.889	883.126	696.206
253.190	21.899	882.629	695.789
254.205	22.138	882.078	696.242
255.220	22.084	881.389	695.424
256.234	21.965	880.471	694.166
257.249	21.838	879.666	692.968
258.263	21.770	879.305	692.355
259.278	21.975	878.607	692.554
260.293	22.060	877.751	692.150
261.307	21.733	877.185	690.358
262.322	21.683	876.386	689.471
263.336	20.837	874.301	684.445
264.351	19.942	872.320	679.324
265.366	19.973	872.375	679.426
266.380	21.238	872.747	684.621
267.395	21.436	872.692	685.292
268.409	21.510	871.779	684.802
269.424	21.638	871.344	684.900
270.439	21.691	870.940	684.729
271.453	21.828	870.340	684.735
272.468	22.064	869.900	685.249
273.482	22.075	869.316	684.768
274.497	21.550	868.085	681.694
275.512	21.229	867.327	679.791
276.526	21.618	867.746	681.574
277.541	21.926	867.009	682.132
278.555	21.616	865.964	680.047
279.570	21.584	864.912	679.036
280.585	21.660	864.349	678.827
281.599	21.592	863.827	678.092
282.614	21.063	862.497	674.944
283.628	20.987	862.268	674.410
284.643	21.370	861.664	675.358
285.657	21.068	860.859	673.501
286.672	20.680	860.182	671.416
287.687	21.328	859.672	673.458
288.701	21.316	859.307	673.065
289.716	21.216	858.323	671.849
290.730	21.038	857.643	670.575
291.745	20.827	856.483	668.798
292.760	21.017	856.925	669.815
293.774	21.890	857.474	673.535
294.789	22.326	856.686	674.529
295.803	22.313	855.953	673.842
296.818	22.248	855.687	673.327
297.833	21.824	854.496	670.707
298.847	21.698	853.754	669.585
299.862	22.049	853.722	670.841
300.876	22.207	853.756	671.413
301.891	22.243	852.250	670.303
302.906	21.722	851.586	667.739
303.920	21.941	851.547	668.482
304.935	22.180	851.102	668.986
305.949	22.115	850.454	668.169
306.964	22.010	849.631	667.064
307.979	22.176	848.871	667.036
308.993	22.445	848.899	668.022
310.008	22.426	848.343	667.453
311.022	22.100	847.677	665.633
312.037	21.933	847.322	664.664
313.052	21.738	846.145	662.944
314.066	20.863	844.422	658.231
315.081	20.488	844.059	656.476
316.095	21.500	844.444	660.539
317.110	22.051	843.751	662.016
318.125	21.180	842.476	657.676
319.139	19.976	840.981	651.922
320.154	20.150	840.860	652.424
321.168	21.033	840.907	655.724
322.183	21.729	840.931	658.302
323.197	21.870	841.045	658.861
324.212	22.042	840.627	659.122
325.227	22.009	839.900	658.371
326.241	21.885	839.314	657.387
327.256	21.791	838.526	656.360
328.270	21.839	837.619	655.771
329.285	21.622	837.178	654.559
330.300	21.359	836.463	652.957
331.314	21.590	836.416	653.728
332.329	22.070	835.614	654.833
333.343	22.087	835.349	654.631
334.358	22.018	835.092	654.115
335.373	22.285	834.756	654.788
336.387	22.563	834.535	655.590
337.402	22.691	834.461	655.950
338.416	22.574	833.861	654.986
339.431	22.792	833.651	655.571
340.446	22.788	833.197	655.143
341.460	22.600	832.704	653.997
342.475	22.289	832.306	652.474
343.489	22.474	832.208	653.027
344.504	22.788	831.790	653.804
345.519	22.884	831.499	653.871
346.533	23.007	830.707	653.648
347.548	22.971	830.672	653.428
348.562	22.954	829.799	652.621
349.577	22.784	829.311	651.552
350.592	22.829	828.388	650.934
351.606	22.811	827.899	650.425
352.621	22.795	827.218	649.774
353.635	22.591	826.312	648.257
354.650	22.011	824.733	644.830
355.665	21.185	822.896	640.311
356.679	21.566	823.198	641.885
357.694	21.808	822.702	642.329
358.708	21.951	821.823	642.108
359.723	22.406	822.052	643.896
360.738	22.666	821.289	644.190
361.752	22.576	821.150	643.696
362.767	23.100	820.402	644.965
363.781	23.281	820.312	645.496
364.796	23.302	819.911	645.200
365.810	23.303	819.814	645.070
366.825	23.275	819.101	644.351
367.840	22.816	818.691	642.301
368.854	22.708	817.617	641.009
369.869	22.596	817.386	640.365
370.883	22.723	816.859	640.354
371.898	22.518	816.486	639.262
372.913	22.710	816.127	639.621
373.927	22.757	815.785	639.468
374.942	22.879	815.050	639.276
375.956	22.934	814.814	639.232
376.971	23.214	814.655	640.064
377.986	23.249	814.377	639.917
379.000	23.083	814.084	639.028
380.015	23.071	812.921	638.016
381.029	23.401	812.145	638.538
382.044	23.207	811.963	637.643
383.059	23.214	811.202	637.013
384.073	23.314	810.729	636.944
385.088	23.255	810.199	636.259
386.102	23.007	809.727	634.941
387.117	22.913	809.010	633.986
388.132	22.569	808.039	631.936
389.146	22.265	806.945	629.935
390.161	22.563	806.756	630.800
391.175	22.929	806.457	631.821
392.190	22.655	805.416	629.968
393.205	21.182	803.638	623.267
394.219	19.984	801.893	617.591
395.234	19.765	802.127	616.933
396.248	21.601	803.027	624.123
397.263	22.830	804.124	629.305
398.278	22.780	803.522	628.598
399.292	22.534	803.017	627.272
400.307	22.517	802.490	626.745
401.321	22.881	801.554	627.252
402.336	22.996	802.033	627.979
403.350	23.644	801.585	629.872
404.365	23.559	801.786	629.672
405.380	23.972	801.198	630.620
406.394	23.973	800.539	630.049
407.409	23.833	800.245	629.267
408.423	23.807	800.164	629.056
409.438	24.020	799.308	629.079
410.453	24.013	799.128	628.858
411.467	23.884	798.341	627.729
412.482	23.929	798.040	627.593
413.496	23.970	797.723	627.435
414.511	24.108	797.053	627.339
415.526	24.037	796.946	626.946
416.540	23.816	796.249	625.566
417.555	23.448	795.633	623.731
418.569	23.627	795.019	623.824
419.584	23.667	794.246	623.304
420.599	23.342	794.230	622.093
421.613	155.999	1366.182	1794.992
422.628	135.140	1449.509	1795.066
