DTS Sentinel unit serial number:	SN413079Multiplexer serial number:	ORYXHardware model number:	OX4-SRSoftware version number:	ORYX F/W v4.00 Oryx Data Collector v3.7.2.0data status	okinstallation	princeton_trtdifferential loss correction	single-endedforward channel	channel 1reverse channel	N/Adate	2019/09/17time	12:58:35forward acquisition time	60.00reverse acquisition time	0.00gamma	496.2192k internal	0.2314k external	0.2314temperature offset calibration	0.9967default loss term (dB/km)	0.3790temperature slope calibration	1.0000multiplexer offset coefficient	1.0000multiplexer slope coefficient	1.0000fibre end	0.00T internal ref (°C)	33.25T ext. ref 1 (°C)	0.44T ext. ref 2 (°C)	31.47length (m)	temperature (°C)	Stokes	anti-Stokes-747.200	77.471	-0.104	-0.112
-746.185	-49.598	-0.418	0.202
-745.171	800.000	-0.081	0.252
-744.156	-200.000	0.055	-0.275
-743.142	-200.000	-0.070	0.321
-742.127	800.000	0.033	0.096
-741.112	165.320	0.032	-0.046
-740.098	-118.164	0.140	0.025
-739.083	45.048	0.064	0.060
-738.069	-200.000	-0.001	-0.030
-737.054	-127.509	0.152	-0.022
-736.039	800.000	0.117	0.488
-735.025	800.000	0.051	0.145
-734.010	124.025	-0.158	-0.201
-732.996	-75.047	0.101	0.037
-731.981	-77.361	-0.259	-0.091
-730.966	800.000	0.087	0.287
-729.952	-128.061	0.046	-0.007
-728.937	800.000	-0.108	-0.385
-727.923	74.762	-0.279	-0.298
-726.908	-156.731	-0.232	0.015
-725.894	204.834	-0.170	-0.268
-724.879	357.074	0.037	0.075
-723.864	389.836	0.005	-0.010
-722.850	-77.407	0.256	-0.090
-721.835	-63.138	-0.174	0.073
-720.821	-37.662	-0.135	0.073
-719.806	-200.000	-0.053	-0.313
-718.791	386.215	-0.171	0.357
-717.777	-200.000	-0.004	-0.259
-716.762	40.289	0.195	-0.177
-715.748	85.744	0.069	-0.077
-714.733	-47.654	-0.370	0.182
-713.718	-200.000	0.008	-0.131
-712.704	194.791	-0.142	0.218
-711.689	39.472	-0.210	0.191
-710.675	-22.726	-0.180	0.110
-709.660	-200.000	-0.031	0.283
-708.645	276.514	-0.143	-0.258
-707.631	215.908	0.201	-0.323
-706.616	-71.612	-0.405	-0.153
-705.602	18.956	-0.310	0.252
-704.587	-74.674	-0.141	-0.051
-703.572	118.896	-0.101	-0.126
-702.558	63.960	-0.095	0.096
-701.543	254.054	-0.078	-0.135
-700.529	-95.929	-0.143	-0.038
-699.514	-200.000	-0.023	-0.114
-698.499	-200.000	-0.010	-0.229
-697.485	55.330	0.027	-0.027
-696.470	-73.446	0.336	0.124
-695.456	-200.000	-0.020	-0.281
-694.441	-200.000	0.050	0.368
-693.426	77.912	0.045	0.048
-692.412	-200.000	0.010	0.251
-691.397	-53.514	-0.251	0.116
-690.383	-54.948	0.442	-0.202
-689.368	78.896	0.068	0.073
-688.354	-93.094	0.109	-0.031
-687.339	-33.986	-0.054	-0.030
-686.324	-88.178	-0.060	0.018
-685.310	-142.244	0.357	0.036
-684.295	800.000	-0.111	0.382
-683.281	-88.075	-0.149	0.045
-682.266	4.390	0.105	-0.078
-681.251	-200.000	0.011	-0.195
-680.237	-200.000	-0.031	0.218
-679.222	230.453	0.123	0.204
-678.208	-126.670	-0.469	0.070
-677.193	-18.676	-0.244	0.154
-676.178	154.571	-0.196	-0.272
-675.164	25.337	0.170	0.143
-674.149	-9.587	-0.076	0.051
-673.135	-200.000	0.038	0.168
-672.120	-128.020	0.126	-0.018
-671.105	60.538	-0.132	-0.132
-670.091	-121.484	-0.407	0.068
-669.076	-128.012	0.219	0.032
-668.062	-82.711	-0.283	-0.092
-667.047	-13.853	0.175	0.114
-666.032	-200.000	0.001	-0.141
-665.018	-144.927	0.128	0.012
-664.003	454.996	-0.115	-0.259
-662.989	-200.000	-0.125	-0.001
-661.974	244.665	0.256	-0.435
-660.959	192.711	-0.100	-0.152
-659.945	105.852	0.151	0.181
-658.930	-200.000	0.051	0.240
-657.916	257.319	0.088	0.152
-656.901	44.132	0.201	0.186
-655.886	-200.000	0.012	0.256
-654.872	800.000	0.021	-0.086
-653.857	10.920	0.559	-0.431
-652.843	214.055	0.080	-0.128
-651.828	-200.000	0.016	0.298
-650.814	-51.377	-0.195	-0.092
-649.799	188.795	-0.125	0.190
-648.784	-200.000	0.014	0.183
-647.770	81.183	0.314	0.343
-646.755	-200.000	-0.009	-0.213
-645.741	108.127	0.032	-0.038
-644.726	-200.000	0.025	-0.178
-643.711	-200.000	-0.034	-0.172
-642.697	800.000	0.020	0.059
-641.682	337.253	-0.092	-0.180
-640.668	-200.000	-0.050	0.378
-639.653	742.306	0.110	0.300
-638.638	-42.819	-0.213	0.109
-637.624	800.000	0.055	-0.218
-636.609	800.000	-0.043	-0.146
-635.595	-200.000	0.039	-0.312
-634.580	63.402	-0.155	-0.157
-633.565	3.782	-0.053	-0.039
-632.551	-55.802	-0.298	-0.135
-631.536	155.382	-0.150	0.209
-630.522	-41.375	0.258	-0.134
-629.507	-70.173	-0.296	-0.114
-628.492	22.986	-0.217	0.180
-627.478	243.834	0.060	-0.102
-626.463	-108.536	0.300	0.065
-625.449	800.000	-0.020	-0.073
-624.434	756.330	0.023	0.064
-623.419	-159.877	0.440	-0.024
-622.405	123.429	-0.231	-0.292
-621.390	0.361	-0.210	-0.151
-620.376	393.211	0.173	-0.363
-619.361	449.845	0.074	0.164
-618.346	82.920	0.149	0.164
-617.332	337.992	-0.116	0.229
-616.317	-7.274	0.212	0.145
-615.303	101.944	-0.238	-0.280
-614.288	-37.584	0.254	-0.137
-613.273	-35.902	-0.381	-0.208
-612.259	-200.000	-0.006	-0.071
-611.244	181.799	-0.047	-0.070
-610.230	-200.000	-0.008	0.070
-609.215	-200.000	0.045	-0.256
-608.201	-44.952	0.116	0.058
-607.186	800.000	0.044	-0.149
-606.171	121.943	0.192	0.242
-605.157	-38.884	-0.197	0.105
-604.142	-98.157	-0.129	0.034
-603.128	-128.300	-0.198	0.028
-602.113	353.645	-0.073	0.146
-601.098	36.310	0.129	0.115
-600.084	57.646	0.282	0.278
-599.069	155.257	0.117	0.163
-598.055	64.863	-0.267	0.272
-597.040	-200.000	-0.003	-0.034
-596.025	-148.633	-0.345	0.028
-595.011	800.000	0.102	-0.320
-593.996	306.314	0.109	0.205
-592.982	-88.477	0.325	-0.098
-591.967	-200.000	-0.050	-0.233
-590.952	104.008	-0.240	0.285
-589.938	155.384	0.073	-0.101
-588.923	-200.000	0.066	-0.296
-587.909	-147.954	0.160	-0.013
-586.894	-110.290	-0.306	-0.064
-585.879	23.696	0.078	-0.065
-584.865	230.939	-0.032	0.053
-583.850	777.771	0.065	0.178
-582.836	-200.000	-0.018	-0.236
-581.821	-200.000	0.003	0.073
-580.806	-200.000	-0.005	0.077
-579.792	-19.405	-0.339	0.212
-578.777	503.074	0.028	0.065
-577.763	99.996	-0.192	-0.225
-576.748	0.673	0.217	-0.156
-575.733	-161.858	-0.409	0.021
-574.719	7.159	0.175	0.132
-573.704	-38.175	0.160	-0.085
-572.690	-199.687	-0.402	0.002
-571.675	270.597	0.090	-0.159
-570.661	-106.233	-0.160	0.036
-569.646	-72.315	0.214	-0.080
-568.631	800.000	-0.077	-0.285
-567.617	328.950	0.091	-0.177
-566.602	-200.000	0.015	-0.296
-565.588	-30.855	-0.074	0.042
-564.573	261.188	0.050	0.087
-563.558	-88.641	0.117	0.035
-562.544	180.408	0.180	0.266
-561.529	510.276	0.106	-0.249
-560.515	-41.655	-0.171	-0.089
-559.500	800.000	0.021	0.067
-558.485	-37.053	-0.130	-0.070
-557.471	176.519	-0.135	-0.198
-556.456	-16.608	-0.176	-0.112
-555.442	304.078	-0.132	0.246
-554.427	103.780	0.136	-0.160
-553.412	-200.000	0.005	0.368
-552.398	116.851	-0.142	-0.175
-551.383	-133.257	-0.015	0.002
-550.369	-56.076	-0.298	0.134
-549.354	196.737	-0.118	-0.181
-548.339	22.323	-0.085	0.070
-547.325	800.000	-0.048	0.168
-546.310	-99.556	-0.231	-0.058
-545.296	-20.742	0.151	-0.093
-544.281	31.463	-0.118	-0.102
-543.266	-59.036	0.066	0.029
-542.252	-81.211	-0.421	-0.140
-541.237	244.984	0.112	-0.190
-540.223	-200.000	0.017	0.078
-539.208	280.193	-0.149	0.268
-538.193	-169.767	-0.504	-0.018
-537.179	7.554	-0.022	0.017
-536.164	-139.106	-0.160	-0.017
-535.150	-200.000	0.058	0.386
-534.135	30.204	-0.071	-0.061
-533.121	-86.967	0.188	-0.058
-532.106	-85.936	-0.059	-0.018
-531.091	98.277	-0.136	0.157
-530.077	-37.121	0.265	-0.143
-529.062	-110.281	-0.127	-0.027
-528.048	-31.804	0.262	-0.148
-527.033	-145.596	-0.063	-0.006
-526.018	-54.415	0.068	0.031
-525.004	-161.309	0.113	0.006
-523.989	346.912	-0.064	0.126
-522.975	692.975	-0.013	0.034
-521.960	758.708	-0.140	0.382
-520.945	-105.972	-0.130	0.029
-519.931	-114.648	0.219	-0.042
-518.916	800.000	0.044	-0.175
-517.902	800.000	-0.081	-0.265
-516.887	-85.320	0.190	-0.060
-515.872	201.953	0.113	0.176
-514.858	-44.690	-0.102	-0.051
-513.843	-144.576	-0.507	0.047
-512.829	800.000	-0.050	-0.195
-511.814	37.697	0.218	0.195
-510.799	-12.168	0.297	0.195
-509.785	-120.682	-0.282	0.048
-508.770	97.449	0.209	0.241
-507.756	800.000	-0.008	0.027
-506.741	-200.000	-0.068	-0.322
-505.726	57.772	-0.202	0.198
-504.712	382.292	-0.103	0.214
-503.697	-200.000	-0.034	-0.258
-502.683	172.456	-0.040	0.057
-501.668	-200.000	0.012	-0.055
-500.653	-200.000	0.018	0.089
-499.639	292.457	0.105	-0.192
-498.624	-190.884	0.143	-0.002
-497.610	-109.937	0.171	-0.036
-496.595	-62.688	0.088	-0.037
-495.581	-89.447	0.500	0.148
-494.566	3.210	0.171	0.125
-493.551	-200.000	-0.010	0.143
-492.537	800.000	-0.014	-0.060
-491.522	57.048	0.052	-0.051
-490.508	-43.196	0.136	-0.069
-489.493	-99.968	-0.139	0.035
-488.478	-16.598	0.238	-0.151
-487.464	-16.016	-0.243	0.155
-486.449	335.404	0.088	-0.171
-485.435	781.129	0.099	0.273
-484.420	-56.203	0.251	0.112
-483.405	75.145	-0.244	0.258
-482.391	-80.696	-0.297	-0.099
-481.376	-200.000	0.011	0.094
-480.362	371.446	-0.094	0.190
-479.347	-160.550	0.122	0.007
-478.332	81.813	0.214	0.233
-477.318	31.907	0.059	0.051
-476.303	-200.000	-0.042	-0.330
-475.289	108.771	0.129	-0.155
-474.274	89.698	-0.023	-0.025
-473.259	144.364	-0.062	0.083
-472.245	53.048	0.120	0.115
-471.230	16.473	0.156	0.124
-470.216	-21.878	0.221	-0.135
-469.201	-73.821	-0.118	-0.043
-468.186	-200.000	-0.026	0.132
-467.172	15.615	-0.088	-0.069
-466.157	-134.489	0.370	0.045
-465.143	45.851	-0.229	-0.212
-464.128	-200.000	-0.031	-0.209
-463.113	-135.057	-0.045	0.005
-462.099	-90.081	-0.200	-0.059
-461.084	-25.067	-0.200	0.119
-460.070	372.271	0.096	0.196
-459.055	607.645	0.123	-0.307
-458.040	-61.497	-0.174	-0.073
-457.026	-60.114	-0.288	-0.123
-456.011	-200.000	-0.033	0.193
-454.997	-200.000	0.007	0.300
-453.982	771.106	0.028	0.076
-452.968	156.811	0.065	-0.091
-451.953	-12.229	-0.211	-0.138
-450.938	202.936	0.147	-0.228
-449.924	185.368	0.116	0.172
-448.909	-200.000	-0.018	-0.261
-447.895	-66.693	0.198	0.078
-446.880	-170.737	-0.215	0.007
-445.865	800.000	-0.079	0.241
-444.851	214.317	0.136	-0.216
-443.836	-200.000	0.041	0.430
-442.822	-200.000	-0.027	0.159
-441.807	-27.106	0.136	0.080
-440.792	-200.000	0.020	0.163
-439.778	800.000	0.077	-0.264
-438.763	-14.909	0.318	-0.205
-437.749	-177.562	0.072	0.002
-436.734	-61.508	0.351	0.148
-435.719	-37.838	-0.100	-0.053
-434.705	-130.622	-0.141	-0.019
-433.690	81.463	-0.182	0.197
-432.676	-200.000	0.068	0.359
-431.661	453.190	-0.158	-0.350
-430.646	-77.244	0.495	0.172
-429.632	348.809	-0.050	0.100
-428.617	-200.000	-0.003	-0.299
-427.603	361.996	-0.097	0.195
-426.588	-200.000	-0.007	0.318
-425.573	-200.000	-0.038	-0.220
-424.559	-109.170	0.220	-0.047
-423.544	-45.877	-0.255	-0.126
-422.530	69.732	0.170	-0.175
-421.515	64.358	0.383	0.386
-420.500	119.864	0.249	0.309
-419.486	186.889	-0.113	-0.168
-418.471	80.911	-0.160	0.173
-417.457	74.175	0.047	-0.049
-416.442	800.000	0.042	0.159
-415.428	50.086	0.089	0.084
-414.413	800.000	-0.035	0.133
-413.398	-200.000	0.039	0.214
-412.384	-200.000	0.007	-0.183
-411.369	-155.601	-0.148	-0.010
-410.355	-64.770	0.176	-0.071
-409.340	-200.000	-0.016	-0.223
-408.325	-106.707	0.288	0.064
-407.311	124.986	-0.111	0.141
-406.296	-200.000	0.006	0.081
-405.282	19.799	0.141	-0.113
-404.267	-200.000	0.038	0.206
-403.252	53.311	-0.125	-0.120
-402.238	2.395	-0.065	-0.047
-401.223	-98.062	-0.310	-0.080
-400.209	-200.000	0.074	-0.536
-399.194	123.658	0.133	-0.167
-398.179	-185.627	0.608	0.009
-397.165	-33.011	-0.176	-0.098
-396.150	34.042	-0.090	0.078
-395.136	27.195	-0.077	-0.064
-394.121	751.324	0.058	-0.155
-393.106	-49.619	0.163	-0.078
-392.092	-25.809	-0.371	0.219
-391.077	65.888	-0.268	-0.272
-390.063	-137.236	0.093	0.011
-389.048	-34.358	-0.270	-0.148
-388.033	177.885	0.146	0.213
-387.019	669.447	0.048	-0.125
-386.004	179.204	-0.003	-0.004
-384.990	-123.896	0.208	-0.033
-383.975	615.775	0.043	-0.109
-382.960	-15.496	0.176	0.112
-381.946	-62.619	-0.115	-0.048
-380.931	-200.000	-0.013	-0.280
-379.917	21.416	0.282	-0.229
-378.902	800.000	-0.041	-0.124
-377.888	349.270	0.072	0.142
-376.873	-82.433	-0.220	-0.071
-375.858	-84.627	0.134	0.042
-374.844	-124.160	0.131	-0.021
-373.829	-25.909	-0.046	0.027
-372.815	-200.000	-0.010	0.357
-371.800	193.794	-0.249	0.376
-370.785	642.353	0.033	0.084
-369.771	16.471	-0.033	-0.026
-368.756	-7.277	0.251	0.170
-367.742	-200.000	0.029	-0.161
-366.727	-200.000	-0.092	-0.408
-365.712	-92.109	0.130	-0.037
-364.698	91.538	0.080	0.089
-363.683	800.000	-0.096	0.346
-362.669	241.962	0.138	0.231
-361.654	44.750	-0.219	0.201
-360.639	121.192	-0.169	0.210
-359.625	-164.584	0.305	0.014
-358.610	-161.509	-0.116	-0.006
-357.596	85.101	-0.152	0.166
-356.581	-109.939	-0.199	-0.042
-355.566	98.210	-0.167	-0.192
-354.552	22.362	-0.151	0.123
-353.537	113.297	0.105	0.127
-352.523	-200.000	0.035	-0.180
-351.508	-200.000	-0.002	0.121
-350.493	-200.000	-0.027	0.216
-349.479	800.000	-0.068	0.216
-348.464	800.000	-0.109	0.400
-347.450	-47.739	0.178	-0.086
-346.435	60.020	0.188	0.186
-345.420	156.974	-0.160	0.221
-344.406	-110.410	0.215	0.045
-343.391	-200.000	-0.036	0.357
-342.377	-123.032	-0.107	-0.017
-341.362	-117.710	0.264	0.047
-340.348	-200.000	0.023	0.269
-339.333	617.447	-0.061	0.153
-338.318	-25.843	-0.252	-0.148
-337.304	-130.487	-0.343	-0.046
-336.289	780.942	-0.043	0.118
-335.275	-6.380	-0.173	0.118
-334.260	800.000	0.056	0.224
-333.245	-81.977	-0.294	0.096
-332.231	98.832	-0.115	-0.132
-331.216	138.541	0.201	0.263
-330.202	-200.000	0.034	0.362
-329.187	10.364	0.155	0.118
-328.172	800.000	-0.079	0.254
-327.158	-187.562	-0.301	0.004
-326.143	800.000	0.065	0.248
-325.129	800.000	-0.048	0.139
-324.114	-47.908	0.171	-0.083
-323.099	380.822	-0.131	-0.269
-322.085	-200.000	0.024	-0.383
-321.070	88.812	0.104	-0.115
-320.056	468.172	-0.091	-0.205
-319.041	634.878	-0.109	0.277
-318.026	99.507	0.035	-0.040
-317.012	-136.266	0.214	0.025
-315.997	-200.000	0.011	-0.248
-314.983	-130.199	-0.048	0.007
-313.968	-36.163	0.167	-0.090
-312.953	132.003	-0.045	-0.057
-311.939	-53.572	-0.243	0.111
-310.924	-200.000	0.000	0.052
-309.910	-38.267	0.059	-0.031
-308.895	-171.067	-0.066	-0.002
-307.880	800.000	-0.118	0.401
-306.866	-57.027	-0.197	-0.087
-305.851	-41.040	-0.267	0.137
-304.837	195.959	-0.197	-0.299
-303.822	800.000	0.039	0.143
-302.807	-200.000	0.063	-0.359
-301.793	289.592	-0.069	0.125
-300.778	127.087	-0.157	-0.199
-299.764	6.582	0.052	0.038
-298.749	800.000	0.080	0.248
-297.735	610.843	0.038	-0.094
-296.720	10.806	0.347	0.264
-295.705	-173.452	0.103	0.003
-294.691	148.371	0.029	0.040
-293.676	-68.808	0.042	-0.016
-292.662	-21.878	-0.101	-0.061
-291.647	-111.277	0.160	0.033
-290.632	-200.000	-0.004	-0.151
-289.618	-35.059	0.353	-0.192
-288.603	5.023	0.281	0.206
-287.589	-103.463	-0.392	-0.092
-286.574	242.292	-0.113	-0.188
-285.559	571.242	0.061	-0.148
-284.545	-149.073	0.174	0.014
-283.530	495.055	0.039	-0.090
-282.516	7.091	0.214	-0.159
-281.501	-122.723	0.166	0.027
-280.486	721.988	0.051	-0.135
-279.472	91.947	0.004	-0.004
-278.457	-111.016	0.222	0.045
-277.443	-135.051	0.181	-0.022
-276.428	-115.946	0.380	-0.071
-275.413	324.178	-0.225	-0.428
-274.399	7.750	-0.367	0.273
-273.384	-200.000	0.001	-0.256
-272.370	-59.128	-0.308	0.132
-271.355	-112.073	-0.179	-0.036
-270.340	10.419	0.376	0.285
-269.326	-200.000	-0.020	0.184
-268.311	-161.895	-0.159	-0.008
-267.297	-60.018	0.176	0.075
-266.282	800.000	0.127	0.373
-265.267	-102.646	-0.239	0.057
-264.253	-7.083	-0.095	0.064
-263.238	-44.572	0.076	-0.038
-262.224	52.917	0.223	-0.212
-261.209	20.979	0.166	0.134
-260.195	-58.297	0.230	-0.100
-259.180	58.263	-0.103	0.101
-258.165	-7.694	-0.089	-0.060
-257.151	-86.092	0.246	0.076
-256.136	800.000	0.154	-0.431
-255.122	-200.000	-0.072	0.351
-254.107	87.678	-0.116	-0.128
-253.092	-167.704	-0.384	0.015
-252.078	-118.177	0.249	0.044
-251.063	-56.822	-0.162	-0.071
-250.049	544.042	-0.087	-0.207
-249.034	-61.169	-0.119	-0.050
-248.019	-94.637	-0.251	0.068
-247.005	150.609	-0.265	-0.358
-245.990	75.584	-0.158	0.166
-244.976	-12.195	0.314	0.204
-243.961	-167.403	-0.142	-0.006
-242.946	-73.429	-0.258	-0.094
-241.932	800.000	-0.083	0.250
-240.917	-200.000	0.039	0.179
-239.903	-200.000	-0.008	-0.227
-238.888	362.727	-0.065	-0.130
-237.873	-76.871	0.425	-0.148
-236.859	-81.059	-0.288	-0.095
-235.844	-97.546	0.073	-0.019
-234.830	127.877	-0.091	0.115
-233.815	-127.977	0.152	0.022
-232.800	-58.645	0.147	0.064
-231.786	-200.000	0.009	-0.246
-230.771	-61.842	-0.139	-0.058
-229.757	12.133	0.174	-0.133
-228.742	132.708	-0.096	-0.123
-227.727	132.440	-0.114	-0.147
-226.713	255.994	-0.168	0.287
-225.698	800.000	0.069	0.201
-224.684	-140.546	0.282	-0.029
-223.669	412.422	-0.095	0.200
-222.655	93.922	-0.074	-0.084
-221.640	-193.623	0.418	0.004
-220.625	800.000	0.127	-0.409
-219.611	-200.000	0.065	-0.442
-218.596	-152.371	0.278	-0.020
-217.582	106.152	-0.119	0.140
-216.567	158.351	-0.103	-0.141
-215.552	-200.000	0.017	0.174
-214.538	800.000	0.096	0.315
-213.523	61.562	-0.132	0.131
-212.509	800.000	-0.037	-0.126
-211.494	-200.000	-0.004	0.085
-210.479	59.235	0.299	-0.293
-209.465	-200.000	-0.011	-0.094
-208.450	-65.544	-0.313	-0.125
-207.436	88.383	-0.059	-0.065
-206.421	-200.000	0.030	-0.228
-205.406	240.179	-0.023	-0.038
-204.392	800.000	-0.054	0.199
-203.377	65.769	0.111	0.111
-202.363	189.159	0.099	0.148
-201.348	186.393	-0.051	-0.075
-200.333	94.011	-0.062	-0.069
-199.319	34.742	0.124	0.108
-198.304	-200.000	-0.008	-0.192
-197.290	800.000	-0.080	0.225
-196.275	-68.024	-0.163	-0.063
-195.260	31.834	0.307	-0.263
-194.246	800.000	0.076	-0.293
-193.231	335.598	-0.218	-0.419
-192.217	279.728	-0.064	-0.113
-191.202	123.254	-0.208	0.259
-190.187	-200.000	-0.037	-0.232
-189.173	86.159	0.288	-0.315
-188.158	-60.361	-0.181	0.077
-187.144	-115.056	-0.151	-0.029
-186.129	800.000	-0.100	0.354
-185.114	-108.237	0.097	0.021
-184.100	-19.497	0.092	-0.056
-183.085	144.170	0.159	-0.210
-182.071	-71.578	0.036	0.013
-181.056	-64.377	0.219	0.088
-180.042	-200.000	-0.003	0.085
-179.027	-34.050	-0.240	-0.131
-178.012	784.592	-0.026	-0.070
-176.998	-23.129	0.300	-0.179
-175.983	800.000	-0.037	-0.138
-174.969	-88.223	-0.362	0.108
-173.954	-27.121	0.146	-0.084
-172.939	-134.930	0.229	0.027
-171.925	-36.516	-0.105	-0.056
-170.910	688.111	-0.082	0.212
-169.896	-107.241	0.073	0.016
-168.881	-200.000	-0.103	-0.460
-167.866	120.390	0.111	0.137
-166.852	-77.734	-0.393	0.135
-165.837	555.892	0.126	-0.301
-164.823	-200.000	0.020	0.163
-163.808	-37.705	0.434	0.229
-162.793	-71.694	0.231	0.085
-161.779	-9.493	-0.252	0.167
-160.764	800.000	0.049	-0.165
-159.750	-65.461	0.605	0.241
-158.735	-200.000	0.003	-0.086
-157.720	800.000	0.149	-0.442
-156.706	401.503	0.119	0.248
-155.691	-129.503	-0.071	-0.010
-154.677	-99.065	-0.152	0.038
-153.662	389.587	-0.165	-0.339
-152.647	800.000	-0.033	-0.097
-151.633	15.253	-0.241	-0.187
-150.618	-99.157	-0.291	-0.073
-149.604	-63.215	-0.142	-0.058
-148.589	16.753	-0.193	0.151
-147.574	-200.000	0.017	-0.280
-146.560	750.909	0.020	-0.053
-145.545	-66.319	-0.243	0.096
-144.531	94.425	-0.160	-0.180
-143.516	172.741	-0.214	-0.306
-142.502	-200.000	0.024	-0.280
-141.487	-4.454	0.051	-0.035
-140.472	-95.981	0.137	0.036
-139.458	360.983	0.082	-0.163
-138.443	-122.322	-0.152	0.025
-137.429	-200.000	-0.020	-0.179
-136.414	30.386	0.169	-0.143
-135.399	764.716	0.018	0.048
-134.385	280.726	-0.108	0.191
-133.370	-114.036	0.327	-0.063
-132.356	234.699	-0.186	-0.304
-131.341	-200.000	-0.028	-0.185
-130.326	18.264	0.297	-0.234
-129.312	-36.674	0.135	-0.072
-128.297	-200.000	0.047	0.222
-127.283	-200.000	-0.031	-0.207
-126.268	27.046	-0.078	-0.065
-125.253	167.568	0.063	0.089
-124.239	-30.475	0.219	-0.123
-123.224	115.125	0.022	0.027
-122.210	-79.506	0.234	-0.078
-121.195	-138.088	-0.159	0.017
-120.180	-33.035	0.247	-0.135
-119.166	-200.000	0.046	-0.243
-118.151	800.000	-0.014	-0.052
-117.137	247.961	0.171	0.286
-116.122	-20.650	-0.048	0.029
-115.107	-124.967	-0.184	0.028
-114.093	-196.698	-0.114	-0.001
-113.078	92.760	-0.107	-0.120
-112.064	14.579	0.312	0.241
-111.049	-57.098	-0.286	-0.125
-110.034	-200.000	0.000	-0.078
-109.020	425.050	0.063	0.134
-108.005	114.402	0.065	-0.078
-106.991	-17.276	-0.173	0.108
-105.976	-26.353	0.199	0.116
-104.962	800.000	0.080	-0.343
-103.947	629.660	-0.035	-0.087
-102.932	800.000	-0.047	0.147
-101.918	-28.748	0.385	-0.219
-100.903	48.048	0.132	0.122
-99.889	41.600	-0.150	-0.134
-98.874	-200.000	-0.023	0.242
-97.859	-200.000	0.037	0.557
-96.845	10.253	0.139	-0.104
-95.830	11.386	-0.261	0.198
-94.816	-81.191	-0.376	-0.123
-93.801	36.630	0.203	0.177
-92.786	-51.863	0.284	0.131
-91.772	-131.323	-0.278	0.036
-90.757	-91.935	0.130	0.036
-89.743	40.949	-0.218	0.195
-88.728	716.838	-0.092	-0.243
-87.713	169.467	-0.075	-0.106
-86.699	7.950	-0.104	-0.077
-85.684	468.758	0.083	0.184
-84.670	54.208	0.124	-0.117
-83.655	-115.185	0.244	0.046
-82.640	800.000	0.070	0.243
-81.626	31.452	-0.145	0.123
-80.611	389.874	0.154	0.315
-79.597	-200.000	-0.009	-0.109
-78.582	-20.838	-0.194	-0.118
-77.567	-200.000	-0.035	0.223
-76.553	-20.267	-0.025	-0.015
-75.538	-37.244	-0.254	0.134
-74.524	110.170	0.123	0.146
-73.509	-167.736	-0.323	0.013
-72.494	71.695	0.085	-0.087
-71.480	800.000	-0.073	-0.226
-70.465	-76.661	0.235	-0.081
-69.451	-18.158	-0.181	0.112
-68.436	340.504	-0.064	0.123
-67.422	-63.843	-0.102	-0.041
-66.407	-101.313	-0.118	0.028
-65.392	-163.440	-0.098	0.005
-64.378	-200.000	-0.014	-0.096
-63.363	-200.000	0.026	0.290
-62.349	800.000	-0.042	-0.161
-61.334	120.879	-0.668	-0.820
-60.319	800.000	0.152	0.569
-59.305	376.424	-0.498	-1.003
-58.290	800.000	0.393	1.179
-57.276	490.199	0.740	1.671
-56.261	-200.000	96.215	562.521
-55.246	510.371	1428.445	3279.179
-54.232	146.929	2636.548	3499.095
-53.217	110.791	2205.692	2619.151
-52.203	44.916	1645.929	1495.406
-51.188	36.654	1377.974	1200.891
-50.173	33.430	1334.382	1143.429
-49.159	54.553	1382.645	1315.023
-48.144	57.279	1400.256	1348.459
-47.130	36.941	1356.249	1183.519
-46.115	33.523	1338.054	1146.956
-45.100	33.288	1333.587	1141.667
-44.086	33.214	1331.159	1139.094
-43.071	33.128	1328.845	1136.555
-42.057	33.075	1326.666	1134.325
-41.042	33.120	1325.197	1133.297
-40.027	33.245	1323.573	1132.608
-39.013	33.017	1322.294	1130.108
-37.998	33.077	1320.247	1128.669
-36.984	33.192	1318.446	1127.773
-35.969	33.195	1316.605	1126.169
-34.954	33.312	1314.337	1124.881
-33.940	33.255	1313.384	1123.679
-32.925	33.358	1311.989	1123.054
-31.911	33.290	1310.132	1121.016
-30.896	33.353	1308.449	1119.908
-29.881	33.469	1307.247	1119.517
-28.867	33.320	1306.180	1117.678
-27.852	33.343	1304.728	1116.530
-26.838	33.498	1302.857	1115.798
-25.823	33.392	1301.917	1114.324
-24.809	33.414	1300.038	1112.802
-23.794	33.341	1299.169	1111.582
-22.779	33.307	1297.623	1110.018
-21.765	33.338	1296.401	1109.108
-20.750	33.303	1295.029	1107.685
-19.736	33.319	1293.532	1106.454
-18.721	33.227	1293.012	1105.432
-17.706	33.246	1291.377	1104.097
-16.692	33.287	1290.299	1103.372
-15.677	33.218	1288.992	1101.807
-14.663	33.227	1288.481	1101.383
-13.648	33.206	1287.163	1100.088
-12.633	33.156	1286.108	1098.850
-11.619	33.151	1285.216	1098.020
-10.604	33.172	1284.379	1097.379
-9.590	33.104	1283.532	1096.217
-8.575	33.133	1282.620	1095.564
-7.560	33.171	1281.727	1094.979
-6.546	33.176	1280.333	1093.776
-5.531	33.181	1279.720	1093.238
-4.517	33.143	1279.259	1092.579
-3.502	33.216	1277.899	1091.793
-2.487	33.225	1277.087	1091.110
-1.473	33.214	1273.848	1088.239
-0.458	32.476	1259.307	1071.570
0.556	27.979	1242.959	1037.296
1.571	24.352	1248.845	1021.390
2.586	22.845	1264.021	1024.969
3.600	21.804	1252.576	1009.606
4.615	15.962	1176.710	916.675
5.629	5.831	1096.145	802.245
6.644	0.859	1073.936	760.961
7.659	0.356	1071.886	756.913
8.673	0.319	1070.325	755.557
9.688	0.208	1069.107	754.079
10.702	0.606	1067.462	754.842
11.717	6.272	1075.608	789.010
12.731	15.138	1087.069	842.102
13.746	18.224	1090.069	859.887
14.761	17.224	1088.486	853.542
15.775	16.247	1086.137	846.724
16.790	15.174	1084.440	839.946
17.804	14.549	1082.551	835.281
18.819	14.218	1081.690	832.888
19.834	13.825	1081.019	830.331
20.848	13.654	1079.552	828.278
21.863	13.498	1078.616	826.706
22.877	13.330	1077.825	825.190
23.892	13.146	1077.552	823.987
24.907	13.057	1076.786	822.887
25.921	13.257	1075.858	823.101
26.936	13.277	1074.851	822.357
27.950	13.286	1073.591	821.366
28.965	13.399	1072.556	821.059
29.980	13.475	1071.497	820.557
30.994	13.460	1070.373	819.546
32.009	13.546	1069.334	819.107
33.023	13.496	1068.594	818.220
34.038	13.485	1067.240	817.056
35.053	13.391	1066.556	815.993
36.067	13.404	1066.007	815.565
37.082	13.414	1065.075	814.833
38.096	13.426	1064.359	814.268
39.111	13.485	1063.298	813.678
40.126	13.472	1062.116	812.634
41.140	13.342	1060.973	811.052
42.155	13.259	1060.094	809.904
43.169	13.247	1059.231	809.113
44.184	13.170	1058.196	807.872
45.199	13.203	1056.974	807.029
46.213	13.240	1055.674	806.148
47.228	13.313	1054.481	805.519
48.242	13.425	1053.491	805.238
49.257	13.322	1052.564	803.956
50.271	13.414	1051.781	803.734
51.286	13.385	1050.779	802.756
52.301	13.376	1049.996	802.044
53.315	13.305	1048.808	800.723
54.330	13.335	1047.784	800.016
55.344	13.353	1046.652	799.166
56.359	13.280	1046.045	798.279
57.374	13.332	1045.103	797.742
58.388	13.276	1044.558	796.986
59.403	13.259	1043.380	795.934
60.417	13.135	1042.704	794.752
61.432	13.284	1041.711	794.639
62.447	13.209	1040.486	793.276
63.461	13.136	1040.178	792.622
64.476	13.102	1039.718	792.037
65.490	13.187	1038.840	791.706
66.505	13.259	1037.690	791.103
67.520	13.249	1037.113	790.547
68.534	13.233	1036.612	790.014
69.549	13.276	1035.465	789.277
70.563	13.149	1034.638	787.971
71.578	13.233	1033.817	787.676
72.593	13.143	1033.273	786.762
73.607	13.141	1032.223	785.888
74.622	13.166	1032.027	785.785
75.636	13.115	1031.386	784.986
76.651	13.112	1030.596	784.299
77.666	13.084	1029.862	783.540
78.680	13.234	1029.112	783.613
79.695	13.187	1028.978	783.217
80.709	13.232	1028.131	782.716
81.724	13.328	1027.291	782.461
82.739	13.327	1026.336	781.660
83.753	13.234	1026.003	780.897
84.768	13.444	1024.767	780.879
85.782	13.436	1023.870	780.089
86.797	13.374	1023.083	779.128
87.812	13.297	1021.935	777.825
88.826	13.340	1020.852	777.131
89.841	13.317	1019.881	776.217
90.855	13.409	1019.013	775.919
91.870	13.483	1017.932	775.371
92.884	13.505	1017.341	774.958
93.899	13.502	1016.451	774.195
94.914	13.540	1015.973	773.942
95.928	13.472	1015.338	773.072
96.943	13.355	1014.378	771.727
97.957	13.458	1013.385	771.384
98.972	13.461	1012.550	770.692
99.987	13.494	1011.550	770.019
101.001	13.486	1010.732	769.290
102.016	13.425	1009.740	768.182
103.030	13.533	1008.738	767.855
104.045	13.400	1008.204	766.762
105.060	13.430	1007.137	766.021
106.074	13.353	1006.315	764.971
107.089	13.330	1005.123	763.893
108.103	13.342	1004.225	763.197
109.118	13.221	1003.705	762.180
110.133	13.215	1002.654	761.285
111.147	13.368	1001.347	760.928
112.162	13.325	1000.653	760.138
113.176	13.460	999.632	759.914
114.191	13.377	999.161	759.108
115.206	13.546	998.505	759.314
116.220	13.395	997.781	758.005
117.235	13.471	996.429	757.263
118.249	13.294	995.996	756.056
119.264	13.375	995.017	755.613
120.279	13.299	994.380	754.717
121.293	13.337	993.425	754.097
122.308	13.207	992.828	752.989
123.322	13.290	991.595	752.365
124.337	13.408	990.141	751.731
125.352	13.281	989.994	750.974
126.366	13.305	989.002	750.264
127.381	13.250	987.766	749.013
128.395	13.344	986.805	748.643
129.410	13.407	985.846	748.132
130.424	13.411	985.042	747.473
131.439	13.477	984.233	747.093
132.454	13.450	983.632	746.447
133.468	13.372	982.904	745.479
134.483	13.614	981.691	745.579
135.497	13.495	981.034	744.483
136.512	13.521	979.973	743.726
137.527	13.433	979.202	742.681
138.541	13.476	978.723	742.447
139.556	13.449	978.070	741.764
140.570	13.520	977.435	741.533
141.585	13.586	976.417	740.991
142.600	13.592	975.334	740.131
143.614	13.745	974.746	740.302
144.629	13.692	973.899	739.357
145.643	13.553	973.067	738.041
146.658	13.607	972.028	737.428
147.673	13.592	970.797	736.364
148.687	13.580	970.153	735.754
149.702	13.622	969.081	735.063
150.716	13.453	968.666	733.935
151.731	13.585	967.547	733.605
152.746	13.528	967.124	732.969
153.760	13.625	966.247	732.668
154.775	13.536	965.820	731.886
155.789	13.716	965.015	732.005
156.804	13.675	964.491	731.363
157.819	13.689	963.255	730.421
158.833	13.752	963.097	730.514
159.848	13.811	962.095	729.952
160.862	13.672	961.189	728.587
161.877	13.634	960.299	727.681
162.892	13.671	959.530	727.198
163.906	13.731	958.213	726.397
164.921	13.712	957.438	725.662
165.935	13.893	957.142	726.164
166.950	13.666	956.200	724.392
167.964	13.713	955.180	723.761
168.979	13.670	954.539	723.024
169.994	13.736	953.394	722.382
171.008	13.790	952.806	722.106
172.023	13.867	951.691	721.531
173.037	13.811	951.458	721.051
174.052	13.852	950.505	720.442
175.067	13.791	950.189	719.873
176.081	13.775	949.208	718.994
177.096	13.572	948.628	717.615
178.110	13.679	948.170	717.668
179.125	13.736	947.454	717.309
180.140	13.870	946.677	717.235
181.154	13.746	946.770	716.707
182.169	13.830	945.634	716.147
183.183	13.986	944.904	716.204
184.198	14.004	944.044	715.565
185.213	14.074	943.447	715.350
186.227	14.009	942.812	714.525
187.242	14.006	942.080	713.896
188.256	14.031	941.948	713.841
189.271	14.047	940.803	712.979
190.286	14.000	939.821	711.967
191.300	13.852	939.319	710.893
192.315	13.695	938.917	709.851
193.329	13.872	938.125	709.949
194.344	13.942	937.784	709.927
195.359	14.094	936.586	709.604
196.373	13.876	936.391	708.463
197.388	14.133	935.708	708.979
198.402	14.083	935.309	708.401
199.417	14.163	934.769	708.271
200.432	14.223	933.901	707.807
201.446	14.223	933.607	707.519
202.461	14.274	932.913	707.146
203.475	14.263	932.353	706.614
204.490	14.206	931.694	705.811
205.504	14.392	930.457	705.597
206.519	14.233	930.269	704.723
207.534	14.204	929.494	703.949
208.548	14.064	929.039	702.948
209.563	14.132	928.007	702.396
210.577	14.414	927.120	702.852
211.592	14.451	926.242	702.279
212.607	14.450	925.815	701.889
213.621	14.397	925.100	701.063
214.636	14.414	924.508	700.622
215.650	14.402	923.923	700.065
216.665	14.438	922.682	699.217
217.680	14.459	922.049	698.761
218.694	14.527	921.361	698.462
219.709	14.444	920.969	697.756
220.723	14.476	920.329	697.343
221.738	14.409	920.070	696.806
222.753	14.376	919.203	695.951
223.767	14.566	918.704	696.305
224.782	14.708	917.745	696.108
225.796	14.544	917.312	695.032
226.811	14.550	916.943	694.716
227.826	14.488	915.730	693.478
228.840	14.497	915.270	693.109
229.855	14.531	914.404	692.532
230.869	14.535	913.415	691.737
231.884	14.614	912.655	691.427
232.899	14.575	912.111	690.795
233.913	14.597	911.353	690.249
234.928	14.634	910.715	689.859
235.942	14.508	910.902	689.416
236.957	14.581	909.594	688.668
237.972	14.506	909.125	687.942
238.986	14.484	908.566	687.370
240.001	14.697	907.654	687.494
241.015	14.576	907.080	686.502
242.030	14.711	906.705	686.710
243.045	14.611	906.265	685.907
244.059	14.832	905.104	685.876
245.074	14.710	904.963	685.206
246.088	14.749	904.228	684.747
247.103	14.875	903.420	684.592
248.117	14.847	902.823	683.964
249.132	14.889	901.947	683.413
250.147	14.970	901.257	683.158
251.161	14.983	900.949	682.919
252.176	15.079	900.145	682.639
253.190	14.992	899.821	681.979
254.205	14.908	899.136	681.057
255.220	15.022	898.505	680.982
256.234	15.014	897.870	680.411
257.249	15.066	896.911	679.834
258.263	15.025	896.236	679.097
259.278	15.155	895.373	678.911
260.293	15.199	894.902	678.671
261.307	15.174	894.639	678.308
262.322	15.228	894.052	678.022
263.336	15.271	893.035	677.363
264.351	15.090	892.378	676.076
265.366	15.379	891.692	676.661
266.380	15.225	891.072	675.512
267.395	15.188	890.158	674.608
268.409	15.375	889.297	674.649
269.424	15.250	889.039	673.893
270.439	15.344	887.543	673.075
271.453	15.329	887.207	672.701
272.468	15.221	886.823	671.915
273.482	15.336	886.085	671.758
274.497	15.166	885.715	670.737
275.512	15.306	885.092	670.766
276.526	15.391	884.304	670.449
277.541	15.321	884.144	669.990
278.555	15.446	883.423	669.882
279.570	15.405	882.715	669.125
280.585	15.291	882.683	668.585
281.599	15.419	881.472	668.117
282.614	15.488	880.573	667.653
283.628	15.375	880.384	667.003
284.643	15.487	879.501	666.716
285.657	15.516	878.994	666.388
286.672	15.468	878.242	665.571
287.687	15.432	877.921	665.126
288.701	15.565	877.058	664.940
289.716	15.447	876.378	663.899
290.730	15.523	875.684	663.612
291.745	15.508	875.497	663.356
292.760	15.542	875.282	663.268
293.774	15.751	873.870	662.963
294.789	15.640	873.375	662.092
295.803	15.632	872.790	661.558
296.818	15.621	872.059	660.901
297.833	15.584	871.262	660.093
298.847	15.765	870.561	660.215
299.862	15.681	870.132	659.500
300.876	15.656	869.700	659.020
301.891	15.875	868.932	659.236
302.906	15.818	868.481	658.611
303.920	15.791	868.297	658.310
304.935	15.972	867.037	658.003
305.949	15.860	866.512	657.107
306.964	15.880	866.184	656.879
307.979	15.898	865.276	656.202
308.993	16.017	865.024	656.418
310.008	16.031	864.269	655.838
311.022	15.876	863.985	654.962
312.037	15.863	863.223	654.278
313.052	15.739	862.890	653.484
314.066	15.719	862.376	652.961
315.081	15.842	861.367	652.615
316.095	15.901	860.938	652.460
317.110	15.823	860.633	651.871
318.125	15.843	859.948	651.370
319.139	15.906	859.148	650.951
320.154	15.915	858.827	650.686
321.168	15.921	858.503	650.407
322.183	15.988	857.523	649.863
323.197	16.058	857.100	649.756
324.212	16.033	856.877	649.432
325.227	16.042	856.009	648.753
326.241	16.005	855.371	648.071
327.256	16.036	854.757	647.666
328.270	16.072	854.345	647.434
329.285	16.036	853.728	646.773
330.300	16.150	853.180	646.735
331.314	16.117	852.517	646.049
332.329	16.191	852.285	646.100
333.343	16.120	852.176	645.689
334.358	16.167	851.560	645.346
335.373	16.128	851.056	644.758
336.387	16.212	850.709	644.760
337.402	16.221	850.739	644.757
338.416	16.241	850.123	644.310
339.431	16.286	849.991	644.326
340.446	16.362	849.332	644.058
341.460	16.418	848.838	643.839
342.475	16.456	848.466	643.646
343.489	16.413	848.259	643.269
344.504	16.354	847.739	642.593
345.519	16.469	847.004	642.417
346.533	16.497	846.501	642.082
347.548	16.463	845.647	641.251
348.562	16.457	845.061	640.726
349.577	16.502	844.616	640.504
350.592	16.448	843.874	639.679
351.606	16.528	843.016	639.275
352.621	16.463	842.539	638.609
353.635	16.407	841.862	637.831
354.650	16.468	841.465	637.702
355.665	16.489	840.780	637.205
356.679	16.563	840.365	637.115
357.694	16.526	839.348	636.147
358.708	16.613	838.652	635.890
359.723	16.512	838.434	635.288
360.738	16.595	837.829	635.086
361.752	16.691	836.834	634.637
362.767	16.783	836.305	634.521
363.781	16.751	836.035	634.140
364.796	16.744	835.607	633.736
365.810	16.840	835.388	633.870
366.825	16.800	835.270	633.576
367.840	16.706	834.531	632.611
368.854	16.837	833.545	632.293
369.869	16.870	833.344	632.209
370.883	16.803	833.137	631.744
371.898	16.948	832.604	631.827
372.913	16.910	832.046	631.204
373.927	16.925	831.505	630.797
374.942	16.855	831.122	630.189
375.956	16.916	830.927	630.213
376.971	17.013	830.282	630.026
377.986	17.169	829.669	630.084
379.000	17.002	829.180	629.037
380.015	17.069	828.817	628.955
381.029	17.108	828.176	628.558
382.044	17.180	827.522	628.271
383.059	17.055	827.180	627.495
384.073	17.215	826.643	627.624
385.088	17.051	825.921	626.415
386.102	17.028	825.070	625.630
387.117	17.007	824.992	625.438
388.132	17.119	823.889	624.959
389.146	17.142	823.612	624.776
390.161	17.171	823.279	624.575
391.175	17.141	822.798	624.043
392.190	17.164	822.120	623.558
393.205	17.098	821.699	622.942
394.219	17.154	821.608	623.022
395.234	17.110	820.963	622.318
396.248	17.131	820.394	621.909
397.263	17.041	820.240	621.409
398.278	17.070	819.774	621.105
399.292	17.199	819.393	621.235
400.307	17.152	818.797	620.557
401.321	17.126	818.498	620.179
402.336	17.122	817.986	619.722
403.350	17.268	817.487	619.821
404.365	17.238	817.305	619.519
405.380	17.435	816.341	619.452
406.394	17.411	816.038	619.079
407.409	17.540	815.387	619.000
408.423	17.386	815.530	618.491
409.438	17.325	814.953	617.778
410.453	17.466	814.404	617.820
411.467	17.525	813.876	617.579
412.482	17.471	813.752	617.232
413.496	17.709	812.925	617.413
414.511	17.588	812.785	616.816
415.526	17.610	812.390	616.540
416.540	17.563	811.930	615.968
417.555	17.548	811.556	615.576
418.569	17.556	810.938	615.080
419.584	17.594	810.491	614.824
420.599	17.663	810.132	614.746
421.613	105.615	1286.852	1451.129
422.628	91.042	1356.300	1451.200
