DTS Sentinel unit serial number:	SN413079Multiplexer serial number:	ORYXHardware model number:	OX4-SRSoftware version number:	ORYX F/W v4.00 Oryx Data Collector v3.7.2.0data status	okinstallation	princeton_trtdifferential loss correction	single-endedforward channel	channel 1reverse channel	N/Adate	2019/09/12time	13:12:11forward acquisition time	60.00reverse acquisition time	0.00gamma	496.2192k internal	0.2291k external	0.2291temperature offset calibration	1.0047default loss term (dB/km)	0.3790temperature slope calibration	1.0000multiplexer offset coefficient	1.0000multiplexer slope coefficient	1.0000fibre end	0.00T internal ref (°C)	41.05T ext. ref 1 (°C)	2.05T ext. ref 2 (°C)	35.28length (m)	temperature (°C)	Stokes	anti-Stokes-747.200	-160.522	-0.241	0.013
-746.185	800.000	-0.118	0.447
-745.171	-152.178	-0.126	0.009
-744.156	72.013	0.323	0.345
-743.142	169.609	-0.146	0.214
-742.127	800.000	0.129	0.447
-741.112	176.267	0.230	-0.342
-740.098	-61.473	0.115	0.049
-739.083	-200.000	-0.007	-0.116
-738.069	-166.214	-0.134	0.006
-737.054	78.151	-0.086	-0.094
-736.039	-66.940	-0.057	0.023
-735.025	58.680	0.140	-0.141
-734.010	87.672	0.127	-0.144
-732.996	97.876	0.182	-0.214
-731.981	-133.277	0.142	0.018
-730.966	-29.386	0.050	0.029
-729.952	-200.000	-0.021	-0.307
-728.937	-64.414	0.141	-0.059
-727.923	-133.661	0.251	0.032
-726.908	-155.333	0.202	-0.013
-725.894	351.758	-0.103	-0.209
-724.879	-4.865	-0.299	-0.211
-723.864	800.000	-0.056	0.179
-722.850	451.889	-0.009	0.021
-721.835	-25.177	-0.149	0.090
-720.821	684.266	-0.157	-0.418
-719.806	15.290	-0.293	0.235
-718.791	-133.236	0.181	-0.023
-717.777	-100.014	-0.158	-0.040
-716.762	-132.377	0.103	-0.014
-715.748	-114.980	-0.164	0.032
-714.733	-200.000	0.014	-0.096
-713.718	25.023	0.103	-0.088
-712.704	-120.839	-0.147	0.025
-711.689	-200.000	0.043	-0.193
-710.675	22.000	-0.080	0.066
-709.660	-7.220	0.102	-0.071
-708.645	-200.000	0.006	0.272
-707.631	-200.000	0.012	0.083
-706.616	-80.243	-0.401	0.137
-705.602	81.368	-0.093	-0.103
-704.587	-13.153	-0.248	0.165
-703.572	-131.055	-0.209	0.029
-702.558	-70.439	0.092	-0.036
-701.543	78.753	0.176	0.192
-700.529	140.858	0.099	0.134
-699.514	-200.000	-0.407	-0.001
-698.499	-200.000	0.037	-0.227
-697.485	800.000	0.024	0.072
-696.470	6.938	-0.236	-0.180
-695.456	138.317	0.160	0.215
-694.441	-43.645	0.240	0.123
-693.426	61.752	-0.107	-0.109
-692.412	490.643	-0.025	0.059
-691.397	-110.792	0.491	-0.103
-690.383	62.925	0.269	-0.275
-689.368	103.791	-0.199	-0.239
-688.354	-200.000	0.066	-0.312
-687.339	-130.111	0.195	0.027
-686.324	-200.000	0.014	0.130
-685.310	-200.000	-0.060	-0.329
-684.295	526.493	-0.056	-0.134
-683.281	-200.000	-0.024	-0.456
-682.266	-53.400	0.189	0.089
-681.251	-200.000	-0.012	0.110
-680.237	-89.158	0.167	0.050
-679.222	-160.217	0.054	0.003
-678.208	-200.000	0.018	-0.170
-677.193	230.649	-0.069	0.115
-676.178	-119.680	0.484	-0.085
-675.164	-55.864	0.431	-0.196
-674.149	-46.948	-0.208	-0.104
-673.135	63.714	0.026	-0.026
-672.120	33.585	-0.077	-0.068
-671.105	-60.148	0.128	-0.056
-670.091	58.104	-0.088	0.088
-669.076	38.064	-0.159	-0.144
-668.062	308.894	0.163	-0.311
-667.047	-200.000	-0.027	-0.384
-666.032	198.420	0.083	-0.129
-665.018	-200.000	-0.033	-0.349
-664.003	40.831	-0.273	-0.251
-662.989	183.302	0.087	-0.131
-661.974	-127.114	0.225	0.034
-660.959	-123.597	0.251	-0.041
-659.945	-94.200	0.364	-0.102
-658.930	800.000	0.052	-0.200
-657.916	-200.000	-0.022	0.200
-656.901	-76.071	-0.143	-0.052
-655.886	74.118	-0.028	-0.030
-654.872	208.237	0.184	-0.294
-653.857	379.538	-0.012	0.025
-652.843	-40.367	-0.136	0.072
-651.828	420.822	0.098	-0.214
-650.814	-172.874	-0.155	0.005
-649.799	-88.631	0.257	0.078
-648.784	639.035	-0.046	-0.119
-647.770	-43.468	-0.180	0.093
-646.755	266.589	-0.215	-0.384
-645.741	-40.807	-0.225	-0.119
-644.726	45.243	0.126	-0.119
-643.711	10.467	0.161	0.125
-642.697	-200.000	0.001	0.177
-641.682	9.358	0.120	-0.092
-640.668	13.542	0.258	-0.204
-639.653	-21.142	-0.256	-0.160
-638.638	-200.000	0.028	0.236
-637.624	78.697	0.095	-0.104
-636.609	800.000	0.059	-0.178
-635.595	54.442	-0.162	-0.159
-634.580	-200.000	-0.024	-0.359
-633.565	-27.064	-0.405	-0.241
-632.551	-150.391	0.047	0.004
-631.536	96.954	0.182	0.213
-630.522	-162.262	0.231	0.012
-629.507	-91.920	0.150	0.043
-628.492	715.472	-0.062	0.167
-627.478	-80.035	0.144	0.049
-626.463	-200.000	-0.026	0.216
-625.449	22.209	0.087	-0.072
-624.434	182.270	0.162	0.244
-623.419	-119.260	-0.194	-0.035
-622.405	379.340	-0.024	0.051
-621.390	538.154	0.041	0.099
-620.376	385.994	-0.126	0.265
-619.361	-62.365	0.114	0.048
-618.346	297.251	-0.191	0.357
-617.332	800.000	0.030	-0.104
-616.317	371.391	-0.060	-0.125
-615.303	-66.748	0.279	-0.113
-614.288	-157.044	-0.284	-0.018
-613.273	-200.000	-0.002	-0.258
-612.259	-9.060	-0.136	0.092
-611.244	-138.726	-0.329	-0.037
-610.230	800.000	0.006	-0.019
-609.215	-92.390	0.173	0.050
-608.201	463.537	-0.077	-0.176
-607.186	-120.852	-0.350	0.060
-606.171	-126.756	-0.057	0.009
-605.157	276.830	0.124	-0.224
-604.142	555.852	-0.053	0.129
-603.128	-83.822	0.261	-0.085
-602.113	-89.288	-0.272	-0.082
-601.098	99.461	0.176	-0.208
-600.084	800.000	0.054	0.160
-599.069	-30.810	-0.313	-0.180
-598.055	706.020	-0.108	-0.291
-597.040	-200.000	0.029	-0.333
-596.025	315.023	-0.083	-0.160
-595.011	57.919	-0.261	-0.260
-593.996	42.659	0.408	-0.379
-592.982	-200.000	0.011	0.177
-591.967	800.000	-0.085	-0.304
-590.952	-200.000	-0.042	-0.291
-589.938	225.200	0.013	0.022
-588.923	-29.744	-0.306	-0.178
-587.909	-70.912	0.222	0.085
-586.894	23.183	0.440	0.368
-585.879	243.259	0.028	0.048
-584.865	-200.000	0.001	0.030
-583.850	-52.498	-0.207	0.097
-582.836	-46.075	-0.104	-0.052
-581.821	27.753	-0.033	0.028
-580.806	213.937	0.117	-0.188
-579.792	-112.156	-0.288	-0.059
-578.777	-45.959	-0.286	-0.143
-577.763	-200.000	0.001	-0.019
-576.748	-122.248	-0.085	-0.014
-575.733	217.448	-0.050	0.081
-574.719	-69.777	-0.537	0.209
-573.704	800.000	-0.070	-0.205
-572.690	288.731	0.146	-0.268
-571.675	-165.370	0.163	-0.007
-570.661	73.960	-0.148	-0.158
-569.646	1.264	0.125	-0.091
-568.631	-71.773	0.255	0.097
-567.617	207.394	-0.177	-0.281
-566.602	-50.636	0.350	0.168
-565.588	-200.000	-0.026	-0.315
-564.573	-200.000	0.039	-0.211
-563.558	580.909	0.054	0.134
-562.544	73.978	-0.283	-0.301
-561.529	-115.222	0.280	-0.054
-560.515	175.787	-0.184	-0.272
-559.500	-173.664	-0.073	0.002
-558.485	800.000	0.042	-0.149
-557.471	-120.904	-0.228	-0.039
-556.456	619.150	0.086	-0.219
-555.442	-10.489	-0.182	-0.122
-554.427	159.878	-0.118	-0.167
-553.412	800.000	-0.091	-0.263
-552.398	-116.014	-0.355	0.067
-551.383	250.032	-0.118	0.204
-550.369	170.467	-0.073	0.106
-549.354	-57.006	-0.249	0.112
-548.339	-4.277	0.192	-0.135
-547.325	800.000	-0.047	0.185
-546.310	682.900	-0.101	-0.268
-545.296	-200.000	0.022	-0.123
-544.281	-200.000	-0.083	0.408
-543.266	64.777	-0.111	-0.113
-542.252	0.707	0.032	-0.023
-541.237	-105.683	-0.500	0.115
-540.223	-151.749	-0.172	-0.013
-539.208	117.504	-0.217	-0.271
-538.193	237.637	-0.037	-0.062
-537.179	-200.000	-0.000	0.194
-536.164	-200.000	-0.174	-0.000
-535.150	358.576	0.160	0.325
-534.135	34.046	-0.240	-0.212
-533.121	-147.254	-0.169	-0.015
-532.106	24.114	-0.104	0.087
-531.091	84.755	0.031	0.034
-530.077	152.847	0.164	-0.227
-529.062	800.000	0.083	-0.280
-528.048	-75.330	0.146	0.053
-527.033	-126.805	0.202	-0.030
-526.018	13.615	-0.267	-0.210
-525.004	350.609	-0.124	-0.248
-523.989	-156.472	0.107	0.007
-522.975	-3.972	-0.028	-0.020
-521.960	70.235	-0.246	0.258
-520.945	-107.430	-0.270	-0.060
-519.931	-200.000	-0.007	-0.100
-518.916	800.000	-0.026	-0.097
-517.902	-109.644	-0.384	-0.082
-516.887	173.013	0.084	-0.123
-515.872	-109.387	-0.175	0.038
-514.858	-43.940	0.264	-0.135
-513.843	-55.548	0.132	-0.060
-512.829	-200.000	-0.005	-0.168
-511.814	85.796	0.069	-0.077
-510.799	98.610	0.135	0.158
-509.785	800.000	-0.029	0.087
-508.770	-200.000	-0.033	-0.286
-507.756	800.000	-0.017	0.049
-506.741	79.425	0.242	-0.264
-505.726	113.190	0.088	-0.108
-504.712	336.634	-0.214	-0.422
-503.697	63.083	-0.080	-0.081
-502.683	-117.926	-0.136	0.025
-501.668	75.630	-0.141	-0.151
-500.653	-80.986	0.254	-0.085
-499.639	375.876	0.124	0.256
-498.624	87.731	0.273	-0.306
-497.610	95.470	-0.115	0.133
-496.595	361.634	0.111	0.226
-495.581	-39.036	0.249	-0.133
-494.566	720.856	0.074	0.201
-493.551	-200.000	-0.032	-0.149
-492.537	-200.000	-0.043	-0.255
-491.522	-110.685	0.212	0.044
-490.508	389.508	-0.118	-0.249
-489.493	-103.529	0.165	-0.039
-488.478	193.142	-0.220	-0.337
-487.464	323.609	-0.116	0.224
-486.449	800.000	-0.060	0.180
-485.435	13.308	-0.187	0.147
-484.420	57.001	0.044	-0.044
-483.405	-92.998	-0.254	0.072
-482.391	194.333	-0.182	0.280
-481.376	202.306	0.115	0.180
-480.362	-110.779	-0.081	0.017
-479.347	108.250	0.107	-0.129
-478.332	-200.000	-0.045	0.280
-477.318	-40.593	0.236	-0.124
-476.303	-53.866	-0.276	-0.127
-475.289	-21.727	0.067	0.041
-474.274	94.246	-0.168	0.193
-473.259	-109.325	0.093	-0.020
-472.245	-200.000	0.015	0.183
-471.230	-71.391	0.316	-0.120
-470.216	800.000	0.067	-0.293
-469.201	800.000	0.073	0.243
-468.186	256.102	-0.142	0.247
-467.172	32.354	-0.364	-0.318
-466.157	-141.838	0.220	-0.022
-465.143	-72.043	0.202	0.076
-464.128	-53.249	0.182	0.085
-463.113	50.961	-0.247	0.238
-462.099	-200.000	0.034	-0.223
-461.084	185.234	-0.088	0.133
-460.070	-162.120	-0.170	-0.009
-459.055	-200.000	0.064	-0.356
-458.040	444.595	-0.066	-0.146
-457.026	-107.361	0.058	-0.013
-456.011	376.809	0.147	0.305
-454.997	-22.580	0.513	0.314
-453.982	193.385	-0.095	0.145
-452.968	800.000	-0.060	0.177
-451.953	-123.665	0.224	-0.036
-450.938	-92.747	-0.350	0.099
-449.924	-111.464	0.124	0.026
-448.909	800.000	-0.069	-0.212
-447.895	-151.608	0.169	0.013
-446.880	-127.025	-0.202	0.030
-445.865	800.000	0.007	0.029
-444.851	-133.064	0.154	0.020
-443.836	-9.589	0.332	0.224
-442.822	-55.219	-0.247	0.112
-441.807	-59.874	0.051	-0.022
-440.792	-67.650	0.200	0.079
-439.778	-81.700	-0.083	-0.028
-438.763	154.208	0.152	-0.210
-437.749	70.779	0.124	0.130
-436.734	-200.000	-0.169	0.001
-435.719	243.944	-0.140	-0.238
-434.705	-200.000	-0.054	0.267
-433.690	100.208	0.386	0.453
-432.676	361.221	0.072	0.146
-431.661	-18.455	-0.135	0.085
-430.646	-61.269	0.060	-0.026
-429.632	-200.000	-0.022	-0.164
-428.617	686.596	-0.021	0.055
-427.603	-90.484	-0.216	0.063
-426.588	205.331	0.220	0.346
-425.573	127.624	0.113	-0.145
-424.559	226.867	-0.082	0.134
-423.544	800.000	-0.065	0.267
-422.530	-123.442	0.438	0.071
-421.515	800.000	0.090	0.273
-420.500	-200.000	-0.049	-0.294
-419.486	-200.000	0.005	0.086
-418.471	276.645	-0.127	-0.228
-417.457	324.531	-0.150	0.290
-416.442	-52.506	0.224	0.105
-415.428	-114.745	-0.041	0.008
-414.413	81.165	0.187	0.205
-413.398	123.694	-0.124	-0.158
-412.384	96.445	0.143	0.165
-411.369	59.750	0.205	0.205
-410.355	4.055	0.224	0.165
-409.340	-33.998	0.274	-0.152
-408.325	-88.391	0.119	0.036
-407.311	-200.000	0.037	0.243
-406.296	252.315	-0.110	-0.189
-405.282	121.801	0.210	-0.264
-404.267	63.209	0.094	-0.096
-403.252	-108.070	-0.094	0.021
-402.238	124.442	0.263	0.334
-401.223	-14.244	0.266	0.173
-400.209	-105.591	0.057	-0.013
-399.194	289.851	-0.178	0.326
-398.179	316.154	-0.014	0.026
-397.165	620.145	0.098	-0.249
-396.150	125.765	-0.231	-0.295
-395.136	-43.345	-0.060	0.030
-394.121	-200.000	-0.040	0.186
-393.106	22.422	-0.045	-0.037
-392.092	-193.140	-0.079	0.001
-391.077	313.844	-0.049	-0.092
-390.063	-80.182	0.352	0.119
-389.048	-82.818	0.270	-0.088
-388.033	-200.000	0.002	0.041
-387.019	29.977	-0.270	0.233
-386.004	-15.186	0.451	0.292
-384.990	800.000	-0.049	0.154
-383.975	-110.787	-0.194	-0.040
-382.960	-200.000	0.021	-0.370
-381.946	-200.000	0.000	-0.292
-380.931	157.081	-0.081	-0.112
-379.917	-110.663	0.130	-0.027
-378.902	-153.938	0.129	-0.009
-377.888	-200.000	0.013	0.223
-376.873	112.138	0.233	0.284
-375.858	444.380	-0.164	0.364
-374.844	-124.452	0.038	-0.006
-373.829	2.925	-0.307	-0.225
-372.815	73.353	0.176	0.186
-371.800	-18.720	0.493	0.310
-370.785	-124.751	0.359	-0.056
-369.771	537.003	-0.081	0.194
-368.756	-200.000	0.028	0.215
-367.742	-48.826	-0.154	-0.074
-366.727	-58.866	0.061	-0.027
-365.712	-98.150	-0.167	0.043
-364.698	332.799	-0.072	0.140
-363.683	-35.089	-0.243	0.134
-362.669	800.000	-0.071	0.233
-361.654	-24.714	-0.218	0.131
-360.639	-153.104	-0.231	-0.016
-359.625	800.000	0.061	0.226
-358.610	-57.662	-0.067	0.030
-357.596	-103.273	0.390	-0.093
-356.581	-130.619	0.378	-0.051
-355.566	-200.000	0.034	0.157
-354.552	-167.238	0.058	-0.002
-353.537	800.000	0.135	0.433
-352.523	2.210	0.199	0.145
-351.508	-88.244	-0.219	0.066
-350.493	498.722	-0.105	-0.244
-349.479	-16.629	-0.037	0.024
-348.464	-130.632	0.335	0.045
-347.450	48.685	0.193	-0.182
-346.435	-136.973	0.175	-0.020
-345.420	-200.000	-0.085	0.403
-344.406	106.711	-0.169	0.202
-343.391	800.000	-0.046	-0.137
-342.377	302.291	-0.140	0.261
-341.362	-46.006	-0.292	-0.145
-340.348	358.335	-0.050	0.101
-339.333	-126.221	-0.186	-0.028
-338.318	-200.000	0.313	-0.001
-337.304	-17.906	0.311	0.197
-336.289	800.000	-0.108	-0.339
-335.275	-36.779	0.131	-0.071
-334.260	-116.547	-0.312	-0.058
-333.245	-78.894	-0.305	0.105
-332.231	-200.000	0.036	-0.170
-331.216	-51.789	0.238	-0.112
-330.202	116.923	0.240	-0.297
-329.187	570.743	0.187	0.459
-328.172	767.538	0.047	0.128
-327.158	74.736	-0.112	0.118
-326.143	119.585	-0.044	0.055
-325.129	-70.192	-0.162	-0.062
-324.114	-200.000	-0.030	-0.185
-323.099	48.115	0.138	-0.130
-322.085	800.000	0.045	-0.190
-321.070	-28.970	-0.090	-0.052
-320.056	103.626	0.110	-0.130
-319.041	-127.209	-0.212	0.031
-318.026	20.276	0.258	0.210
-317.012	-24.849	0.099	-0.059
-315.997	-200.000	0.008	0.066
-314.983	465.552	0.101	0.227
-313.968	-47.016	0.269	-0.132
-312.953	327.891	-0.040	-0.077
-311.939	115.166	-0.196	0.241
-310.924	800.000	0.039	0.129
-309.910	-200.000	-0.002	0.076
-308.895	800.000	-0.070	0.235
-307.880	-46.854	0.187	-0.092
-306.866	-200.000	0.019	0.269
-305.851	67.330	-0.264	0.271
-304.837	-200.000	-0.076	-0.343
-303.822	36.024	-0.157	-0.139
-302.807	35.916	-0.393	-0.348
-301.793	-16.699	-0.122	0.078
-300.778	-67.010	-0.084	-0.033
-299.764	-31.212	0.189	0.107
-298.749	541.139	0.071	-0.169
-297.735	-85.080	-0.033	-0.011
-296.720	-41.889	-0.108	-0.056
-295.705	255.443	-0.073	-0.125
-294.691	-105.794	-0.094	-0.021
-293.676	-200.000	-0.022	-0.098
-292.662	110.195	0.167	-0.202
-291.647	213.470	0.098	-0.156
-290.632	-46.810	-0.114	-0.056
-289.618	-43.920	-0.199	-0.100
-288.603	800.000	0.044	0.157
-287.589	213.546	-0.067	0.106
-286.574	800.000	0.016	-0.070
-285.559	-155.340	-0.259	-0.017
-284.545	-200.000	-0.012	-0.052
-283.530	-85.574	-0.210	0.066
-282.516	-117.286	0.409	-0.075
-281.501	674.850	-0.023	0.060
-280.486	16.328	0.086	-0.069
-279.472	25.784	0.120	-0.101
-278.457	585.557	0.066	0.162
-277.443	-144.658	0.184	-0.017
-276.428	-35.213	0.183	0.100
-275.413	85.902	0.262	0.289
-274.399	-200.000	-0.039	-0.247
-273.384	-152.639	0.305	0.022
-272.370	-33.795	-0.161	-0.089
-271.355	181.319	0.046	-0.069
-270.340	-25.894	-0.120	-0.071
-269.326	-39.865	-0.250	-0.131
-268.311	-87.374	-0.136	-0.041
-267.297	-11.216	0.182	0.121
-266.282	800.000	0.122	0.421
-265.267	51.481	-0.159	0.152
-264.253	181.691	0.180	-0.267
-263.238	800.000	-0.065	-0.211
-262.224	-73.792	0.259	-0.095
-261.209	-200.000	-0.016	0.134
-260.195	-198.756	0.352	-0.002
-259.180	-90.287	-0.216	-0.063
-258.165	222.205	-0.102	-0.165
-257.151	8.463	0.093	-0.070
-256.136	-155.694	0.269	0.017
-255.122	39.444	-0.106	-0.095
-254.107	275.776	-0.045	-0.080
-253.092	97.884	-0.248	0.287
-252.078	-60.167	0.400	0.171
-251.063	563.113	0.092	-0.223
-250.049	248.033	-0.044	-0.075
-249.034	233.320	0.083	-0.138
-248.019	413.073	-0.086	-0.183
-247.005	254.362	-0.149	-0.256
-245.990	-58.241	-0.187	-0.082
-244.976	125.665	-0.055	-0.069
-243.961	-200.000	-0.071	0.401
-242.946	-31.172	0.140	-0.079
-241.932	235.699	-0.289	0.479
-240.917	475.310	-0.193	-0.437
-239.903	54.267	-0.258	-0.249
-238.888	-200.000	-0.001	-0.052
-237.873	800.000	-0.042	0.176
-236.859	800.000	0.060	-0.214
-235.844	-23.149	0.174	0.105
-234.830	-200.000	0.031	-0.264
-233.815	-92.144	-0.332	0.094
-232.800	-134.114	-0.321	0.040
-231.786	-172.363	-0.317	-0.010
-230.771	-17.644	0.239	-0.150
-229.757	-61.676	-0.058	-0.025
-228.742	-38.347	-0.158	0.084
-227.727	-30.722	-0.334	-0.190
-226.713	-119.468	-0.075	0.013
-225.698	800.000	0.007	-0.024
-224.684	-51.400	0.412	0.193
-223.669	17.561	0.289	0.230
-222.655	140.535	0.330	0.437
-221.640	-63.345	0.194	0.080
-220.625	-127.944	-0.207	-0.030
-219.611	194.753	0.039	0.060
-218.596	-44.736	0.180	0.090
-217.582	-20.140	-0.133	0.082
-216.567	800.000	0.067	-0.203
-215.552	-99.047	0.087	-0.022
-214.538	231.649	0.099	0.164
-213.523	411.661	-0.171	0.364
-212.509	162.466	0.137	-0.193
-211.494	-73.898	-0.302	-0.110
-210.479	-82.889	-0.351	-0.114
-209.465	3.565	0.324	-0.237
-208.450	-200.000	0.031	0.371
-207.436	-10.665	-0.054	-0.036
-206.421	-81.346	0.202	-0.067
-205.406	340.304	0.191	-0.374
-204.392	210.887	-0.038	0.060
-203.377	-200.000	0.009	0.229
-202.363	800.000	0.022	-0.082
-201.348	172.404	-0.144	0.208
-200.333	-127.731	-0.508	-0.074
-199.319	-38.902	0.128	0.068
-198.304	702.608	-0.039	0.102
-197.290	83.394	0.145	0.158
-196.275	166.922	0.216	0.307
-195.260	-134.170	0.044	-0.005
-194.246	6.094	0.150	-0.112
-193.231	148.454	0.121	-0.164
-192.217	32.641	0.101	0.087
-191.202	211.680	0.113	-0.178
-190.187	363.747	-0.034	0.068
-189.173	-33.806	-0.228	-0.126
-188.158	70.902	0.195	0.202
-187.144	-200.000	0.011	-0.109
-186.129	-107.466	-0.093	-0.021
-185.114	-98.199	0.376	0.097
-184.100	-105.803	0.077	-0.018
-183.085	-149.163	-0.101	0.008
-182.071	-138.131	0.183	0.020
-181.056	0.814	0.229	-0.164
-180.042	122.505	-0.075	0.093
-179.027	-3.143	-0.145	0.101
-178.012	-200.000	-0.043	0.327
-176.998	47.722	-0.087	-0.082
-175.983	464.624	0.040	0.090
-174.969	-89.272	-0.164	0.049
-173.954	378.180	-0.075	0.154
-172.939	-200.000	0.046	0.224
-171.925	-55.050	0.261	0.118
-170.910	-178.486	0.194	-0.004
-169.896	-13.583	-0.331	-0.214
-168.881	800.000	0.062	-0.224
-167.866	-129.611	0.142	0.020
-166.852	-200.000	-0.006	-0.182
-165.837	168.613	-0.129	-0.184
-164.823	-185.739	0.121	-0.002
-163.808	-101.576	0.178	0.043
-162.793	-67.262	0.100	0.039
-161.779	-18.548	-0.299	0.187
-160.764	5.255	-0.212	0.156
-159.750	-200.000	0.013	0.139
-158.735	38.465	0.176	-0.157
-157.720	-200.000	-0.055	0.320
-156.706	656.281	0.142	0.366
-155.691	46.483	-0.092	0.085
-154.677	-200.000	0.035	-0.303
-153.662	-62.102	-0.239	-0.100
-152.647	127.468	-0.144	0.183
-151.633	-200.000	-0.046	0.236
-150.618	114.328	-0.052	-0.063
-149.604	101.703	-0.084	0.097
-148.589	800.000	0.029	0.080
-147.574	-57.291	0.221	0.097
-146.560	-200.000	0.010	-0.113
-145.545	2.115	0.148	0.107
-144.531	-84.778	0.320	-0.101
-143.516	-183.342	0.383	0.007
-142.502	-17.811	0.171	-0.107
-141.487	-61.238	-0.387	-0.163
-140.472	2.631	-0.228	-0.165
-139.458	-200.000	0.034	-0.225
-138.443	233.259	-0.089	-0.146
-137.429	-200.000	-0.005	0.022
-136.414	86.491	-0.188	-0.207
-135.399	-27.558	0.105	0.061
-134.385	-124.582	-0.347	-0.054
-133.370	-118.130	0.166	0.030
-132.356	-89.309	0.331	0.098
-131.341	2.385	0.176	-0.128
-130.326	-120.498	0.124	0.021
-129.312	800.000	0.047	0.202
-128.297	-29.974	-0.334	0.190
-127.283	151.013	-0.058	-0.079
-126.268	461.739	0.113	0.252
-125.253	-200.000	0.011	0.169
-124.239	800.000	-0.113	-0.427
-123.224	285.978	0.053	-0.095
-122.210	800.000	-0.036	0.104
-121.195	-200.000	0.004	0.206
-120.180	-151.388	-0.248	-0.018
-119.166	-40.204	0.201	0.104
-118.151	25.142	0.227	-0.189
-117.137	-200.000	-0.002	-0.044
-116.122	800.000	-0.010	-0.033
-115.107	283.183	-0.027	0.049
-114.093	661.571	0.093	-0.240
-113.078	-27.000	0.139	-0.081
-112.064	-200.000	0.046	-0.218
-111.049	-3.594	-0.370	-0.257
-110.034	-90.423	0.056	-0.016
-109.020	-68.724	-0.395	0.153
-108.005	-82.004	-0.070	-0.023
-106.991	-13.623	0.181	-0.117
-105.976	-43.603	-0.095	-0.048
-104.962	-109.416	-0.215	0.045
-103.947	-200.000	-0.008	0.060
-102.932	-96.773	0.135	0.035
-101.918	-33.332	-0.294	-0.162
-100.903	-92.166	-0.168	-0.047
-99.889	-85.416	0.107	0.033
-98.874	196.163	0.008	0.012
-97.859	-200.000	-0.052	0.230
-96.845	106.454	-0.170	0.201
-95.830	221.866	0.197	-0.316
-94.816	-200.000	-0.002	-0.053
-93.801	-200.000	0.058	0.379
-92.786	-125.048	0.472	0.072
-91.772	800.000	-0.125	0.361
-90.757	277.673	0.111	-0.197
-89.743	-106.047	0.250	-0.056
-88.728	-162.528	0.090	0.004
-87.713	-144.653	-0.098	0.009
-86.699	-13.314	0.120	-0.078
-85.684	800.000	0.089	0.379
-84.670	199.226	-0.267	0.409
-83.655	-76.410	0.260	-0.091
-82.640	173.055	0.217	0.312
-81.626	800.000	0.101	-0.361
-80.611	49.448	-0.421	0.395
-79.597	-45.784	0.394	0.194
-78.582	260.177	0.165	-0.284
-77.567	-150.973	0.246	0.019
-76.553	182.101	-0.188	0.276
-75.538	33.842	0.122	0.106
-74.524	-200.000	-0.002	0.049
-73.509	51.548	-0.259	0.246
-72.494	160.745	-0.140	-0.195
-71.480	-20.140	-0.247	-0.152
-70.465	78.779	0.105	0.112
-69.451	174.127	0.175	0.252
-68.436	16.605	0.120	0.094
-67.422	-200.000	-0.041	0.230
-66.407	-200.000	-0.004	0.104
-65.392	128.164	-0.081	0.102
-64.378	50.375	0.038	0.036
-63.363	-200.000	0.008	-0.169
-62.349	460.823	0.092	0.205
-61.334	11.253	-0.734	-0.560
-60.319	800.000	-0.207	0.647
-59.305	-200.000	0.065	-0.576
-58.290	340.424	0.343	0.667
-57.276	127.671	1.099	1.392
-56.261	-200.000	76.033	512.795
-55.246	525.372	1325.357	3108.966
-54.232	145.662	2558.483	3416.373
-53.217	118.077	2229.172	2737.961
-52.203	53.042	1671.713	1594.424
-51.188	44.797	1395.119	1279.099
-50.173	41.285	1349.093	1215.474
-49.159	59.741	1384.155	1361.038
-48.144	66.477	1402.909	1420.810
-47.130	45.356	1365.720	1255.375
-46.115	41.252	1349.198	1215.173
-45.100	41.001	1344.887	1209.719
-44.086	40.953	1342.542	1207.266
-43.071	40.816	1340.169	1204.258
-42.057	40.684	1337.718	1201.208
-41.042	40.868	1335.984	1200.712
-40.027	40.905	1334.784	1199.810
-39.013	40.798	1332.687	1197.232
-37.998	40.935	1330.691	1196.219
-36.984	41.019	1328.993	1195.147
-35.969	41.011	1327.453	1193.669
-34.954	41.217	1325.002	1192.651
-33.940	41.023	1324.182	1190.705
-32.925	41.047	1323.038	1189.770
-31.911	41.184	1321.449	1189.113
-30.896	41.099	1320.162	1187.405
-29.881	41.109	1318.541	1185.959
-28.867	41.275	1316.645	1185.193
-27.852	41.295	1315.190	1183.957
-26.838	41.186	1314.248	1182.415
-25.823	41.114	1313.031	1180.841
-24.809	41.200	1311.106	1179.575
-23.794	41.129	1309.808	1177.940
-22.779	41.193	1308.230	1176.851
-21.765	41.126	1307.170	1175.457
-20.750	41.132	1306.118	1174.498
-19.736	41.168	1304.264	1172.997
-18.721	41.011	1303.199	1171.071
-17.706	41.023	1302.263	1170.249
-16.692	40.952	1301.148	1168.787
-15.677	40.973	1300.222	1168.033
-14.663	40.884	1298.956	1166.322
-13.648	40.906	1298.141	1165.677
-12.633	40.867	1297.168	1164.530
-11.619	41.049	1295.668	1164.200
-10.604	41.008	1294.864	1163.189
-9.590	40.967	1294.017	1162.145
-8.575	41.056	1292.840	1161.559
-7.560	41.022	1291.834	1160.411
-6.546	40.915	1291.156	1159.135
-5.531	40.943	1290.211	1158.406
-4.517	40.951	1289.141	1157.442
-3.502	40.918	1288.355	1156.496
-2.487	41.012	1287.164	1155.927
-1.473	41.084	1283.273	1152.808
-0.458	39.723	1268.073	1131.309
0.556	35.611	1247.482	1086.181
1.571	30.995	1251.029	1062.930
2.586	29.921	1265.408	1068.850
3.600	28.599	1254.926	1052.326
4.615	20.954	1178.000	946.399
5.629	8.459	1093.803	815.300
6.644	2.476	1069.520	767.217
7.659	2.136	1066.342	763.169
8.673	1.833	1065.286	760.837
9.688	1.757	1064.284	759.674
10.702	2.239	1062.518	760.744
11.717	9.116	1073.382	802.940
12.731	20.512	1088.849	871.942
13.746	25.256	1094.779	900.480
14.761	25.514	1094.948	901.833
15.775	25.448	1094.260	900.855
16.790	25.317	1093.247	899.284
17.804	25.190	1092.639	898.069
18.819	25.218	1092.560	898.066
19.834	25.449	1091.516	898.282
20.848	25.518	1091.043	898.158
21.863	25.451	1090.753	897.507
22.877	25.241	1090.713	896.344
23.892	25.352	1089.369	895.718
24.907	25.400	1088.860	895.458
25.921	25.373	1087.667	894.262
26.936	25.213	1086.196	892.178
27.950	25.259	1084.247	890.728
28.965	25.113	1082.987	888.891
29.980	25.232	1081.534	888.207
30.994	25.393	1080.289	887.905
32.009	25.282	1079.690	886.781
33.023	25.215	1078.401	885.313
34.038	25.277	1077.864	885.103
35.053	25.337	1077.203	884.777
36.067	25.430	1075.778	883.986
37.082	25.295	1076.061	883.477
38.096	25.458	1075.032	883.356
39.111	25.462	1074.382	882.761
40.126	25.458	1072.713	881.291
41.140	25.032	1071.038	877.749
42.155	24.978	1069.254	875.950
43.169	24.968	1068.638	875.314
44.184	24.976	1067.760	874.560
45.199	24.728	1066.854	872.530
46.213	24.993	1065.857	872.928
47.228	25.131	1065.032	872.849
48.242	25.170	1064.627	872.627
49.257	25.306	1063.439	872.238
50.271	25.350	1062.972	871.993
51.286	25.446	1062.126	871.684
52.301	25.347	1061.425	870.555
53.315	25.377	1060.410	869.788
54.330	25.268	1059.762	868.652
55.344	25.340	1058.572	867.949
56.359	25.218	1057.687	866.557
57.374	25.034	1056.904	864.950
58.388	25.161	1055.954	864.710
59.403	25.033	1055.338	863.510
60.417	24.906	1054.392	862.051
61.432	25.005	1053.813	861.978
62.447	25.196	1052.904	862.075
63.461	25.035	1052.721	861.076
64.476	25.000	1051.279	859.650
65.490	24.947	1050.361	858.570
66.505	24.983	1050.020	858.391
67.520	25.094	1049.379	858.319
68.534	24.821	1048.114	855.905
69.549	24.511	1047.126	853.541
70.563	24.582	1046.129	852.991
71.578	24.532	1045.482	852.151
72.593	24.459	1043.983	850.503
73.607	24.580	1043.901	850.940
74.622	24.802	1043.755	851.800
75.636	24.856	1042.579	851.021
76.651	24.718	1041.832	849.681
77.666	24.623	1041.034	848.506
78.680	24.689	1040.213	848.072
79.695	24.737	1039.881	847.957
80.709	24.917	1038.961	847.985
81.724	24.894	1038.410	847.352
82.739	24.946	1037.682	846.929
83.753	25.261	1037.002	847.784
84.768	25.487	1036.710	848.541
85.782	25.716	1035.590	848.626
86.797	25.636	1034.094	846.949
87.812	25.313	1033.568	844.924
88.826	25.545	1032.515	845.080
89.841	25.589	1031.599	844.459
90.855	25.593	1030.522	843.522
91.870	25.510	1029.876	842.532
92.884	25.381	1029.006	841.139
93.899	25.384	1027.755	840.058
94.914	25.607	1027.148	840.528
95.928	25.405	1026.127	838.678
96.943	25.157	1024.880	836.424
97.957	24.839	1023.792	833.984
98.972	24.907	1022.163	832.900
99.987	24.998	1022.186	833.267
101.001	25.274	1021.270	833.730
102.016	25.273	1020.199	832.777
103.030	25.222	1019.223	831.667
104.045	25.129	1018.382	830.477
105.060	24.969	1017.505	828.949
106.074	25.063	1016.992	828.892
107.089	25.291	1016.592	829.546
108.103	25.224	1015.352	828.154
109.118	24.991	1014.241	826.098
110.133	24.913	1013.194	824.814
111.147	24.792	1012.180	823.357
112.162	24.668	1011.319	822.014
113.176	24.960	1010.936	822.973
114.191	24.829	1010.223	821.720
115.206	24.496	1009.259	819.336
116.220	24.559	1007.885	818.432
117.235	24.726	1007.314	818.663
118.249	24.856	1006.284	818.349
119.264	24.602	1005.593	816.554
120.279	24.516	1005.061	815.655
121.293	24.693	1004.194	815.687
122.308	24.710	1003.263	814.938
123.322	24.758	1002.024	814.078
124.337	24.636	1000.628	812.316
125.352	24.114	999.070	808.612
126.366	23.997	998.090	807.217
127.381	24.843	998.189	811.058
128.395	25.151	998.310	812.480
129.410	25.249	997.471	812.173
130.424	25.296	996.057	811.158
131.439	25.385	994.938	810.580
132.454	25.175	994.839	809.477
133.468	25.288	993.089	808.492
134.483	25.270	992.887	808.173
135.497	25.514	992.248	808.680
136.512	25.536	991.161	807.822
137.527	25.566	990.269	807.160
138.541	25.578	989.552	806.557
139.556	25.537	988.799	805.688
140.570	25.737	987.664	805.587
141.585	25.692	987.066	804.825
142.600	25.582	986.087	803.466
143.614	25.724	985.802	803.797
144.629	25.966	984.503	803.744
145.643	25.795	983.251	801.891
146.658	25.479	982.367	799.692
147.673	25.433	980.952	798.268
148.687	25.439	979.871	797.341
149.702	25.278	978.859	795.734
150.716	25.187	978.025	794.582
151.731	25.294	977.748	794.762
152.746	25.475	977.361	795.177
153.760	25.716	976.279	795.292
154.775	25.710	975.686	794.711
155.789	25.820	974.462	794.128
156.804	25.593	974.354	792.972
157.819	25.649	973.319	792.304
158.833	25.817	972.634	792.417
159.848	25.862	971.579	791.683
160.862	25.658	970.146	789.549
161.877	25.536	969.545	788.457
162.892	25.712	968.268	788.121
163.906	25.498	967.333	786.352
164.921	25.520	966.518	785.717
165.935	25.680	965.409	785.443
166.950	25.664	964.495	784.562
167.964	25.564	963.787	783.482
168.979	25.428	962.405	781.695
169.994	25.561	961.640	781.586
171.008	25.691	960.859	781.443
172.023	25.946	959.913	781.713
173.037	25.612	958.942	779.404
174.052	25.367	958.131	777.616
175.067	25.226	958.073	776.891
176.081	25.348	957.641	776.999
177.096	25.439	956.670	776.537
178.110	25.011	956.058	774.122
179.125	24.844	955.097	772.552
180.140	25.053	954.705	773.069
181.154	25.235	954.063	773.266
182.169	25.524	953.963	774.363
183.183	25.744	953.434	774.810
184.198	25.553	952.444	773.117
185.213	25.422	951.993	772.120
186.227	25.539	951.328	772.012
187.242	25.703	950.517	771.992
188.256	25.644	950.143	771.367
189.271	25.777	948.928	770.882
190.286	25.447	947.835	768.513
191.300	24.661	946.558	764.051
192.315	23.968	944.902	759.688
193.329	23.867	944.741	759.061
194.344	24.767	945.427	763.387
195.359	25.439	944.991	765.832
196.373	25.625	944.260	765.966
197.388	25.302	943.930	764.254
198.402	25.517	943.389	764.664
199.417	25.534	942.802	764.195
200.432	25.295	941.627	762.160
201.446	25.143	940.725	760.717
202.461	25.162	940.606	760.631
203.475	24.382	938.297	755.400
204.490	23.599	937.085	751.041
205.504	24.461	937.246	754.751
206.519	25.088	937.379	757.444
207.534	25.217	936.797	757.449
208.548	25.643	936.782	759.169
209.563	25.355	935.998	757.251
210.577	25.352	935.285	756.596
211.592	25.864	934.435	757.998
212.607	25.754	933.771	756.926
213.621	25.653	933.636	756.328
214.636	25.670	932.897	755.731
215.650	25.530	931.973	754.331
216.665	25.809	931.493	755.046
217.680	25.720	930.479	753.783
218.694	25.360	929.274	751.235
219.709	25.176	928.611	749.862
220.723	25.359	928.557	750.519
221.738	25.544	927.827	750.634
222.753	25.503	927.141	749.841
223.767	25.513	926.957	749.667
224.782	25.916	926.613	751.003
225.796	25.841	925.812	749.972
226.811	25.299	924.240	746.383
227.826	24.548	923.335	742.465
228.840	24.737	922.477	742.493
229.855	24.860	921.805	742.396
230.869	24.644	920.244	740.179
231.884	24.825	920.921	741.410
232.899	25.485	921.067	744.196
233.913	25.556	920.309	743.811
234.928	25.298	919.715	742.197
235.942	25.295	919.328	741.809
236.957	25.139	918.035	740.055
237.972	25.143	918.040	740.010
238.986	25.104	917.248	739.144
240.001	25.170	916.743	738.945
241.015	25.283	916.099	738.826
242.030	25.384	915.777	738.917
243.045	25.500	915.501	739.106
244.059	25.739	914.757	739.423
245.074	25.663	913.384	737.933
246.088	25.257	912.544	735.528
247.103	25.356	912.666	735.963
248.117	26.069	912.858	738.976
249.132	26.188	912.197	738.861
250.147	26.226	911.511	738.398
251.161	26.429	910.758	738.550
252.176	26.417	910.340	738.096
253.190	26.539	910.365	738.550
254.205	26.675	909.614	738.429
255.220	26.724	908.882	737.968
256.234	26.458	908.170	736.245
257.249	26.302	907.588	735.073
258.263	26.342	906.730	734.476
259.278	26.532	905.660	734.315
260.293	26.468	905.461	733.831
261.307	26.336	904.884	732.762
262.322	26.062	904.095	730.947
263.336	25.517	901.856	726.871
264.351	24.406	900.435	721.171
265.366	24.624	899.869	721.537
266.380	25.605	900.771	726.156
267.395	25.971	900.537	727.380
268.409	25.989	899.354	726.436
269.424	26.273	898.795	727.063
270.439	26.348	898.680	727.204
271.453	26.304	897.795	726.247
272.468	26.554	897.591	727.023
273.482	26.612	897.280	726.939
274.497	26.134	896.021	723.939
275.512	25.660	894.883	721.056
276.526	26.066	895.156	722.840
277.541	26.348	894.811	723.625
278.555	26.052	893.644	721.434
279.570	26.078	892.937	720.905
280.585	26.200	892.296	720.810
281.599	26.115	891.394	719.678
282.614	25.605	890.102	716.542
283.628	25.487	889.959	715.892
284.643	25.916	889.812	717.420
285.657	25.466	888.507	714.513
286.672	25.197	887.680	712.718
287.687	25.760	887.557	714.792
288.701	25.815	887.226	714.680
289.716	25.550	886.469	712.955
290.730	25.389	885.566	711.528
291.745	25.256	884.545	710.118
292.760	25.469	884.511	710.870
293.774	26.627	884.749	715.577
294.789	26.757	884.504	715.831
295.803	26.712	884.095	715.257
296.818	26.863	883.634	715.417
297.833	26.501	882.232	712.795
298.847	26.169	881.372	710.729
299.862	26.587	881.438	712.366
300.876	26.877	880.982	713.073
301.891	26.688	880.188	711.626
302.906	26.206	879.246	708.907
303.920	26.529	878.738	709.705
304.935	26.835	878.873	710.948
305.949	26.642	878.249	709.628
306.964	26.547	877.326	708.447
307.979	26.472	876.921	707.762
308.993	26.879	877.021	709.373
310.008	26.899	875.941	708.512
311.022	26.592	875.138	706.604
312.037	26.320	875.040	705.402
313.052	26.255	873.556	703.889
314.066	25.411	871.914	699.221
315.081	25.007	871.526	697.274
316.095	25.789	871.724	700.415
317.110	26.280	871.639	702.194
318.125	25.610	869.791	698.042
319.139	24.639	868.331	693.046
320.154	24.339	868.411	691.886
321.168	25.389	868.612	696.056
322.183	26.105	868.864	698.972
323.197	26.272	868.591	699.334
324.212	26.532	867.840	699.673
325.227	26.609	867.565	699.686
326.241	26.461	866.580	698.261
327.256	26.467	865.607	697.440
328.270	26.302	865.347	696.530
329.285	26.023	864.633	694.821
330.300	25.723	863.948	693.051
331.314	26.109	863.548	694.157
332.329	26.555	863.553	695.813
333.343	26.718	862.978	695.914
334.358	26.572	862.762	695.118
335.373	26.712	862.394	695.296
336.387	26.877	862.309	695.799
337.402	27.102	862.230	696.536
338.416	26.982	861.950	695.791
339.431	27.125	861.522	695.931
340.446	27.223	861.502	696.226
341.460	27.029	860.480	694.598
342.475	26.941	860.213	693.984
343.489	27.009	859.756	693.813
344.504	27.235	859.540	694.440
345.519	27.433	859.105	694.785
346.533	27.526	858.534	694.615
347.548	27.406	858.316	693.921
348.562	27.377	857.365	692.981
349.577	27.298	856.884	692.229
350.592	27.220	856.690	691.716
351.606	27.330	855.774	691.330
352.621	27.280	854.492	690.045
353.635	27.268	853.539	689.169
354.650	26.454	852.483	685.175
355.665	25.571	850.559	680.228
356.679	25.912	850.643	681.523
357.694	26.489	850.033	683.153
358.708	26.364	849.327	682.055
359.723	26.894	849.303	683.976
360.738	27.103	848.867	684.352
361.752	27.196	848.498	684.344
362.767	27.579	848.199	685.483
363.781	27.801	848.014	686.105
364.796	27.729	847.577	685.423
365.810	27.866	847.273	685.631
366.825	27.908	846.784	685.330
367.840	27.540	845.695	683.010
368.854	27.129	844.807	680.695
369.869	27.274	844.458	680.895
370.883	27.232	844.122	680.406
371.898	27.091	843.908	679.647
372.913	27.139	843.676	679.580
373.927	27.379	842.790	679.701
374.942	27.385	842.883	679.738
375.956	27.439	842.360	679.457
376.971	27.535	841.878	679.368
377.986	27.715	841.668	679.809
379.000	27.881	840.731	679.609
380.015	27.534	840.349	677.947
381.029	27.630	839.751	677.763
382.044	27.770	839.285	677.848
383.059	27.763	838.607	677.213
384.073	27.721	838.175	676.649
385.088	27.801	837.449	676.301
386.102	27.580	836.587	674.725
387.117	27.426	836.011	673.632
388.132	27.000	835.290	671.417
389.146	26.659	834.099	669.141
390.161	27.074	834.082	670.600
391.175	27.509	833.632	671.782
392.190	27.148	832.877	669.784
393.205	25.805	830.634	662.983
394.219	24.315	829.066	656.194
395.234	24.119	828.891	655.276
396.248	25.651	830.265	661.945
397.263	27.189	831.502	668.534
398.278	27.104	830.750	667.557
399.292	26.929	829.976	666.235
400.307	27.030	829.489	666.155
401.321	26.964	829.392	665.778
402.336	27.449	829.135	667.289
403.350	27.939	828.767	668.728
404.365	28.227	828.878	669.811
405.380	28.421	828.633	670.263
406.394	28.599	828.206	670.509
407.409	28.333	827.583	668.975
408.423	28.367	827.097	668.648
409.438	28.557	826.524	668.818
410.453	28.490	826.164	668.223
411.467	28.314	825.896	667.306
412.482	28.582	825.038	667.528
413.496	28.585	824.789	667.279
414.511	28.378	824.560	666.280
415.526	28.506	824.146	666.353
416.540	28.454	823.128	665.283
417.555	28.254	822.331	663.855
418.569	28.101	821.989	662.967
419.584	28.172	821.759	662.980
420.599	27.994	820.978	661.645
421.613	93.840	1263.377	1368.315
422.628	80.849	1327.878	1368.435
