DTS Sentinel unit serial number:	SN413079Multiplexer serial number:	ORYXHardware model number:	OX4-SRSoftware version number:	ORYX F/W v4.00 Oryx Data Collector v3.7.2.0data status	okinstallation	princeton_trtdifferential loss correction	single-endedforward channel	channel 1reverse channel	N/Adate	2019/09/11time	22:48:11forward acquisition time	60.00reverse acquisition time	0.00gamma	496.2192k internal	0.2316k external	0.2316temperature offset calibration	1.0062default loss term (dB/km)	0.3790temperature slope calibration	1.0000multiplexer offset coefficient	1.0000multiplexer slope coefficient	1.0000fibre end	0.00T internal ref (°C)	34.75T ext. ref 1 (°C)	1.83T ext. ref 2 (°C)	29.30length (m)	temperature (°C)	Stokes	anti-Stokes-747.200	800.000	-0.043	-0.132
-746.185	8.212	0.099	0.075
-745.171	-0.408	0.275	-0.198
-744.156	170.782	-0.154	0.224
-743.142	-107.420	0.380	0.085
-742.127	-107.562	0.052	0.012
-741.112	76.742	0.090	0.096
-740.098	148.429	-0.264	0.361
-739.083	84.580	0.035	-0.039
-738.069	-114.520	-0.147	0.028
-737.054	-59.557	0.316	-0.137
-736.039	152.574	-0.175	-0.243
-735.025	-79.921	0.320	-0.109
-734.010	-200.000	0.018	0.128
-732.996	-195.182	-0.130	-0.001
-731.981	-173.954	-0.238	0.007
-730.966	-56.840	-0.343	-0.153
-729.952	800.000	0.099	0.323
-728.937	72.792	-0.210	0.222
-727.923	17.519	0.189	0.152
-726.908	800.000	0.051	-0.160
-725.894	54.478	-0.101	0.098
-724.879	-51.305	-0.140	-0.066
-723.864	-74.964	0.048	-0.017
-722.850	244.583	0.057	-0.097
-721.835	-200.000	0.032	0.148
-720.821	79.810	-0.191	-0.207
-719.806	11.329	0.380	-0.295
-718.791	-81.176	-0.144	0.048
-717.777	-200.000	0.005	-0.166
-716.762	800.000	0.080	-0.236
-715.748	-19.933	-0.305	-0.190
-714.733	-53.138	0.194	-0.090
-713.718	125.771	0.135	0.173
-712.704	-88.565	0.281	0.085
-711.689	197.645	0.172	-0.266
-710.675	85.095	0.067	-0.075
-709.660	107.527	0.063	0.076
-708.645	-148.688	0.304	0.025
-707.631	441.803	-0.183	-0.406
-706.616	-92.401	-0.091	0.026
-705.602	163.662	-0.177	0.251
-704.587	68.851	0.116	0.120
-703.572	9.593	-0.280	-0.215
-702.558	109.922	0.139	-0.169
-701.543	-15.582	-0.092	0.060
-700.529	169.356	-0.083	0.120
-699.514	133.841	0.111	0.145
-698.499	-89.656	-0.181	-0.054
-697.485	87.601	-0.178	0.199
-696.470	800.000	0.052	-0.231
-695.456	-26.577	0.277	0.164
-694.441	-69.383	0.428	-0.166
-693.426	164.235	-0.081	-0.116
-692.412	772.563	-0.060	0.167
-691.397	-163.473	0.177	-0.009
-690.383	-43.809	-0.170	-0.087
-689.368	-10.913	-0.171	0.114
-688.354	232.818	0.079	0.131
-687.339	212.524	-0.129	0.206
-686.324	-200.000	-0.011	0.237
-685.310	-200.000	-0.024	-0.183
-684.295	-132.367	-0.583	0.076
-683.281	-112.702	0.056	-0.011
-682.266	800.000	-0.045	-0.137
-681.251	22.042	0.110	0.091
-680.237	-129.909	-0.132	0.018
-679.222	-71.534	0.234	-0.088
-678.208	136.057	-0.064	0.084
-677.193	-35.833	0.205	-0.112
-676.178	-70.385	-0.386	-0.148
-675.164	-81.032	0.140	-0.047
-674.149	800.000	-0.048	0.151
-673.135	-104.634	0.173	0.040
-672.120	66.199	-0.127	-0.130
-671.105	800.000	-0.060	-0.237
-670.091	606.218	0.059	0.149
-669.076	-109.610	0.310	0.066
-668.062	800.000	-0.069	0.196
-667.047	-200.000	-0.037	-0.354
-666.032	-200.000	0.011	0.080
-665.018	-67.076	-0.377	0.150
-664.003	800.000	0.042	-0.135
-662.989	-74.594	-0.299	-0.109
-661.974	-200.000	0.000	-0.081
-660.959	630.393	-0.098	0.251
-659.945	2.362	0.025	0.018
-658.930	66.176	0.069	-0.071
-657.916	23.333	-0.098	0.081
-656.901	294.114	0.031	-0.058
-655.886	-127.962	0.368	-0.053
-654.872	109.477	-0.036	0.043
-653.857	-14.756	-0.319	0.207
-652.843	-200.000	-0.002	0.160
-651.828	-200.000	-0.008	-0.076
-650.814	104.016	-0.118	-0.140
-649.799	-200.000	-0.042	-0.219
-648.784	-142.811	0.233	-0.023
-647.770	-200.000	0.016	-0.076
-646.755	470.176	0.168	0.381
-645.741	24.505	0.101	0.085
-644.726	709.615	0.037	0.099
-643.711	-59.092	0.543	-0.236
-642.697	230.814	-0.173	-0.285
-641.682	-85.168	0.079	0.025
-640.668	-200.000	0.017	-0.079
-639.653	332.552	-0.078	-0.152
-638.638	-123.084	-0.111	0.018
-637.624	-200.000	-0.033	-0.237
-636.609	27.145	0.017	0.015
-635.595	184.804	0.019	-0.028
-634.580	-200.000	-0.050	0.447
-633.565	-102.348	-0.554	0.134
-632.551	-72.701	0.141	-0.052
-631.536	494.420	0.072	0.166
-630.522	-52.116	-0.130	0.061
-629.507	34.965	-0.273	0.241
-628.492	11.648	0.327	-0.253
-627.478	91.778	-0.211	0.239
-626.463	71.751	0.175	-0.183
-625.449	557.734	-0.135	0.329
-624.434	-141.772	0.285	0.029
-623.419	196.825	0.118	-0.182
-622.405	-92.762	-0.300	-0.085
-621.390	800.000	0.018	-0.074
-620.376	457.663	-0.021	-0.048
-619.361	-200.000	-0.010	-0.126
-618.346	289.427	0.079	-0.144
-617.332	209.408	0.197	-0.311
-616.317	-62.991	-0.078	-0.033
-615.303	314.792	-0.172	-0.327
-614.288	-200.000	0.059	-0.373
-613.273	-118.509	0.345	-0.062
-612.259	101.691	0.056	0.066
-611.244	-200.000	0.060	-0.305
-610.230	-53.940	-0.223	-0.102
-609.215	-97.951	-0.035	0.009
-608.201	-33.457	-0.287	-0.160
-607.186	-200.000	-0.010	0.284
-606.171	133.129	0.138	-0.180
-605.157	-10.192	-0.227	0.152
-604.142	-67.894	0.048	0.019
-603.128	-71.900	0.233	-0.087
-602.113	109.796	0.135	-0.164
-601.098	-200.000	0.023	-0.172
-600.084	-200.000	-0.009	0.105
-599.069	637.248	0.215	0.549
-598.055	-200.000	0.008	-0.490
-597.040	-200.000	-0.012	-0.055
-596.025	155.365	0.155	-0.215
-595.011	-200.000	0.006	-0.079
-593.996	156.683	0.252	-0.350
-592.982	-161.636	0.215	-0.011
-591.967	800.000	0.050	-0.199
-590.952	-74.312	-0.098	0.036
-589.938	-200.000	-0.024	0.253
-588.923	-200.000	-0.019	-0.245
-587.909	-200.000	0.004	-0.070
-586.894	68.167	-0.163	-0.168
-585.879	262.788	-0.110	-0.193
-584.865	63.392	0.139	0.141
-583.850	24.413	-0.087	-0.072
-582.836	-190.196	-0.071	0.001
-581.821	-125.365	-0.251	-0.039
-580.806	800.000	-0.100	-0.422
-579.792	-187.380	0.551	-0.007
-578.777	-84.746	-0.178	-0.056
-577.763	-187.245	0.199	-0.003
-576.748	541.823	0.012	-0.029
-575.733	41.988	-0.069	-0.063
-574.719	-200.000	0.018	-0.128
-573.704	111.944	0.113	-0.137
-572.690	530.978	-0.037	0.088
-571.675	-14.716	-0.204	0.132
-570.661	-134.804	0.283	0.035
-569.646	-122.401	0.073	-0.012
-568.631	500.807	-0.134	0.310
-567.617	-31.810	0.104	0.059
-566.602	-142.542	0.271	0.027
-565.588	66.463	0.153	0.156
-564.573	-200.000	-0.035	-0.202
-563.558	-200.000	0.030	-0.154
-562.544	115.272	-0.150	0.184
-561.529	50.235	0.133	0.127
-560.515	-200.000	0.035	-0.366
-559.500	79.582	0.071	0.077
-558.485	-34.610	-0.272	-0.150
-557.471	-139.861	-0.167	0.018
-556.456	-50.983	0.274	-0.129
-555.442	-102.724	-0.185	0.044
-554.427	-158.028	0.257	0.015
-553.412	44.042	-0.192	-0.177
-552.398	-200.000	-0.056	0.000
-551.383	78.049	-0.118	0.126
-550.369	203.097	0.083	0.128
-549.354	800.000	0.051	0.208
-548.339	-22.596	-0.150	-0.091
-547.325	800.000	-0.066	-0.229
-546.310	-59.937	0.470	0.202
-545.296	7.214	0.284	0.213
-544.281	117.400	-0.114	-0.141
-543.266	-79.292	0.265	0.090
-542.252	-200.000	0.017	0.085
-541.237	-200.000	-0.070	0.360
-540.223	55.772	-0.078	0.076
-539.208	-200.000	0.048	0.231
-538.193	23.960	-0.034	0.028
-537.179	-66.860	0.266	0.106
-536.164	163.075	0.083	0.117
-535.150	-54.440	-0.211	-0.096
-534.135	-54.380	0.145	-0.066
-533.121	313.461	0.131	-0.248
-532.106	-92.093	-0.203	-0.058
-531.091	-42.958	-0.128	0.065
-530.077	-99.295	-0.235	0.059
-529.062	-122.182	0.203	-0.033
-528.048	93.577	0.052	0.059
-527.033	-69.508	0.111	0.043
-526.018	542.956	-0.042	-0.101
-525.004	800.000	0.065	0.217
-523.989	18.487	-0.425	0.341
-522.975	-130.102	0.237	0.032
-521.960	-59.261	0.425	0.184
-520.945	-200.000	0.083	-0.489
-519.931	-118.685	0.144	0.025
-518.916	-8.952	-0.522	0.351
-517.902	-112.219	-0.149	-0.030
-516.887	-26.283	-0.256	-0.151
-515.872	-36.765	-0.230	-0.124
-514.858	335.876	-0.195	-0.379
-513.843	111.414	-0.117	0.142
-512.829	-41.463	-0.219	-0.113
-511.814	18.181	-0.167	0.134
-510.799	-123.797	-0.231	0.037
-509.785	10.724	0.123	-0.094
-508.770	-200.000	0.086	0.410
-507.756	5.002	-0.017	0.013
-506.741	800.000	0.057	0.236
-505.726	23.811	0.152	-0.125
-504.712	472.721	-0.121	0.273
-503.697	-18.218	-0.054	0.034
-502.683	-101.356	-0.392	0.096
-501.668	16.895	-0.317	0.252
-500.653	-51.294	0.174	-0.082
-499.639	-134.379	0.113	0.014
-498.624	-94.558	-0.278	0.076
-497.610	-200.000	-0.038	-0.238
-496.595	-123.251	0.196	-0.031
-495.581	106.577	-0.119	0.142
-494.566	357.126	0.045	-0.089
-493.551	-95.692	0.159	0.043
-492.537	800.000	0.047	-0.140
-491.522	-119.799	0.120	-0.021
-490.508	800.000	0.015	0.043
-489.493	-64.197	-0.130	-0.053
-488.478	190.726	0.046	-0.069
-487.464	800.000	0.073	0.219
-486.449	233.447	0.085	0.141
-485.435	0.915	-0.029	0.021
-484.420	-86.724	0.231	-0.071
-483.405	-200.000	-0.016	-0.278
-482.391	-1.420	-0.154	-0.109
-481.376	-200.000	-0.020	0.122
-480.362	800.000	0.175	0.574
-479.347	-200.000	-0.002	0.080
-478.332	745.743	0.137	-0.370
-477.318	-0.447	0.163	0.116
-476.303	-94.660	-0.176	0.048
-475.289	-200.000	0.005	0.034
-474.274	134.568	-0.154	-0.200
-473.259	-136.679	-0.115	-0.013
-472.245	308.946	-0.129	0.242
-471.230	-200.000	0.054	-0.273
-470.216	-20.224	-0.069	0.043
-469.201	-156.838	0.288	-0.018
-468.186	133.284	-0.193	0.250
-467.172	-93.417	0.342	-0.095
-466.157	-200.000	-0.014	-0.145
-465.143	-130.107	0.081	-0.011
-464.128	-69.943	0.232	-0.088
-463.113	24.755	-0.189	0.157
-462.099	624.541	0.105	0.265
-461.084	122.375	0.205	-0.257
-460.070	24.404	0.175	0.145
-459.055	40.524	-0.259	-0.234
-458.040	139.429	-0.241	0.318
-457.026	-200.000	-0.011	0.460
-456.011	-60.683	0.140	0.060
-454.997	-21.362	-0.356	-0.218
-453.982	-162.846	-0.182	0.009
-452.968	-14.700	0.239	-0.154
-451.953	226.104	0.154	-0.250
-450.938	127.096	-0.122	0.155
-449.924	800.000	-0.085	0.326
-448.909	-200.000	0.010	0.191
-447.895	-114.297	-0.208	0.040
-446.880	-142.459	-0.336	-0.033
-445.865	40.029	-0.173	-0.156
-444.851	77.514	0.169	-0.180
-443.836	-200.000	0.066	-0.369
-442.822	138.628	-0.250	0.328
-441.807	16.586	-0.150	0.119
-440.792	800.000	0.069	0.192
-439.778	-200.000	-0.027	-0.314
-438.763	329.857	-0.089	0.172
-437.749	71.958	-0.202	0.211
-436.734	335.181	-0.115	0.222
-435.719	-200.000	0.009	-0.132
-434.705	800.000	0.032	-0.090
-433.690	247.199	0.147	-0.249
-432.676	-200.000	-0.006	-0.406
-431.661	-200.000	0.028	-0.195
-430.646	-27.085	0.049	-0.029
-429.632	177.027	0.131	-0.190
-428.617	-169.022	-0.313	-0.012
-427.603	-200.000	0.040	0.313
-426.588	-152.522	0.227	0.016
-425.573	-2.872	-0.018	-0.013
-424.559	-200.000	0.003	-0.278
-423.544	-64.877	0.161	-0.065
-422.530	800.000	-0.011	0.048
-421.515	800.000	-0.110	0.308
-420.500	-89.311	-0.195	0.058
-419.486	-47.434	-0.278	0.135
-418.471	252.104	-0.060	-0.102
-417.457	-200.000	-0.024	0.155
-416.442	137.071	0.174	0.228
-415.428	-200.000	0.013	-0.217
-414.413	149.634	-0.207	-0.281
-413.398	-200.000	0.070	-0.427
-412.384	147.778	-0.131	0.177
-411.369	-102.320	-0.205	0.049
-410.355	-200.000	-0.037	-0.238
-409.340	-200.000	0.033	-0.477
-408.325	-54.248	0.036	0.017
-407.311	435.879	-0.042	-0.091
-406.296	375.547	-0.073	-0.150
-405.282	181.637	0.209	0.308
-404.267	370.087	-0.134	0.271
-403.252	778.112	-0.073	0.201
-402.238	170.324	0.091	0.130
-401.223	462.649	-0.102	-0.228
-400.209	-200.000	0.028	0.336
-399.194	30.689	0.124	-0.106
-398.179	66.029	0.070	-0.071
-397.165	-102.246	-0.305	-0.073
-396.150	-200.000	0.040	0.299
-395.136	-200.000	0.049	0.327
-394.121	-76.637	0.239	-0.084
-393.106	598.786	0.032	-0.079
-392.092	19.914	-0.278	-0.224
-391.077	-200.000	-0.002	-0.041
-390.063	56.037	0.087	0.085
-389.048	-156.843	-0.144	0.009
-388.033	-0.912	0.170	-0.120
-387.019	800.000	-0.065	0.257
-386.004	-200.000	-0.069	-0.308
-384.990	-151.201	-0.108	-0.008
-383.975	-90.587	-0.340	0.098
-382.960	249.445	0.199	0.337
-381.946	-79.432	-0.303	-0.102
-380.931	103.397	-0.069	-0.081
-379.917	-142.295	0.246	0.024
-378.902	11.066	0.204	-0.156
-377.888	-54.726	-0.310	0.140
-376.873	361.998	-0.088	0.176
-375.858	96.744	0.292	-0.334
-374.844	-32.464	0.111	0.062
-373.829	166.424	0.117	0.165
-372.815	-150.787	-0.340	0.026
-371.800	-42.871	-0.374	0.190
-370.785	-72.501	0.414	-0.153
-369.771	-15.261	0.174	0.111
-368.756	-27.748	0.057	-0.033
-367.742	-112.072	0.341	-0.068
-366.727	69.720	-0.286	0.294
-365.712	-200.000	-0.003	-0.135
-364.698	-83.760	-0.114	-0.036
-363.683	281.397	-0.026	-0.046
-362.669	-54.325	0.055	-0.025
-361.654	-55.609	0.095	-0.042
-360.639	37.764	0.171	0.152
-359.625	-200.000	0.015	-0.315
-358.610	-118.681	0.047	0.008
-357.596	-94.934	-0.228	-0.061
-356.581	-58.192	0.259	-0.113
-355.566	-73.722	0.344	0.125
-354.552	-200.000	-0.015	-0.172
-353.537	-200.000	-0.018	-0.162
-352.523	-200.000	0.043	0.230
-351.508	-35.157	0.240	-0.131
-350.493	-25.507	-0.125	-0.074
-349.479	-37.393	0.160	0.085
-348.464	800.000	-0.056	0.159
-347.450	-196.619	-0.140	0.001
-346.435	-52.389	0.203	-0.094
-345.420	800.000	-0.064	-0.276
-344.406	-19.974	-0.218	-0.134
-343.391	238.164	0.108	0.179
-342.377	46.698	-0.243	0.225
-341.362	770.611	0.093	0.252
-340.348	-134.642	-0.277	0.034
-339.333	344.361	0.166	0.325
-338.318	-138.789	-0.140	-0.015
-337.304	516.653	-0.018	0.041
-336.289	1.700	-0.319	0.229
-335.275	-200.000	-0.036	0.186
-334.260	-43.030	-0.107	0.054
-333.245	-200.000	-0.019	0.132
-332.231	-200.000	0.007	0.036
-331.216	310.434	0.117	0.218
-330.202	166.562	-0.181	0.255
-329.187	230.916	-0.113	0.184
-328.172	-3.002	0.235	0.163
-327.158	-7.870	0.186	0.125
-326.143	16.093	0.358	0.281
-325.129	-185.683	-0.132	0.002
-324.114	21.942	-0.240	0.195
-323.099	15.632	-0.266	0.208
-322.085	800.000	0.105	-0.415
-321.070	136.275	0.113	-0.147
-320.056	558.848	-0.134	0.323
-319.041	800.000	-0.034	-0.128
-318.026	800.000	0.072	-0.296
-317.012	-200.000	-0.002	-0.163
-315.997	-109.286	0.277	0.058
-314.983	43.003	0.256	0.233
-313.968	-143.639	-0.086	0.008
-312.953	205.199	-0.075	0.116
-311.939	800.000	0.082	0.340
-310.924	-129.574	-0.201	-0.028
-309.910	-19.063	-0.290	-0.180
-308.895	-87.957	-0.314	-0.094
-307.880	117.104	-0.132	-0.162
-306.866	-200.000	-0.064	-0.292
-305.851	1.244	0.189	0.135
-304.837	-83.100	0.147	-0.047
-303.822	-11.289	0.171	-0.112
-302.807	251.214	-0.180	0.306
-301.793	-38.656	0.075	0.039
-300.778	272.617	0.059	-0.103
-299.764	-200.000	0.033	-0.369
-298.749	35.265	0.084	0.073
-297.735	-200.000	0.016	0.101
-296.720	-200.000	0.064	-0.314
-295.705	313.780	-0.117	0.219
-294.691	-100.000	-0.046	-0.011
-293.676	11.462	0.061	0.047
-292.662	65.554	-0.113	-0.114
-291.647	242.387	0.049	-0.081
-290.632	493.869	-0.071	-0.163
-289.618	-5.831	-0.118	-0.080
-288.603	14.594	0.111	0.086
-287.589	800.000	0.068	-0.195
-286.574	52.635	-0.199	-0.189
-285.559	201.249	0.093	-0.142
-284.545	121.531	0.140	0.174
-283.530	-73.463	-0.242	-0.088
-282.516	0.008	0.279	-0.198
-281.501	-28.778	-0.291	-0.167
-280.486	-12.366	0.136	-0.088
-279.472	-200.000	0.000	-0.077
-278.457	-9.767	-0.102	0.067
-277.443	-158.841	-0.059	0.003
-276.428	515.202	-0.109	-0.252
-275.413	514.394	0.045	-0.104
-274.399	12.431	0.100	-0.077
-273.384	-200.000	0.033	-0.170
-272.370	696.953	0.094	0.246
-271.355	132.299	-0.153	0.196
-270.340	-129.204	0.441	-0.061
-269.326	-200.000	0.009	0.057
-268.311	-78.432	0.239	0.081
-267.297	199.341	-0.182	-0.277
-266.282	581.647	-0.064	-0.157
-265.267	-114.369	-0.190	-0.036
-264.253	-200.000	-0.036	0.195
-263.238	43.929	0.211	0.192
-262.224	-184.933	-0.107	0.002
-261.209	-166.387	-0.190	-0.008
-260.195	319.593	0.118	0.223
-259.180	-65.855	-0.333	0.132
-258.165	-119.074	-0.323	-0.056
-257.151	-120.850	0.212	-0.036
-256.136	63.645	0.178	-0.177
-255.122	248.650	-0.047	0.080
-254.107	-122.250	-0.118	0.019
-253.092	800.000	-0.056	0.223
-252.078	-166.359	-0.159	-0.007
-251.063	178.200	-0.156	0.226
-250.049	-93.756	-0.176	-0.048
-249.034	-99.645	0.363	-0.090
-248.019	-169.044	0.081	0.003
-247.005	-148.789	0.330	0.027
-245.990	-55.952	-0.212	-0.094
-244.976	269.169	0.131	0.229
-243.961	-188.901	-0.115	0.001
-242.946	445.701	-0.059	0.129
-241.932	-34.435	-0.170	0.093
-240.917	-141.373	0.118	-0.012
-239.903	-67.828	0.376	0.146
-238.888	34.298	0.150	0.130
-237.873	-87.825	-0.092	-0.028
-236.859	800.000	-0.020	0.071
-235.844	416.245	-0.048	-0.101
-234.830	-80.313	0.369	0.122
-233.815	-60.077	0.149	0.063
-232.800	-3.147	0.255	0.177
-231.786	469.240	-0.052	0.116
-230.771	120.806	-0.123	0.152
-229.757	225.335	-0.096	0.154
-228.742	-200.000	0.022	0.184
-227.727	483.969	0.042	0.095
-226.713	206.408	-0.110	-0.170
-225.698	-58.502	-0.313	0.135
-224.684	-200.000	0.036	-0.166
-223.669	10.436	0.089	-0.067
-222.655	-107.681	0.159	0.035
-221.640	61.501	0.099	-0.097
-220.625	109.196	-0.158	-0.188
-219.611	206.299	-0.113	-0.174
-218.596	45.153	0.281	-0.257
-217.582	-54.390	-0.132	0.060
-216.567	-88.499	-0.046	-0.014
-215.552	523.657	0.063	-0.147
-214.538	345.545	0.113	0.221
-213.523	426.740	-0.146	0.313
-212.509	142.893	-0.091	0.121
-211.494	-106.155	0.464	0.103
-210.479	153.654	-0.121	-0.165
-209.465	800.000	-0.038	-0.118
-208.450	35.703	0.220	0.192
-207.436	14.281	-0.107	-0.083
-206.421	131.648	0.122	-0.155
-205.406	800.000	0.092	0.317
-204.392	-135.293	-0.157	-0.019
-203.377	-145.438	0.235	0.021
-202.363	56.170	0.020	0.019
-201.348	800.000	0.121	0.437
-200.333	-146.525	-0.184	0.016
-199.319	-82.740	-0.133	-0.043
-198.304	37.575	-0.134	-0.118
-197.290	-25.448	0.222	-0.130
-196.275	-80.589	0.340	0.112
-195.260	800.000	-0.043	0.142
-194.246	350.525	-0.134	-0.262
-193.231	580.365	0.130	-0.316
-192.217	800.000	0.054	0.189
-191.202	800.000	-0.064	-0.212
-190.187	-15.529	0.203	-0.128
-189.173	-17.477	0.031	-0.020
-188.158	38.351	0.181	0.160
-187.144	-111.253	-0.223	-0.045
-186.129	317.299	-0.008	0.016
-185.114	-46.048	0.050	-0.024
-184.100	351.847	-0.129	0.254
-183.085	-17.905	-0.183	-0.113
-182.071	-110.174	-0.164	0.034
-181.056	-135.060	-0.121	0.014
-180.042	-200.000	0.036	0.185
-179.027	76.809	-0.051	-0.054
-178.012	521.093	-0.139	-0.323
-176.998	53.180	-0.140	-0.133
-175.983	-20.585	0.075	-0.045
-174.969	-23.562	-0.081	0.048
-173.954	-200.000	0.006	0.225
-172.939	-200.000	-0.049	0.220
-171.925	-129.116	-0.167	-0.023
-170.910	119.706	-0.134	0.165
-169.896	27.463	0.019	-0.016
-168.881	81.559	-0.127	-0.136
-167.866	800.000	-0.043	-0.179
-166.852	599.853	0.084	0.206
-165.837	68.205	0.301	-0.305
-164.823	-14.626	0.278	-0.177
-163.808	-63.433	0.158	-0.064
-162.793	-200.000	-0.003	-0.053
-161.779	70.196	0.143	-0.146
-160.764	297.515	-0.037	-0.067
-159.750	-200.000	0.025	-0.121
-158.735	-149.454	0.190	0.015
-157.720	-170.641	-0.354	0.012
-156.706	34.661	0.126	0.109
-155.691	800.000	-0.014	-0.061
-154.677	-143.257	0.382	0.036
-153.662	-35.349	-0.130	-0.070
-152.647	33.662	-0.074	0.064
-151.633	-200.000	0.031	-0.140
-150.618	-33.013	0.249	-0.137
-149.604	-56.031	0.225	0.099
-148.589	800.000	-0.083	-0.247
-147.574	-200.000	-0.078	0.477
-146.560	-74.568	0.305	0.109
-145.545	-69.103	-0.284	-0.108
-144.531	-61.931	0.143	0.059
-143.516	366.660	-0.063	-0.126
-142.502	-135.906	0.498	0.058
-141.487	-149.729	-0.081	-0.006
-140.472	521.725	0.098	0.228
-139.458	41.935	-0.198	0.178
-138.443	-47.956	0.267	-0.128
-137.429	-200.000	0.007	-0.121
-136.414	800.000	-0.060	0.192
-135.399	-94.723	0.055	-0.015
-134.385	-24.930	0.299	0.175
-133.370	-83.868	-0.304	0.096
-132.356	-36.994	-0.085	-0.045
-131.341	-200.000	0.001	0.140
-130.326	-200.000	-0.029	-0.133
-129.312	51.805	-0.104	-0.098
-128.297	3.996	-0.089	0.064
-127.283	800.000	-0.015	-0.061
-126.268	-123.251	-0.226	-0.036
-125.253	-200.000	0.035	-0.281
-124.239	-23.823	0.300	-0.178
-123.224	-69.910	-0.336	0.127
-122.210	14.506	-0.250	0.193
-121.195	-30.186	0.312	0.175
-120.180	418.503	0.034	0.072
-119.166	-33.823	-0.158	-0.086
-118.151	-80.426	0.190	-0.063
-117.137	-49.215	-0.110	0.052
-116.122	24.572	-0.280	0.229
-115.107	-8.086	0.208	-0.139
-114.093	259.153	0.086	0.146
-113.078	-75.696	-0.627	0.220
-112.064	800.000	0.059	0.238
-111.049	-147.704	-0.397	0.033
-110.034	-200.000	0.009	-0.156
-109.020	559.705	0.135	0.322
-108.005	97.634	0.054	-0.062
-106.991	800.000	0.038	-0.109
-105.976	121.051	0.060	-0.074
-104.962	-164.845	-0.240	0.011
-103.947	-200.000	-0.004	-0.134
-102.932	98.642	0.088	-0.100
-101.918	515.048	-0.046	-0.105
-100.903	189.596	0.128	0.189
-99.889	83.897	-0.085	-0.092
-98.874	-88.277	0.397	0.117
-97.859	208.199	-0.239	-0.369
-96.845	-31.007	-0.070	-0.039
-95.830	-65.539	0.168	-0.066
-94.816	800.000	-0.119	-0.335
-93.801	-200.000	0.008	0.058
-92.786	125.377	0.141	0.176
-91.772	-200.000	-0.040	0.186
-90.757	664.809	0.085	-0.218
-89.743	24.387	-0.301	0.246
-88.728	-11.402	-0.202	0.131
-87.713	-200.000	-0.016	0.154
-86.699	-37.250	-0.248	-0.131
-85.684	-44.512	-0.038	0.019
-84.670	-200.000	-0.079	0.525
-83.655	-103.924	0.296	0.068
-82.640	690.494	-0.059	0.153
-81.626	800.000	0.063	-0.174
-80.611	196.066	-0.011	-0.016
-79.597	800.000	-0.059	-0.207
-78.582	-70.022	0.153	0.058
-77.567	-200.000	0.021	0.217
-76.553	-77.275	0.279	-0.096
-75.538	-7.641	0.074	-0.050
-74.524	44.424	-0.216	-0.196
-73.509	-99.951	-0.308	-0.076
-72.494	-102.159	-0.134	0.032
-71.480	-116.665	0.091	-0.016
-70.465	29.282	0.071	0.060
-69.451	-130.248	-0.195	0.026
-68.436	-56.298	0.248	-0.109
-67.422	-167.261	0.191	0.008
-66.407	87.205	0.277	0.302
-65.392	-200.000	-0.020	0.425
-64.378	800.000	0.150	0.411
-63.363	-200.000	0.092	0.471
-62.349	-47.590	-0.383	-0.184
-61.334	155.351	-0.785	-1.065
-60.319	121.117	0.232	0.285
-59.305	-200.000	-0.210	-1.034
-58.290	358.811	0.588	1.159
-57.276	800.000	0.620	1.932
-56.261	-200.000	97.373	589.267
-55.246	565.432	1382.220	3304.809
-54.232	154.270	2582.662	3494.680
-53.217	116.453	2157.932	2608.669
-52.203	46.656	1614.852	1478.343
-51.188	38.303	1351.782	1187.023
-50.173	34.879	1310.094	1130.177
-49.159	58.125	1359.198	1312.817
-48.144	62.493	1377.170	1356.302
-47.130	38.584	1331.044	1170.307
-46.115	34.818	1313.609	1132.666
-45.100	34.567	1309.040	1127.205
-44.086	34.602	1305.978	1124.727
-43.071	34.709	1303.884	1123.511
-42.057	34.559	1301.948	1120.912
-41.042	34.678	1299.839	1119.751
-40.027	34.659	1298.695	1118.613
-39.013	34.678	1296.770	1117.019
-37.998	34.657	1294.803	1115.161
-36.984	34.601	1293.876	1113.986
-35.969	34.751	1291.466	1112.743
-34.954	34.832	1289.457	1111.438
-33.940	34.914	1288.285	1110.864
-32.925	34.883	1287.111	1109.626
-31.911	34.917	1285.608	1108.484
-30.896	34.811	1284.302	1106.701
-29.881	34.862	1283.024	1105.849
-28.867	34.874	1281.740	1104.766
-27.852	34.930	1279.879	1103.441
-26.838	34.869	1278.919	1102.218
-25.823	35.046	1277.048	1101.581
-24.809	34.800	1276.385	1099.551
-23.794	34.859	1274.383	1098.120
-22.779	34.854	1273.431	1097.229
-21.765	34.773	1272.453	1095.875
-20.750	34.802	1270.827	1094.603
-19.736	34.646	1270.216	1093.137
-18.721	34.671	1268.516	1091.774
-17.706	34.627	1267.628	1090.714
-16.692	34.700	1266.076	1089.752
-15.677	34.736	1264.756	1088.777
-14.663	34.615	1264.189	1087.557
-13.648	34.589	1263.044	1086.382
-12.633	34.713	1261.776	1085.954
-11.619	34.676	1261.474	1085.440
-10.604	34.771	1260.002	1084.670
-9.590	34.652	1259.461	1083.483
-8.575	34.588	1258.702	1082.427
-7.560	34.649	1257.775	1081.934
-6.546	34.727	1256.748	1081.445
-5.531	34.668	1255.768	1080.228
-4.517	34.673	1255.159	1079.686
-3.502	34.649	1254.227	1078.706
-2.487	34.615	1253.208	1077.597
-1.473	34.613	1249.386	1074.256
-0.458	33.175	1234.135	1053.098
0.556	29.893	1216.036	1014.839
1.571	26.220	1221.189	998.780
2.586	25.325	1236.648	1006.316
3.600	24.486	1225.771	992.719
4.615	17.993	1151.398	898.370
5.629	6.959	1073.268	782.965
6.644	2.125	1051.472	743.504
7.659	1.816	1048.554	739.870
8.673	1.640	1047.483	738.199
9.688	1.720	1045.877	737.387
10.702	2.291	1044.835	739.351
11.717	8.902	1054.593	778.373
12.731	19.229	1069.232	839.695
13.746	23.987	1075.080	867.472
14.761	24.816	1075.384	871.682
15.775	24.849	1074.906	871.381
16.790	24.521	1074.446	869.332
17.804	24.582	1073.962	869.159
18.819	24.687	1073.427	869.160
19.834	24.779	1072.995	869.181
20.848	24.796	1072.858	869.073
21.863	24.789	1071.861	868.155
22.877	24.711	1071.817	867.666
23.892	24.608	1070.931	866.373
24.907	24.837	1070.001	866.652
25.921	24.761	1069.045	865.437
26.936	24.721	1067.818	864.171
27.950	24.716	1065.850	862.477
28.965	24.499	1064.525	860.282
29.980	24.501	1062.893	858.898
30.994	24.803	1061.880	859.453
32.009	24.770	1060.502	858.105
33.023	24.623	1059.311	856.363
34.038	24.649	1058.962	856.129
35.053	24.801	1058.494	856.401
36.067	24.732	1057.460	855.161
37.082	24.810	1056.795	854.917
38.096	25.009	1056.198	855.311
39.111	25.106	1055.248	854.930
40.126	24.971	1053.990	853.190
41.140	24.545	1052.596	849.959
42.155	24.345	1050.808	847.489
43.169	24.402	1049.708	846.797
44.184	24.406	1049.097	846.249
45.199	24.300	1048.003	844.790
46.213	24.394	1046.918	844.284
47.228	24.634	1046.396	844.925
48.242	24.692	1045.411	844.331
49.257	24.688	1044.874	843.803
50.271	24.822	1044.547	844.097
51.286	24.884	1043.124	843.163
52.301	25.019	1042.185	842.963
53.315	24.716	1041.905	841.239
54.330	24.648	1040.817	839.965
55.344	24.769	1040.044	839.837
56.359	24.697	1039.096	838.655
57.374	24.572	1037.967	837.089
58.388	24.474	1037.590	836.248
59.403	24.432	1036.388	835.012
60.417	24.281	1035.610	833.606
61.432	24.453	1034.822	833.701
62.447	24.568	1033.946	833.455
63.461	24.523	1033.670	832.949
64.476	24.445	1032.411	831.501
65.490	24.366	1031.410	830.252
66.505	24.591	1030.477	830.474
67.520	24.555	1030.300	830.087
68.534	24.277	1029.285	827.906
69.549	24.038	1028.154	825.817
70.563	24.043	1027.144	824.954
71.578	24.016	1026.590	824.312
72.593	23.877	1025.593	822.796
73.607	23.963	1025.155	822.768
74.622	24.252	1024.957	823.872
75.636	24.458	1023.996	823.979
76.651	24.181	1023.002	821.829
77.666	24.144	1022.218	820.955
78.680	24.194	1021.828	820.797
79.695	24.245	1021.120	820.392
80.709	24.305	1020.458	820.063
81.724	24.271	1019.567	819.118
82.739	24.395	1018.824	819.018
83.753	24.902	1018.154	820.732
84.768	25.058	1017.402	820.770
85.782	25.209	1016.916	820.994
86.797	24.987	1015.908	819.092
87.812	24.958	1014.798	817.992
88.826	24.840	1014.144	816.854
89.841	24.956	1013.389	816.705
90.855	25.007	1012.409	816.075
91.870	25.046	1011.389	815.359
92.884	24.881	1010.225	813.597
93.899	24.851	1008.952	812.365
94.914	25.092	1008.761	813.233
95.928	24.977	1007.344	811.495
96.943	24.585	1006.199	808.726
97.957	24.359	1005.283	806.900
98.972	24.320	1003.700	805.380
99.987	24.521	1003.638	806.166
101.001	24.646	1003.081	806.214
102.016	24.639	1002.042	805.276
103.030	24.724	1000.636	804.457
104.045	24.568	1000.027	803.195
105.060	24.334	998.825	801.104
106.074	24.540	998.171	801.435
107.089	24.804	997.663	802.138
108.103	24.668	996.192	800.276
109.118	24.604	995.254	799.167
110.133	24.550	994.379	798.152
111.147	24.403	993.176	796.461
112.162	24.169	992.140	794.514
113.176	24.437	992.048	795.567
114.191	24.361	990.997	794.313
115.206	24.104	989.953	792.266
116.220	24.044	989.085	791.231
117.235	24.168	988.282	791.069
118.249	24.277	987.283	790.683
119.264	24.072	986.541	789.114
120.279	24.182	985.996	789.092
121.293	24.189	985.184	788.403
122.308	24.331	984.058	788.062
123.322	24.262	982.719	786.616
124.337	23.990	982.168	784.906
125.352	23.600	980.350	781.667
126.366	23.359	979.673	779.997
127.381	24.119	979.867	783.425
128.395	24.695	978.606	784.876
129.410	24.818	977.996	784.857
130.424	24.744	977.143	783.779
131.439	24.643	976.406	782.678
132.454	24.623	975.375	781.693
133.468	24.707	974.234	781.079
134.483	24.772	973.748	780.901
135.497	24.999	973.202	781.387
136.512	24.919	972.771	780.621
137.527	25.102	971.396	780.248
138.541	24.975	970.509	778.911
139.556	24.931	970.046	778.279
140.570	25.128	969.002	778.230
141.585	25.089	968.051	777.227
142.600	25.087	966.657	776.032
143.614	25.117	966.535	775.996
144.629	25.206	965.709	775.645
145.643	25.056	964.082	773.623
146.658	25.058	962.510	772.301
147.673	24.817	961.772	770.606
148.687	24.960	960.874	770.432
149.702	24.692	960.009	768.517
150.716	24.687	959.029	767.645
151.731	24.877	958.596	768.048
152.746	25.179	957.725	768.574
153.760	25.268	956.707	768.069
154.775	25.380	956.348	768.195
155.789	25.137	956.193	766.960
156.804	25.256	954.811	766.294
157.819	25.149	954.423	765.458
158.833	25.278	953.708	765.366
159.848	25.424	952.195	764.708
160.862	25.051	951.456	762.458
161.877	25.064	950.676	761.820
162.892	25.168	949.499	761.252
163.906	25.131	948.317	760.080
164.921	25.182	947.899	759.894
165.935	25.041	947.069	758.565
166.950	25.124	945.900	757.912
167.964	25.080	945.149	757.059
168.979	24.995	944.071	755.770
169.994	24.997	943.008	754.859
171.008	25.222	942.597	755.411
172.023	25.193	941.554	754.388
173.037	24.934	940.535	752.416
174.052	24.916	939.620	751.540
175.067	24.902	939.202	751.081
176.081	24.929	938.671	750.704
177.096	24.942	938.374	750.454
178.110	24.558	936.768	747.497
179.125	24.371	936.741	746.625
180.140	24.593	935.575	746.558
181.154	24.746	935.402	746.992
182.169	24.979	935.483	747.966
183.183	25.303	934.702	748.628
184.198	25.169	933.524	747.057
185.213	25.090	933.071	746.301
186.227	25.069	932.941	746.044
187.242	25.298	931.712	745.947
188.256	25.192	931.452	745.231
189.271	25.236	930.537	744.616
190.286	24.930	929.324	742.309
191.300	24.356	927.796	738.650
192.315	23.540	926.225	733.959
193.329	23.447	925.824	733.191
194.344	24.418	926.736	737.867
195.359	24.985	926.331	739.822
196.373	25.030	925.991	739.671
197.388	24.895	925.101	738.337
198.402	24.970	924.387	738.012
199.417	25.003	923.757	737.576
200.432	24.798	922.794	735.902
201.446	24.746	921.803	734.833
202.461	24.702	921.653	734.468
203.475	23.747	920.125	729.265
204.490	22.941	918.521	724.624
205.504	23.948	919.015	729.079
206.519	24.678	918.816	731.849
207.534	24.636	918.272	731.175
208.548	25.058	917.870	732.518
209.563	24.687	917.630	730.745
210.577	24.745	916.796	730.253
211.592	25.248	916.249	731.804
212.607	25.159	915.343	730.654
213.621	25.082	914.942	729.958
214.636	25.172	913.885	729.416
215.650	25.116	913.213	728.586
216.665	25.157	912.958	728.483
217.680	25.217	911.401	727.419
218.694	24.699	910.634	724.645
219.709	24.637	910.124	723.925
220.723	24.941	909.801	724.832
221.738	25.113	909.073	724.885
222.753	25.022	908.433	723.942
223.767	25.098	908.107	723.925
224.782	25.276	907.865	724.388
225.796	25.173	907.227	723.397
226.811	24.749	905.233	720.039
227.826	24.092	904.515	716.758
228.840	24.284	903.807	716.909
229.855	24.231	903.058	716.036
230.869	24.038	902.057	714.406
231.884	24.293	902.549	715.754
232.899	25.117	902.565	719.012
233.913	25.011	901.459	717.643
234.928	25.037	900.944	717.271
235.942	24.946	900.307	716.337
236.957	24.546	899.472	714.011
237.972	24.723	898.868	714.176
238.986	24.667	898.579	713.659
240.001	24.624	897.993	712.960
241.015	24.830	897.102	713.011
242.030	25.026	896.569	713.304
243.045	24.945	896.884	713.169
244.059	25.202	895.766	713.239
245.074	24.912	895.001	711.414
246.088	24.705	893.794	709.572
247.103	24.872	893.742	710.128
248.117	25.416	893.868	712.323
249.132	25.702	893.690	713.254
250.147	25.842	892.556	712.837
251.161	25.970	892.173	712.977
252.176	25.916	891.515	712.171
253.190	25.969	891.229	712.090
254.205	26.120	890.494	712.035
255.220	25.941	890.510	711.281
256.234	25.820	889.676	710.075
257.249	25.798	888.735	709.172
258.263	25.828	887.904	708.565
259.278	25.853	887.326	708.140
260.293	25.880	886.763	707.733
261.307	25.848	885.983	706.924
262.322	25.706	885.236	705.707
263.336	24.890	883.312	700.918
264.351	23.991	880.929	695.452
265.366	24.076	881.270	695.993
266.380	25.074	881.879	700.316
267.395	25.489	881.578	701.634
268.409	25.385	881.024	700.725
269.424	25.682	880.351	701.286
270.439	25.799	879.830	701.263
271.453	25.846	879.058	700.769
272.468	25.979	878.929	701.124
273.482	26.008	878.397	700.747
274.497	25.637	876.968	698.106
275.512	25.266	876.219	696.010
276.526	25.726	876.202	697.717
277.541	25.764	876.183	697.789
278.555	25.613	875.022	696.218
279.570	25.361	874.542	694.799
280.585	25.610	873.849	695.150
281.599	25.589	873.294	694.567
282.614	24.863	872.260	690.882
283.628	25.050	871.393	690.855
284.643	25.382	870.860	691.649
285.657	24.921	870.145	689.247
286.672	24.726	869.057	687.573
287.687	25.314	869.300	689.964
288.701	25.306	868.810	689.486
289.716	24.861	868.024	687.090
290.730	24.926	866.830	686.334
291.745	24.577	866.476	684.658
292.760	24.939	866.359	685.891
293.774	25.890	866.857	689.866
294.789	26.238	866.422	690.792
295.803	26.144	865.842	689.909
296.818	26.307	865.388	690.107
297.833	25.934	863.481	687.103
298.847	25.735	863.314	686.151
299.862	25.963	863.222	686.888
300.876	26.249	862.858	687.624
301.891	26.139	862.066	686.517
302.906	25.709	861.005	683.976
303.920	26.013	860.197	684.426
304.935	26.380	860.403	685.923
305.949	26.203	859.585	684.539
306.964	26.055	858.953	683.415
307.979	26.022	858.733	683.056
308.993	26.358	858.545	684.117
310.008	26.324	857.795	683.328
311.022	26.029	857.281	681.746
312.037	25.933	856.649	680.820
313.052	25.745	855.499	679.137
314.066	24.810	854.131	674.467
315.081	24.637	852.742	672.660
316.095	25.359	853.240	675.711
317.110	25.962	853.297	677.962
318.125	25.078	851.774	673.375
319.139	23.959	850.375	668.010
320.154	24.086	849.940	668.084
321.168	24.841	850.274	671.120
322.183	25.700	850.241	674.255
323.197	25.878	850.110	674.760
324.212	26.022	849.981	675.135
325.227	26.042	849.604	674.853
326.241	25.979	848.412	673.609
327.256	25.803	847.494	672.163
328.270	25.754	847.033	671.558
329.285	25.670	846.023	670.385
330.300	25.241	845.455	668.275
331.314	25.676	845.301	669.714
332.329	26.072	845.001	670.889
333.343	26.245	844.436	671.026
334.358	26.089	844.236	670.227
335.373	26.138	844.148	670.281
336.387	26.452	844.027	671.293
337.402	26.678	843.798	671.887
338.416	26.456	843.585	670.834
339.431	26.521	842.920	670.489
340.446	26.850	842.454	671.277
341.460	26.516	842.283	669.844
342.475	26.496	841.353	668.970
343.489	26.530	840.757	668.562
344.504	26.690	841.190	669.439
345.519	27.006	840.765	670.210
346.533	26.974	840.317	669.674
347.548	27.079	839.510	669.360
348.562	26.915	839.075	668.349
349.577	26.821	838.212	667.259
350.592	26.785	838.082	666.962
351.606	26.695	837.463	666.080
352.621	26.722	836.220	665.132
353.635	26.672	835.434	664.265
354.650	25.933	834.046	660.395
355.665	25.051	832.384	655.797
356.679	25.483	832.367	657.303
357.694	25.861	832.495	658.731
358.708	25.873	831.276	657.752
359.723	26.201	831.191	658.823
360.738	26.584	830.602	659.692
361.752	26.571	830.327	659.369
362.767	27.010	830.389	660.958
363.781	27.114	829.939	660.919
364.796	27.326	829.630	661.384
365.810	27.439	828.773	661.052
366.825	27.281	828.755	660.406
367.840	27.121	827.682	658.914
368.854	26.484	827.029	656.025
369.869	26.514	826.830	655.919
370.883	26.559	826.450	655.724
371.898	26.494	825.959	655.040
372.913	26.743	825.367	655.415
373.927	26.815	824.714	655.097
374.942	26.922	824.817	655.507
375.956	26.967	824.344	655.237
376.971	27.188	823.656	655.428
377.986	27.270	823.412	655.473
379.000	27.283	822.993	655.128
380.015	26.977	822.380	653.478
381.029	27.210	821.400	653.481
382.044	27.310	821.231	653.648
383.059	27.372	820.411	653.159
384.073	27.276	820.092	652.505
385.088	27.378	819.267	652.156
386.102	27.200	818.676	650.989
387.117	26.982	818.244	649.808
388.132	26.748	816.563	647.580
389.146	26.338	815.968	645.587
390.161	26.596	816.106	646.558
391.175	27.005	815.978	647.860
392.190	26.632	814.931	645.643
393.205	25.235	812.941	639.037
394.219	23.664	810.923	631.809
395.234	23.657	810.810	631.639
396.248	25.327	812.435	638.798
397.263	26.724	813.221	644.329
398.278	26.817	812.625	644.129
399.292	26.509	811.833	642.354
400.307	26.599	811.263	642.163
401.321	26.732	811.151	642.490
402.336	27.134	810.813	643.590
403.350	27.514	810.964	644.998
404.365	27.823	810.527	645.687
405.380	27.932	810.300	645.833
406.394	28.063	809.592	645.676
407.409	27.918	809.059	644.683
408.423	27.698	809.250	644.000
409.438	28.030	808.585	644.586
410.453	28.097	807.800	644.140
411.467	27.781	807.757	642.934
412.482	27.890	807.240	642.848
413.496	28.106	806.627	643.064
414.511	28.100	806.157	642.610
415.526	27.937	806.129	641.959
416.540	27.807	805.687	641.095
417.555	27.548	804.906	639.508
418.569	27.731	804.466	639.740
419.584	27.640	803.458	638.565
420.599	27.538	803.086	637.857
421.613	108.998	1281.330	1446.633
422.628	94.074	1350.988	1446.748
