DTS Sentinel unit serial number:	SN413079Multiplexer serial number:	ORYXHardware model number:	OX4-SRSoftware version number:	ORYX F/W v4.00 Oryx Data Collector v3.7.2.0data status	okinstallation	princeton_trtdifferential loss correction	single-endedforward channel	channel 1reverse channel	N/Adate	2019/09/17time	09:58:35forward acquisition time	60.00reverse acquisition time	0.00gamma	496.2192k internal	0.2323k external	0.2323temperature offset calibration	0.9958default loss term (dB/km)	0.3790temperature slope calibration	1.0000multiplexer offset coefficient	1.0000multiplexer slope coefficient	1.0000fibre end	0.00T internal ref (°C)	29.58T ext. ref 1 (°C)	0.17T ext. ref 2 (°C)	25.28length (m)	temperature (°C)	Stokes	anti-Stokes-747.200	-200.000	0.020	0.461
-746.185	578.724	0.060	0.149
-745.171	-99.696	-0.271	-0.069
-744.156	-35.272	-0.093	0.051
-743.142	411.351	0.165	0.353
-742.127	-175.490	0.023	0.001
-741.112	800.000	0.070	0.257
-740.098	-110.751	-0.302	0.063
-739.083	-57.220	0.219	0.097
-738.069	-70.199	-0.272	-0.104
-737.054	403.751	0.092	-0.196
-736.039	800.000	0.022	0.087
-735.025	-200.000	0.020	-0.182
-734.010	122.011	-0.150	0.189
-732.996	34.461	-0.238	0.210
-731.981	-112.335	-0.313	-0.063
-730.966	-67.409	-0.110	-0.044
-729.952	-85.501	-0.241	-0.076
-728.937	-62.215	-0.191	-0.080
-727.923	-186.739	0.196	-0.003
-726.908	-200.000	0.007	0.155
-725.894	25.116	-0.108	0.090
-724.879	618.725	0.211	-0.535
-723.864	413.909	-0.133	-0.286
-722.850	-27.072	-0.455	-0.268
-721.835	400.587	0.048	-0.101
-720.821	601.641	0.070	-0.175
-719.806	42.216	-0.224	0.205
-718.791	-110.540	0.228	0.048
-717.777	46.861	0.310	0.290
-716.762	800.000	0.067	-0.199
-715.748	37.231	-0.190	0.169
-714.733	-200.000	0.004	0.156
-713.718	-200.000	-0.017	-0.162
-712.704	-177.182	0.252	-0.006
-711.689	-0.330	-0.042	-0.030
-710.675	-200.000	-0.008	-0.512
-709.660	49.865	-0.013	0.012
-708.645	-200.000	-0.045	0.223
-707.631	-200.000	-0.016	0.079
-706.616	-74.950	0.167	-0.061
-705.602	-51.569	0.154	-0.073
-704.587	-176.028	0.315	-0.008
-703.572	150.482	-0.276	0.378
-702.558	-200.000	0.002	0.046
-701.543	-62.621	0.064	0.027
-700.529	231.283	-0.072	0.119
-699.514	-200.000	0.006	-0.075
-698.499	-103.310	0.116	0.028
-697.485	142.353	0.130	-0.174
-696.470	-200.000	-0.012	0.091
-695.456	-4.221	-0.132	0.092
-694.441	-200.000	-0.010	-0.052
-693.426	314.035	-0.145	-0.276
-692.412	800.000	0.076	-0.265
-691.397	-45.983	-0.193	-0.096
-690.383	-13.452	0.139	0.091
-689.368	40.373	-0.039	0.035
-688.354	439.213	0.128	-0.282
-687.339	-200.000	0.025	0.212
-686.324	-0.031	0.133	-0.096
-685.310	-54.258	0.145	-0.066
-684.295	-57.836	0.117	0.052
-683.281	65.386	-0.154	0.157
-682.266	-200.000	-0.032	0.188
-681.251	-4.517	0.225	-0.157
-680.237	-200.000	-0.034	0.156
-679.222	302.808	-0.052	0.097
-678.208	155.132	-0.140	0.194
-677.193	249.011	-0.195	-0.332
-676.178	-86.376	-0.042	-0.013
-675.164	-200.000	0.021	-0.185
-674.149	-134.947	0.110	0.013
-673.135	800.000	-0.035	-0.134
-672.120	-200.000	-0.041	-0.181
-671.105	-152.974	-0.195	0.014
-670.091	-71.034	-0.146	-0.055
-669.076	800.000	-0.078	-0.241
-668.062	-7.755	-0.182	0.124
-667.047	-104.393	-0.276	-0.064
-666.032	662.880	-0.084	0.218
-665.018	387.139	0.073	-0.152
-664.003	-58.238	-0.446	-0.195
-662.989	800.000	0.149	0.422
-661.974	655.932	-0.088	0.226
-660.959	66.751	-0.170	0.174
-659.945	800.000	-0.066	-0.224
-658.930	800.000	-0.086	0.353
-657.916	-116.669	-0.183	-0.034
-656.901	-200.000	0.030	-0.256
-655.886	-61.895	0.317	-0.134
-654.872	-113.683	0.297	-0.058
-653.857	-8.450	-0.175	0.118
-652.843	13.333	-0.354	-0.276
-651.828	800.000	0.118	-0.340
-650.814	-200.000	-0.033	-0.237
-649.799	800.000	0.079	-0.225
-648.784	-99.343	-0.137	0.035
-647.770	102.955	0.105	0.123
-646.755	246.283	0.101	0.171
-645.741	-59.294	-0.297	0.129
-644.726	-200.000	0.002	0.220
-643.711	-200.000	0.022	-0.316
-642.697	800.000	0.054	-0.186
-641.682	-200.000	-0.105	0.511
-640.668	119.582	0.057	0.071
-639.653	-34.254	0.354	-0.195
-638.638	375.907	-0.094	0.192
-637.624	-19.179	0.117	0.073
-636.609	800.000	-0.068	0.199
-635.595	-97.135	0.207	-0.054
-634.580	138.878	0.206	0.272
-633.565	106.615	0.020	-0.024
-632.551	56.066	0.284	0.277
-631.536	-77.857	0.069	0.024
-630.522	-145.154	-0.419	0.038
-629.507	35.659	0.124	0.109
-628.492	-132.525	-0.065	0.008
-627.478	164.521	0.049	0.069
-626.463	232.711	0.073	-0.121
-625.449	800.000	-0.060	-0.239
-624.434	53.633	0.192	-0.186
-623.419	-167.546	-0.202	-0.008
-622.405	-60.849	-0.254	-0.108
-621.390	-74.095	0.305	0.111
-620.376	-84.378	-0.517	-0.164
-619.361	50.937	0.113	-0.108
-618.346	-123.843	-0.222	-0.035
-617.332	25.488	-0.166	-0.139
-616.317	264.939	-0.056	-0.098
-615.303	197.044	0.136	-0.209
-614.288	-62.197	-0.187	0.078
-613.273	185.114	0.141	-0.210
-612.259	-200.000	-0.007	-0.125
-611.244	175.030	-0.144	0.210
-610.230	800.000	0.011	0.033
-609.215	-32.915	0.552	-0.308
-608.201	-122.633	-0.232	0.038
-607.186	-9.735	0.158	0.105
-606.171	-101.434	-0.085	0.021
-605.157	-88.928	0.221	-0.066
-604.142	71.265	0.136	-0.141
-603.128	70.299	-0.192	-0.199
-602.113	111.476	0.057	-0.069
-601.098	800.000	-0.011	0.044
-600.084	-84.323	-0.236	-0.075
-599.069	55.981	-0.107	0.104
-598.055	-141.726	-0.210	-0.021
-597.040	-200.000	-0.059	0.329
-596.025	-200.000	-0.061	-0.387
-595.011	-173.012	-0.079	0.002
-593.996	-144.745	-0.197	0.018
-592.982	-104.994	-0.184	0.042
-591.967	60.848	-0.170	0.169
-590.952	-200.000	0.010	-0.311
-589.938	-144.821	-0.309	0.028
-588.923	99.521	0.130	0.151
-587.909	-74.954	-0.229	-0.082
-586.894	-55.865	-0.269	0.121
-585.879	148.278	-0.042	0.057
-584.865	-133.984	0.353	0.044
-583.850	-200.000	-0.018	-0.244
-582.836	-56.137	0.124	-0.055
-581.821	18.407	-0.106	0.085
-580.806	59.164	-0.113	-0.112
-579.792	-118.723	-0.035	0.006
-578.777	-153.700	-0.395	0.027
-577.763	-200.000	0.055	0.272
-576.748	-200.000	-0.025	-0.285
-575.733	105.375	0.272	-0.323
-574.719	98.699	-0.086	-0.100
-573.704	158.897	-0.026	0.037
-572.690	-109.253	0.139	0.030
-571.675	-200.000	-0.023	-0.211
-570.661	-112.189	0.196	0.039
-569.646	496.012	0.031	-0.072
-568.631	-15.140	-0.178	-0.114
-567.617	265.571	-0.127	0.222
-566.602	800.000	-0.172	0.534
-565.588	96.852	0.166	0.191
-564.573	-200.000	0.010	-0.388
-563.558	-200.000	-0.162	-0.000
-562.544	148.984	0.076	-0.103
-561.529	-200.000	0.002	0.055
-560.515	400.349	0.179	-0.376
-559.500	131.494	-0.217	-0.279
-558.485	88.850	-0.426	-0.475
-557.471	189.984	-0.072	0.108
-556.456	-200.000	0.085	0.423
-555.442	-128.372	-0.125	0.018
-554.427	-200.000	-0.017	0.192
-553.412	-74.615	0.153	-0.055
-552.398	-85.647	-0.076	0.024
-551.383	-21.243	-0.086	-0.053
-550.369	93.909	-0.186	0.211
-549.354	162.738	0.076	-0.106
-548.339	800.000	0.091	-0.327
-547.325	259.133	0.026	0.044
-546.310	800.000	0.006	0.021
-545.296	-39.492	0.240	-0.126
-544.281	357.887	-0.215	-0.430
-543.266	138.241	0.027	0.035
-542.252	-162.456	-0.220	-0.011
-541.237	-47.871	-0.169	-0.082
-540.223	229.282	-0.074	-0.121
-539.208	-117.877	0.177	-0.032
-538.193	418.381	0.054	-0.116
-537.179	242.616	0.050	-0.084
-536.164	-50.423	0.189	0.089
-535.150	-71.902	-0.189	-0.070
-534.135	-200.000	0.049	0.289
-533.121	502.339	-0.039	0.090
-532.106	-25.996	0.091	0.053
-531.091	-200.000	0.015	-0.318
-530.077	-41.621	-0.194	-0.100
-529.062	110.086	0.390	-0.469
-528.048	800.000	-0.084	0.300
-527.033	-14.506	-0.187	0.120
-526.018	-200.000	-0.002	0.243
-525.004	-64.016	0.108	-0.044
-523.989	-64.928	-0.100	-0.040
-522.975	119.098	-0.191	-0.237
-521.960	-125.838	0.199	-0.030
-520.945	64.144	0.371	-0.374
-519.931	181.171	-0.148	0.218
-518.916	800.000	-0.091	0.345
-517.902	52.535	-0.186	0.178
-516.887	-200.000	-0.001	-0.030
-515.872	-200.000	0.027	-0.192
-514.858	-119.390	-0.174	0.030
-513.843	-74.605	0.088	-0.032
-512.829	223.525	-0.055	0.089
-511.814	45.072	0.326	0.301
-510.799	203.729	0.176	0.273
-509.785	-100.657	-0.177	-0.044
-508.770	-30.402	-0.082	-0.047
-507.756	-107.583	0.157	-0.034
-506.741	304.146	-0.164	0.305
-505.726	717.490	-0.041	-0.108
-504.712	424.130	0.088	-0.189
-503.697	-200.000	-0.020	0.515
-502.683	-200.000	0.027	0.119
-501.668	-200.000	-0.027	-0.339
-500.653	40.463	-0.194	-0.175
-499.639	111.145	0.119	0.144
-498.624	-106.902	-0.195	0.043
-497.610	98.198	0.212	0.244
-496.595	-200.000	0.007	0.249
-495.581	-200.000	0.008	0.248
-494.566	800.000	0.025	-0.093
-493.551	-200.000	-0.017	-0.221
-492.537	-188.305	-0.349	-0.004
-491.522	-117.346	0.222	-0.040
-490.508	-200.000	0.008	0.076
-489.493	-120.423	-0.226	0.038
-488.478	800.000	0.008	-0.030
-487.464	120.197	-0.254	0.315
-486.449	97.535	0.180	0.206
-485.435	100.750	-0.228	-0.265
-484.420	54.298	-0.237	0.228
-483.405	800.000	-0.036	0.124
-482.391	684.824	-0.225	-0.586
-481.376	-47.673	-0.078	-0.038
-480.362	800.000	-0.064	-0.272
-479.347	-200.000	-0.013	0.062
-478.332	-21.359	-0.138	-0.084
-477.318	40.415	0.182	-0.164
-476.303	2.513	-0.162	0.117
-475.289	-143.812	-0.252	0.024
-474.274	-122.501	-0.352	0.057
-473.259	220.672	0.200	-0.320
-472.245	358.668	-0.115	-0.229
-471.230	-79.168	0.107	0.036
-470.216	63.464	-0.055	0.055
-469.201	-59.852	-0.147	-0.063
-468.186	-200.000	0.005	0.188
-467.172	-199.018	-0.149	0.001
-466.157	115.865	0.147	-0.180
-465.143	-88.665	0.128	0.038
-464.128	-66.085	-0.347	0.138
-463.113	187.122	0.101	0.150
-462.099	-77.487	0.295	0.102
-461.084	-200.000	0.033	0.339
-460.070	13.574	0.023	0.018
-459.055	27.497	0.109	0.092
-458.040	-87.803	0.203	0.061
-457.026	-15.729	0.051	-0.033
-456.011	7.533	0.169	-0.126
-454.997	-25.914	-0.247	0.145
-453.982	128.567	0.120	0.153
-452.968	-104.668	-0.247	-0.057
-451.953	800.000	0.163	0.465
-450.938	-166.182	0.237	-0.010
-449.924	800.000	-0.035	0.145
-448.909	-131.732	0.197	-0.026
-447.895	800.000	-0.060	-0.191
-446.880	86.275	-0.165	-0.181
-445.865	-22.404	0.294	0.177
-444.851	203.011	0.065	-0.101
-443.836	-8.230	0.324	-0.218
-442.822	-35.541	0.045	-0.024
-441.807	-200.000	-0.027	-0.260
-440.792	-200.000	0.013	0.073
-439.778	800.000	-0.058	-0.168
-438.763	-156.667	-0.035	-0.002
-437.749	-101.479	0.123	-0.030
-436.734	-118.853	0.116	0.020
-435.719	337.956	0.107	0.208
-434.705	78.904	0.176	0.188
-433.690	-57.699	0.280	0.122
-432.676	-101.600	0.201	-0.049
-431.661	-160.001	-0.299	-0.016
-430.646	800.000	-0.097	-0.364
-429.632	-38.019	0.308	-0.163
-428.617	-116.623	0.140	0.026
-427.603	173.694	-0.122	-0.176
-426.588	-49.051	0.291	-0.139
-425.573	211.040	-0.205	-0.322
-424.559	25.847	0.115	0.095
-423.544	120.734	0.028	0.034
-422.530	73.860	0.226	0.237
-421.515	-200.000	0.016	-0.232
-420.500	-30.771	0.042	-0.024
-419.486	473.812	-0.159	0.357
-418.471	-133.131	-0.409	0.052
-417.457	-200.000	-0.016	-0.106
-416.442	-74.354	-0.313	0.113
-415.428	800.000	0.053	0.212
-414.413	18.490	-0.146	0.116
-413.398	-32.608	0.012	0.007
-412.384	3.655	0.143	-0.104
-411.369	800.000	0.103	-0.304
-410.355	-200.000	0.082	-0.373
-409.340	15.428	-0.053	0.041
-408.325	85.359	0.167	-0.182
-407.311	701.769	-0.083	-0.218
-406.296	-200.000	-0.253	0.001
-405.282	-200.000	-0.198	0.000
-404.267	-7.118	0.078	-0.052
-403.252	181.836	0.090	0.132
-402.238	-61.555	0.145	-0.061
-401.223	8.683	-0.385	-0.289
-400.209	-110.623	0.102	-0.021
-399.194	-89.062	0.220	0.065
-398.179	698.897	-0.041	0.108
-397.165	-49.810	0.111	0.052
-396.150	134.899	0.087	0.112
-395.136	-200.000	-0.068	0.299
-394.121	98.000	-0.073	0.084
-393.106	-56.596	-0.279	0.123
-392.092	-200.000	-0.072	-0.343
-391.077	800.000	-0.038	-0.122
-390.063	-26.203	0.180	0.105
-389.048	-200.000	0.083	-0.476
-388.033	-128.011	0.042	-0.006
-387.019	-31.533	-0.100	0.056
-386.004	-117.369	0.241	0.044
-384.990	70.165	0.072	0.074
-383.975	-52.129	0.194	0.090
-382.960	-200.000	0.055	-0.318
-381.946	-200.000	0.022	0.206
-380.931	-200.000	0.002	0.052
-379.917	144.666	-0.074	0.099
-378.902	-53.654	-0.245	-0.111
-377.888	-52.684	-0.223	-0.102
-376.873	800.000	0.066	-0.181
-375.858	800.000	0.098	0.323
-374.844	163.601	-0.131	0.184
-373.829	41.081	-0.343	-0.308
-372.815	-112.074	0.404	0.081
-371.800	61.971	0.080	-0.080
-370.785	-115.856	0.413	0.077
-369.771	-119.535	-0.152	-0.026
-368.756	-135.736	-0.077	-0.009
-367.742	800.000	-0.058	-0.160
-366.727	-140.375	0.030	-0.003
-365.712	800.000	0.069	0.292
-364.698	-92.957	0.191	-0.053
-363.683	-200.000	0.044	-0.235
-362.669	93.191	0.168	0.189
-361.654	-158.152	0.042	0.002
-360.639	-70.868	0.187	0.070
-359.625	242.365	-0.159	0.264
-358.610	10.899	-0.072	0.055
-357.596	-200.000	0.081	-0.370
-356.581	-0.794	-0.040	0.028
-355.566	-150.631	-0.468	0.036
-354.552	-137.586	0.220	-0.025
-353.537	-1.767	-0.169	-0.118
-352.523	-200.000	-0.029	0.216
-351.508	-93.498	0.115	0.032
-350.493	86.651	-0.176	-0.194
-349.479	-200.000	-0.055	-0.271
-348.464	-73.725	0.286	-0.103
-347.450	800.000	0.082	-0.267
-346.435	756.103	0.116	0.312
-345.420	333.271	0.086	-0.165
-344.406	-180.571	0.172	-0.004
-343.391	-68.046	0.279	0.108
-342.377	-200.000	-0.024	0.413
-341.362	-13.732	-0.189	0.121
-340.348	77.115	0.190	0.200
-339.333	-24.633	0.303	0.179
-338.318	765.925	0.070	-0.188
-337.304	-4.772	0.314	-0.215
-336.289	-123.695	-0.320	-0.050
-335.275	10.668	-0.217	-0.165
-334.260	219.030	-0.063	0.100
-333.245	210.875	-0.189	0.296
-332.231	-6.441	-0.103	-0.070
-331.216	121.634	0.217	0.268
-330.202	-123.293	-0.287	0.046
-329.187	-65.329	0.148	-0.059
-328.172	-87.523	0.046	-0.014
-327.158	332.574	-0.037	-0.072
-326.143	-114.732	0.158	-0.030
-325.129	800.000	-0.055	0.222
-324.114	-87.040	0.123	0.037
-323.099	-146.370	0.350	-0.030
-322.085	39.169	-0.269	0.239
-321.070	77.428	-0.299	0.316
-320.056	-200.000	-0.025	0.205
-319.041	-200.000	0.003	0.109
-318.026	-200.000	0.037	0.256
-317.012	209.892	-0.171	0.266
-315.997	77.500	-0.164	0.174
-314.983	101.683	-0.275	0.319
-313.968	692.749	0.077	-0.200
-312.953	-64.838	-0.250	0.100
-311.939	66.757	-0.075	-0.076
-310.924	-52.803	-0.175	0.080
-309.910	-77.142	-0.136	-0.047
-308.895	201.482	-0.166	-0.254
-307.880	-200.000	-0.015	-0.110
-306.866	235.339	0.100	0.164
-305.851	259.862	0.086	-0.148
-304.837	307.907	0.124	0.230
-303.822	207.902	0.100	0.155
-302.807	68.926	0.196	-0.199
-301.793	-200.000	0.011	-0.082
-300.778	-30.649	0.097	-0.055
-299.764	-71.999	-0.332	-0.122
-298.749	-200.000	-0.012	-0.069
-297.735	-200.000	-0.035	-0.198
-296.720	800.000	-0.106	0.290
-295.705	-94.979	0.199	0.053
-294.691	233.884	-0.250	0.408
-293.676	-64.515	0.292	0.118
-292.662	-200.000	0.004	-0.117
-291.647	800.000	0.034	0.095
-290.632	-99.796	0.147	-0.036
-289.618	-52.202	-0.098	-0.045
-288.603	172.906	0.271	0.388
-287.589	800.000	-0.051	0.155
-286.574	261.948	-0.219	0.377
-285.559	-200.000	0.011	-0.288
-284.545	798.320	0.135	-0.368
-283.530	-46.206	0.242	-0.118
-282.516	-23.118	0.179	-0.107
-281.501	800.000	-0.025	-0.069
-280.486	800.000	0.075	0.289
-279.472	-49.024	0.088	-0.042
-278.457	22.114	0.103	-0.083
-277.443	11.825	-0.114	-0.087
-276.428	149.680	0.065	0.088
-275.413	-12.561	0.131	-0.085
-274.399	159.168	-0.141	-0.194
-273.384	800.000	-0.052	0.188
-272.370	209.020	-0.212	0.330
-271.355	-200.000	0.066	-0.349
-270.340	-0.045	-0.222	-0.157
-269.326	-73.358	0.309	0.112
-268.311	-19.076	0.262	0.162
-267.297	149.016	0.052	0.069
-266.282	-126.085	-0.206	0.031
-265.267	-200.000	-0.029	-0.188
-264.253	57.397	-0.145	-0.140
-263.238	800.000	0.025	0.077
-262.224	-0.679	0.286	-0.201
-261.209	800.000	-0.059	-0.184
-260.195	-108.227	0.309	0.066
-259.180	-84.024	-0.229	-0.072
-258.165	800.000	-0.037	0.134
-257.151	-46.061	-0.138	0.067
-256.136	800.000	-0.033	-0.140
-255.122	592.781	0.117	-0.287
-254.107	27.069	-0.171	-0.142
-253.092	-200.000	0.003	-0.140
-252.078	-200.000	0.014	-0.205
-251.063	800.000	0.029	0.119
-250.049	-171.977	-0.302	0.010
-249.034	371.621	-0.095	0.191
-248.019	-200.000	0.070	-0.371
-247.005	22.952	0.065	-0.053
-245.990	-88.496	0.150	-0.044
-244.976	39.126	-0.285	-0.253
-243.961	24.821	-0.222	0.182
-242.946	706.505	-0.107	0.281
-241.932	138.119	0.110	-0.143
-240.917	145.349	0.013	-0.018
-239.903	-200.000	0.032	-0.229
-238.888	-124.264	0.168	-0.026
-237.873	-35.737	0.127	-0.068
-236.859	-156.451	0.429	0.026
-235.844	-200.000	-0.043	0.288
-234.830	-22.580	0.455	0.272
-233.815	-83.143	-0.294	0.094
-232.800	-200.000	0.059	-0.262
-231.786	-117.498	0.131	0.023
-230.771	-200.000	-0.020	0.086
-229.757	-22.855	-0.098	-0.058
-228.742	-97.716	0.258	0.066
-227.727	-93.706	-0.448	-0.122
-226.713	133.068	0.084	0.107
-225.698	800.000	-0.090	-0.266
-224.684	-200.000	-0.018	0.230
-223.669	-153.321	-0.232	-0.016
-222.655	-53.570	-0.225	-0.102
-221.640	-1.380	-0.085	0.059
-220.625	21.858	-0.109	-0.088
-219.611	53.187	-0.160	-0.151
-218.596	666.026	0.096	0.245
-217.582	800.000	-0.054	0.219
-216.567	-102.655	0.113	-0.027
-215.552	38.288	-0.134	-0.118
-214.538	54.313	0.127	-0.121
-213.523	-156.186	-0.247	-0.015
-212.509	91.200	0.129	0.143
-211.494	-200.000	-0.011	0.492
-210.479	-98.802	-0.154	0.039
-209.465	-200.000	-0.024	-0.217
-208.450	41.602	0.167	0.149
-207.436	-21.987	0.087	0.052
-206.421	-48.005	0.075	-0.036
-205.406	379.924	0.077	-0.156
-204.392	16.282	-0.077	-0.060
-203.377	800.000	-0.039	-0.162
-202.363	519.222	0.030	-0.070
-201.348	800.000	-0.010	-0.034
-200.333	-200.000	0.047	-0.205
-199.319	-0.289	-0.192	-0.135
-198.304	744.784	0.087	0.230
-197.290	343.354	0.078	0.152
-196.275	-43.490	-0.153	0.077
-195.260	165.404	0.156	-0.218
-194.246	230.514	-0.082	0.132
-193.231	104.188	-0.222	0.258
-192.217	-16.194	0.318	0.200
-191.202	-48.319	-0.066	-0.031
-190.187	576.655	0.060	-0.146
-189.173	-11.224	0.101	0.066
-188.158	125.614	0.135	0.168
-187.144	-200.000	-0.072	0.322
-186.129	-81.071	-0.210	-0.069
-185.114	414.661	0.081	-0.170
-184.100	-113.541	0.229	-0.044
-183.085	109.681	0.183	0.216
-182.071	-112.445	0.059	0.012
-181.056	-99.285	-0.244	0.061
-180.042	-200.000	-0.004	0.574
-179.027	-52.175	0.230	-0.105
-178.012	30.798	-0.032	-0.027
-176.998	-200.000	0.076	-0.526
-175.983	-200.000	0.017	0.276
-174.969	18.708	0.202	-0.160
-173.954	-64.449	0.053	-0.021
-172.939	333.937	0.100	-0.191
-171.925	-173.248	0.243	0.007
-170.910	-200.000	-0.029	0.239
-169.896	52.395	0.286	0.269
-168.881	-128.779	0.164	-0.023
-167.866	-108.279	0.217	-0.046
-166.852	199.415	0.181	-0.275
-165.837	133.088	-0.223	-0.284
-164.823	86.497	0.203	-0.220
-163.808	-200.000	0.053	-0.241
-162.793	-95.351	-0.257	0.068
-161.779	188.786	-0.061	0.090
-160.764	62.672	0.107	0.106
-159.750	203.260	0.028	-0.042
-158.735	-200.000	-0.017	0.218
-157.720	-113.142	0.252	0.049
-156.706	-75.928	-0.204	-0.071
-155.691	800.000	-0.107	0.320
-154.677	-92.834	0.131	-0.036
-153.662	-125.262	-0.224	0.034
-152.647	-65.627	0.191	0.075
-151.633	-200.000	-0.002	-0.207
-150.618	-200.000	-0.007	-0.172
-149.604	800.000	-0.018	0.055
-148.589	-200.000	0.044	0.418
-147.574	6.225	-0.212	-0.155
-146.560	438.923	-0.128	-0.275
-145.545	-62.021	0.339	-0.140
-144.531	-200.000	-0.032	0.308
-143.516	35.203	-0.180	-0.156
-142.502	319.104	-0.108	-0.201
-141.487	-200.000	0.034	0.259
-140.472	288.090	-0.027	-0.047
-139.458	209.788	-0.128	-0.198
-138.443	43.003	-0.112	0.100
-137.429	-93.899	0.192	0.052
-136.414	-200.000	-0.017	0.136
-135.399	32.738	-0.232	-0.198
-134.385	-109.066	0.308	0.065
-133.370	265.922	-0.023	-0.039
-132.356	-69.109	0.044	-0.017
-131.341	800.000	-0.031	-0.111
-130.326	99.654	-0.068	-0.077
-129.312	117.284	-0.193	0.233
-128.297	-200.000	0.067	0.391
-127.283	-108.543	0.374	-0.079
-126.268	-200.000	0.012	0.240
-125.253	32.459	-0.152	0.130
-124.239	142.981	0.255	0.334
-123.224	524.116	0.010	0.023
-122.210	38.929	0.154	0.135
-121.195	-200.000	0.012	-0.444
-120.180	542.100	0.049	0.114
-119.166	726.238	-0.116	-0.306
-118.151	800.000	0.076	-0.248
-117.137	187.989	-0.055	0.081
-116.122	-111.195	-0.363	-0.073
-115.107	-200.000	0.036	-0.255
-114.093	-200.000	0.054	0.388
-113.078	95.002	-0.140	-0.157
-112.064	-50.910	-0.064	-0.029
-111.049	424.640	0.071	0.150
-110.034	667.383	-0.169	0.429
-109.020	-155.480	-0.313	0.020
-108.005	-200.000	0.048	0.284
-106.991	195.216	0.041	-0.062
-105.976	489.719	-0.126	-0.284
-104.962	-90.731	-0.081	-0.023
-103.947	181.399	0.109	-0.158
-102.932	6.613	0.031	-0.023
-101.918	-17.365	0.068	-0.042
-100.903	-33.544	-0.359	0.195
-99.889	-200.000	0.006	-0.030
-98.874	261.236	0.109	-0.185
-97.859	-129.788	0.117	0.016
-96.845	-200.000	-0.005	-0.078
-95.830	60.074	0.112	-0.109
-94.816	129.074	0.012	-0.015
-93.801	-26.346	0.245	0.141
-92.786	-189.203	0.397	0.005
-91.772	800.000	0.038	-0.115
-90.757	-131.531	0.277	0.036
-89.743	800.000	0.094	-0.402
-88.728	310.479	-0.141	-0.259
-87.713	225.718	-0.031	-0.050
-86.699	206.723	0.073	0.113
-85.684	-200.000	-0.020	-0.096
-84.670	66.123	0.100	-0.100
-83.655	-200.000	0.019	-0.316
-82.640	800.000	-0.055	0.214
-81.626	-200.000	0.013	0.185
-80.611	-200.000	0.032	0.278
-79.597	-97.858	-0.272	0.069
-78.582	345.633	-0.084	0.161
-77.567	-200.000	-0.016	-0.099
-76.553	800.000	-0.045	0.173
-75.538	-1.427	0.097	-0.067
-74.524	706.222	0.102	0.264
-73.509	-55.871	0.297	0.130
-72.494	751.740	-0.128	0.341
-71.480	45.541	0.117	-0.106
-70.465	-200.000	-0.046	-0.269
-69.451	99.138	-0.224	-0.254
-68.436	-200.000	-0.026	0.249
-67.422	-88.201	0.176	0.052
-66.407	49.142	-0.104	0.096
-65.392	-184.646	0.201	0.003
-64.378	800.000	-0.039	0.133
-63.363	178.925	-0.013	0.019
-62.349	-74.270	0.363	-0.129
-61.334	143.304	-0.794	-1.039
-60.319	98.582	0.452	0.512
-59.305	611.227	-0.404	-0.994
-58.290	-30.769	1.112	0.618
-57.276	800.000	0.539	1.484
-56.261	-200.000	105.123	568.616
-55.246	447.536	1463.597	3166.238
-54.232	147.562	2655.384	3515.770
-53.217	106.175	2168.795	2524.676
-52.203	41.066	1612.054	1430.959
-51.188	33.033	1347.633	1147.649
-50.173	29.920	1306.338	1094.068
-49.159	53.580	1358.387	1280.820
-48.144	53.618	1374.667	1296.346
-47.130	33.190	1330.103	1133.481
-46.115	29.737	1312.626	1098.075
-45.100	29.551	1307.843	1092.927
-44.086	29.531	1305.372	1090.701
-43.071	29.448	1302.815	1088.035
-42.057	29.430	1300.619	1086.048
-41.042	29.418	1299.257	1084.801
-40.027	29.519	1297.199	1083.635
-39.013	29.426	1295.940	1081.994
-37.998	29.531	1293.499	1080.525
-36.984	29.544	1291.906	1079.228
-35.969	29.657	1290.390	1078.578
-34.954	29.580	1288.423	1076.445
-33.940	29.711	1287.120	1076.072
-32.925	29.714	1285.966	1075.084
-31.911	29.646	1284.412	1073.344
-30.896	29.657	1282.819	1072.037
-29.881	29.691	1281.815	1071.353
-28.867	29.753	1280.612	1070.661
-27.852	29.735	1279.086	1069.243
-26.838	29.693	1277.663	1067.768
-25.823	29.656	1276.378	1066.435
-24.809	29.571	1275.125	1064.858
-23.794	29.666	1273.853	1064.299
-22.779	29.674	1272.488	1063.162
-21.765	29.726	1270.921	1062.110
-20.750	29.677	1269.738	1060.799
-19.736	29.557	1268.689	1059.194
-18.721	29.493	1267.692	1057.952
-17.706	29.575	1266.433	1057.327
-16.692	29.556	1265.234	1056.176
-15.677	29.565	1263.772	1054.962
-14.663	29.577	1262.601	1054.012
-13.648	29.559	1261.710	1053.127
-12.633	29.488	1260.735	1051.863
-11.619	29.383	1260.374	1050.927
-10.604	29.470	1259.359	1050.529
-9.590	29.445	1258.124	1049.318
-8.575	29.404	1257.482	1048.505
-7.560	29.448	1256.557	1047.946
-6.546	29.505	1255.325	1047.201
-5.531	29.544	1254.704	1046.859
-4.517	29.554	1253.561	1045.919
-3.502	29.499	1253.006	1045.104
-2.487	29.421	1252.284	1044.020
-1.473	29.603	1247.208	1040.771
-0.458	28.239	1233.048	1021.313
0.556	23.201	1216.236	985.189
1.571	19.441	1222.796	969.329
2.586	18.511	1237.558	975.653
3.600	18.337	1226.361	965.762
4.615	13.560	1152.761	882.334
5.629	4.738	1076.758	780.032
6.644	0.511	1057.001	744.821
7.659	0.087	1054.409	740.843
8.673	0.031	1053.564	739.907
9.688	0.062	1051.849	738.790
10.702	0.244	1050.770	738.859
11.717	5.644	1057.514	770.138
12.731	14.158	1068.735	820.393
13.746	17.422	1071.929	838.891
14.761	16.916	1071.069	835.648
15.775	15.924	1068.634	828.796
16.790	14.980	1066.656	822.548
17.804	14.336	1064.815	817.893
18.819	13.888	1063.801	814.849
19.834	13.537	1063.212	812.601
20.848	13.452	1062.196	811.339
21.863	13.149	1061.585	809.311
22.877	12.967	1060.665	807.652
23.892	12.804	1060.330	806.528
24.907	13.020	1059.114	806.585
25.921	13.012	1058.291	805.850
26.936	13.079	1057.528	805.522
27.950	13.100	1056.291	804.612
28.965	13.104	1055.538	803.988
29.980	13.295	1054.028	803.691
30.994	13.136	1053.744	802.632
32.009	13.238	1052.720	802.277
33.023	13.313	1051.284	801.476
34.038	13.243	1049.899	800.008
35.053	13.234	1049.553	799.631
36.067	13.078	1048.672	798.133
37.082	13.149	1047.995	797.890
38.096	13.228	1047.168	797.572
39.111	13.168	1046.425	796.648
40.126	13.045	1045.361	795.176
41.140	13.081	1043.742	794.047
42.155	13.075	1042.790	793.223
43.169	12.997	1041.941	792.130
44.184	12.968	1040.711	790.990
45.199	13.040	1039.781	790.555
46.213	13.005	1039.082	789.790
47.228	13.116	1037.422	788.987
48.242	13.079	1036.398	787.961
49.257	13.125	1035.556	787.468
50.271	13.024	1034.968	786.473
51.286	13.068	1034.054	785.917
52.301	13.041	1033.668	785.425
53.315	12.999	1032.177	784.025
54.330	12.973	1030.976	782.921
55.344	13.031	1030.178	782.521
56.359	13.030	1029.188	781.695
57.374	13.078	1028.001	780.948
58.388	13.063	1027.189	780.194
59.403	12.965	1027.108	779.600
60.417	12.951	1026.331	778.872
61.432	13.006	1025.190	778.196
62.447	13.007	1024.218	777.397
63.461	12.878	1023.415	776.113
64.476	12.983	1022.273	775.670
65.490	12.992	1021.986	775.424
66.505	12.953	1021.091	774.493
67.520	13.089	1020.515	774.628
68.534	13.017	1019.785	773.670
69.549	12.888	1019.348	772.664
70.563	12.998	1018.107	772.169
71.578	12.852	1017.323	770.823
72.593	12.874	1016.940	770.568
73.607	12.899	1016.277	770.113
74.622	12.860	1015.852	769.542
75.636	12.854	1014.836	768.679
76.651	12.958	1014.113	768.546
77.666	12.827	1013.367	767.304
78.680	12.958	1013.164	767.692
79.695	12.792	1012.272	766.172
80.709	13.016	1011.701	766.713
81.724	13.004	1011.337	766.317
82.739	13.042	1010.289	765.628
83.753	13.048	1009.844	765.254
84.768	13.218	1008.591	765.020
85.782	13.165	1007.590	763.953
86.797	13.220	1006.786	763.528
87.812	13.072	1006.164	762.306
88.826	13.077	1005.259	761.577
89.841	13.173	1003.880	760.903
90.855	13.153	1003.192	760.224
91.870	13.195	1002.854	760.094
92.884	13.305	1001.743	759.691
93.899	13.148	1000.759	758.156
94.914	13.168	1000.349	757.870
95.928	13.325	999.307	757.735
96.943	13.136	998.967	756.542
97.957	13.292	997.518	756.090
98.972	13.119	996.922	754.784
99.987	13.257	995.875	754.551
101.001	13.228	994.566	753.362
102.016	13.212	994.435	753.123
103.030	13.281	993.212	752.447
104.045	13.327	992.424	751.992
105.060	13.256	991.510	750.907
106.074	13.132	991.013	749.902
107.089	13.068	989.761	748.599
108.103	13.127	988.540	747.875
109.118	13.099	988.079	747.334
110.133	13.021	987.410	746.408
111.147	12.976	986.446	745.413
112.162	13.079	985.466	745.070
113.176	13.101	985.066	744.800
114.191	13.104	984.179	744.080
115.206	13.131	983.718	743.788
116.220	13.106	982.699	742.836
117.235	13.106	981.644	741.973
118.249	13.137	980.761	741.381
119.264	13.102	980.401	740.887
120.279	12.993	979.690	739.791
121.293	13.080	978.751	739.407
122.308	13.082	978.047	738.819
123.322	13.127	976.546	737.821
124.337	13.073	975.861	736.997
125.352	13.178	974.300	736.220
126.366	13.118	973.624	735.377
127.381	13.078	972.496	734.284
128.395	13.027	971.884	733.530
129.410	13.138	970.868	733.191
130.424	13.090	970.155	732.373
131.439	13.238	969.238	732.273
132.454	13.102	968.679	731.185
133.468	13.240	967.686	730.979
134.483	13.166	967.129	730.168
135.497	13.236	965.793	729.402
136.512	13.234	964.825	728.600
137.527	13.136	964.224	727.647
138.541	13.271	963.487	727.624
139.556	13.212	962.527	726.574
140.570	13.289	962.124	726.542
141.585	13.361	961.128	726.043
142.600	13.405	960.117	725.408
143.614	13.465	959.163	724.884
144.629	13.243	958.832	723.602
145.643	13.372	957.446	723.054
146.658	13.349	956.574	722.233
147.673	13.223	956.120	721.276
148.687	13.265	955.236	720.726
149.702	13.283	954.324	720.055
150.716	13.240	953.701	719.335
151.731	13.229	953.219	718.858
152.746	13.241	952.571	718.356
153.760	13.277	951.547	717.679
154.775	13.340	951.161	717.598
155.789	13.372	950.621	717.266
156.804	13.409	949.866	716.790
157.819	13.508	948.906	716.431
158.833	13.461	948.402	715.784
159.848	13.642	947.447	715.783
160.862	13.632	946.301	714.812
161.877	13.406	945.597	713.241
162.892	13.293	945.043	712.272
163.906	13.426	943.928	711.942
164.921	13.506	942.802	711.375
165.935	13.456	942.348	710.753
166.950	13.426	941.064	709.596
167.964	13.405	940.680	709.151
168.979	13.409	939.884	708.508
169.994	13.303	939.507	707.708
171.008	13.411	938.654	707.461
172.023	13.552	937.517	707.145
173.037	13.603	936.645	706.643
174.052	13.514	936.050	705.751
175.067	13.491	935.061	704.846
176.081	13.474	934.563	704.335
177.096	13.570	933.888	704.172
178.110	13.483	933.616	703.535
179.125	13.498	933.136	703.175
180.140	13.741	932.119	703.378
181.154	13.536	932.134	702.458
182.169	13.510	931.756	701.998
183.183	13.670	931.048	702.080
184.198	13.734	930.002	701.500
185.213	13.716	929.201	700.761
186.227	13.815	928.737	700.766
187.242	13.777	928.086	700.050
188.256	13.659	927.827	699.297
189.271	13.698	926.638	698.503
190.286	13.695	925.884	697.858
191.300	13.536	925.233	696.637
192.315	13.628	924.381	696.322
193.329	13.474	924.542	695.733
194.344	13.750	923.434	695.997
195.359	13.765	922.474	695.276
196.373	13.791	922.046	695.002
197.388	13.789	921.813	694.752
198.402	13.851	921.118	694.428
199.417	13.809	920.990	694.094
200.432	13.919	919.930	693.695
201.446	14.001	919.535	693.678
202.461	14.031	919.012	693.346
203.475	13.953	918.678	692.706
204.490	13.978	918.028	692.259
205.504	13.878	917.080	691.069
206.519	13.864	916.241	690.318
207.534	13.853	915.444	689.609
208.548	13.811	915.211	689.198
209.563	13.982	914.217	689.099
210.577	13.932	914.055	688.709
211.592	13.966	913.339	688.247
212.607	14.066	912.454	687.934
213.621	14.174	911.425	687.543
214.636	14.181	910.599	686.891
215.650	14.170	909.791	686.173
216.665	14.049	909.600	685.470
217.680	14.189	908.564	685.207
218.694	14.194	908.065	684.790
219.709	14.271	907.347	684.502
220.723	14.301	906.625	684.020
221.738	14.184	905.978	682.990
222.753	14.204	905.425	682.598
223.767	14.235	904.612	682.050
224.782	14.169	904.601	681.713
225.796	14.342	903.644	681.640
226.811	14.317	902.618	680.700
227.826	14.262	902.307	680.182
228.840	14.392	901.609	680.126
229.855	14.128	901.086	678.597
230.869	14.326	900.168	678.651
231.884	14.280	899.517	677.911
232.899	14.317	898.174	676.989
233.913	14.316	898.026	676.813
234.928	14.239	897.529	676.066
235.942	14.231	897.159	675.695
236.957	14.224	896.506	675.117
237.972	14.399	895.535	675.034
238.986	14.204	894.896	673.703
240.001	14.360	894.371	673.880
241.015	14.439	893.254	673.297
242.030	14.426	893.300	673.220
243.045	14.452	892.390	672.581
244.059	14.284	892.259	671.743
245.074	14.475	891.221	671.673
246.088	14.509	890.554	671.249
247.103	14.480	889.938	670.606
248.117	14.351	889.826	669.945
249.132	14.729	888.761	670.601
250.147	14.680	888.356	670.042
251.161	14.655	887.588	669.301
252.176	14.816	886.801	669.292
253.190	14.706	886.407	668.498
254.205	14.755	885.540	667.982
255.220	14.782	884.735	667.421
256.234	14.868	884.282	667.364
257.249	14.809	883.505	666.483
258.263	14.806	882.879	665.939
259.278	14.891	881.987	665.546
260.293	14.936	881.463	665.273
261.307	14.798	881.586	664.758
262.322	14.948	880.564	664.523
263.336	14.899	879.771	663.669
264.351	15.061	879.114	663.760
265.366	15.085	878.470	663.307
266.380	15.067	877.855	662.714
267.395	15.025	876.871	661.749
268.409	14.862	876.503	660.766
269.424	14.980	876.003	660.796
270.439	14.933	875.209	659.954
271.453	14.933	874.487	659.353
272.468	14.982	873.817	658.982
273.482	15.053	873.095	658.657
274.497	15.135	872.611	658.556
275.512	15.086	872.275	658.053
276.526	15.120	871.512	657.551
277.541	15.075	871.165	657.057
278.555	15.029	870.750	656.504
279.570	15.203	869.647	656.297
280.585	15.165	868.987	655.590
281.599	15.120	868.403	654.917
282.614	15.206	867.657	654.630
283.628	15.218	867.081	654.187
284.643	15.151	866.687	653.568
285.657	15.221	866.495	653.639
286.672	15.268	865.532	653.038
287.687	15.295	864.887	652.601
288.701	15.309	864.357	652.198
289.716	15.394	863.872	652.102
290.730	15.305	862.956	651.008
291.745	15.453	862.370	651.082
292.760	15.471	862.135	650.918
293.774	15.476	861.249	650.210
294.789	15.389	860.815	649.488
295.803	15.445	859.647	648.765
296.818	15.304	859.312	647.912
297.833	15.400	858.599	647.688
298.847	15.385	858.090	647.187
299.862	15.372	857.696	646.783
300.876	15.512	856.978	646.723
301.891	15.469	856.683	646.279
302.906	15.679	856.016	646.524
303.920	15.680	855.502	646.084
304.935	15.704	854.955	645.708
305.949	15.608	854.231	644.733
306.964	15.552	853.853	644.176
307.979	15.660	853.170	644.019
308.993	15.685	852.345	643.434
310.008	15.710	851.424	642.779
311.022	15.692	851.362	642.604
312.037	15.707	850.925	642.275
313.052	15.547	850.208	641.067
314.066	15.612	849.504	640.726
315.081	15.809	848.864	640.939
316.095	15.610	848.244	639.656
317.110	15.545	847.955	639.135
318.125	15.539	847.429	638.659
319.139	15.685	846.852	638.720
320.154	15.741	846.359	638.505
321.168	15.696	845.808	637.864
322.183	15.766	845.303	637.690
323.197	15.713	844.647	636.939
324.212	15.734	844.327	636.721
325.227	15.791	843.771	636.460
326.241	15.759	842.704	635.480
327.256	15.819	842.477	635.478
328.270	15.730	842.020	634.741
329.285	15.729	841.443	634.247
330.300	15.730	840.663	633.605
331.314	15.868	840.200	633.723
332.329	15.882	839.542	633.221
333.343	16.097	839.036	633.590
334.358	15.905	838.796	632.633
335.373	15.861	838.690	632.331
336.387	16.014	838.021	632.344
337.402	15.982	837.876	632.059
338.416	16.045	837.579	632.018
339.431	16.059	837.097	631.650
340.446	15.992	837.001	631.270
341.460	16.073	836.332	631.011
342.475	16.152	835.917	630.940
343.489	16.129	835.482	630.470
344.504	16.185	834.726	630.053
345.519	16.298	834.217	630.033
346.533	16.270	833.843	629.590
347.548	16.217	833.323	628.944
348.562	16.132	833.183	628.466
349.577	16.262	831.943	627.958
350.592	16.183	831.440	627.232
351.606	16.077	831.149	626.561
352.621	16.216	830.396	626.455
353.635	16.220	829.680	625.874
354.650	16.127	829.549	625.374
355.665	16.354	828.742	625.551
356.679	16.280	827.968	624.640
357.694	16.179	827.744	624.040
358.708	16.234	826.992	623.621
359.723	16.290	826.280	623.237
360.738	16.369	826.147	623.374
361.752	16.408	824.704	622.371
362.767	16.484	824.297	622.289
363.781	16.460	824.031	621.944
364.796	16.410	823.474	621.288
365.810	16.604	823.068	621.639
366.825	16.648	822.726	621.485
367.840	16.531	822.341	620.711
368.854	16.560	821.765	620.329
369.869	16.614	821.045	619.929
370.883	16.701	820.451	619.742
371.898	16.738	820.438	619.812
372.913	16.535	820.162	618.806
373.927	16.681	819.520	618.801
374.942	16.702	818.879	618.339
375.956	16.753	818.482	618.170
376.971	16.756	818.332	618.014
377.986	16.823	817.634	617.676
379.000	16.859	817.127	617.370
380.015	16.838	816.847	617.026
381.029	16.852	816.256	616.578
382.044	16.737	815.703	615.689
383.059	16.808	815.388	615.654
384.073	16.817	814.900	615.263
385.088	16.817	814.022	614.545
386.102	16.879	813.267	614.146
387.117	16.707	812.804	613.119
388.132	16.818	812.488	613.228
389.146	16.832	811.902	612.781
390.161	16.774	811.708	612.371
391.175	16.949	810.955	612.382
392.190	16.802	810.591	611.521
393.205	16.872	809.726	611.067
394.219	16.787	809.748	610.723
395.234	16.870	809.307	610.636
396.248	16.921	808.631	610.255
397.263	17.015	807.842	609.944
398.278	16.769	808.164	609.246
399.292	16.934	807.360	609.182
400.307	16.788	806.971	608.309
401.321	16.808	806.639	608.078
402.336	16.768	806.086	607.464
403.350	16.948	805.709	607.770
404.365	16.977	805.185	607.424
405.380	17.090	804.621	607.349
406.394	17.051	803.962	606.658
407.409	17.210	803.252	606.639
408.423	17.178	803.416	606.592
409.438	17.242	803.275	606.664
410.453	17.183	802.723	605.979
411.467	17.150	802.211	605.423
412.482	17.233	801.668	605.253
413.496	17.324	801.085	605.086
414.511	17.288	801.047	604.876
415.526	17.381	800.428	604.683
416.540	17.388	799.770	604.159
417.555	17.390	799.178	603.665
418.569	17.351	799.020	603.354
419.584	17.420	798.894	603.452
420.599	17.292	798.781	602.858
421.613	108.845	1291.547	1467.886
422.628	93.620	1363.319	1467.991
