DTS Sentinel unit serial number:	SN413079Multiplexer serial number:	ORYXHardware model number:	OX4-SRSoftware version number:	ORYX F/W v4.00 Oryx Data Collector v3.7.2.0data status	okinstallation	princeton_trtdifferential loss correction	single-endedforward channel	channel 1reverse channel	N/Adate	2019/09/17time	11:18:35forward acquisition time	60.00reverse acquisition time	0.00gamma	496.2192k internal	0.2323k external	0.2323temperature offset calibration	0.9965default loss term (dB/km)	0.3790temperature slope calibration	1.0000multiplexer offset coefficient	1.0000multiplexer slope coefficient	1.0000fibre end	0.00T internal ref (°C)	30.52T ext. ref 1 (°C)	0.29T ext. ref 2 (°C)	26.29length (m)	temperature (°C)	Stokes	anti-Stokes-747.200	186.502	0.202	0.303
-746.185	374.294	0.172	0.353
-745.171	-200.000	-0.014	0.377
-744.156	-200.000	0.017	0.097
-743.142	197.181	0.151	0.233
-742.127	175.624	-0.159	-0.233
-741.112	-85.540	-0.130	-0.041
-740.098	237.551	0.266	0.446
-739.083	-200.000	0.041	0.197
-738.069	184.758	-0.084	0.126
-737.054	-200.000	-0.073	0.328
-736.039	-12.041	-0.174	-0.115
-735.025	119.561	0.021	-0.026
-734.010	800.000	-0.132	-0.377
-732.996	243.677	-0.305	-0.516
-731.981	-56.018	0.470	0.211
-730.966	280.702	-0.052	-0.094
-729.952	195.499	-0.168	-0.257
-728.937	-200.000	0.023	-0.228
-727.923	303.798	-0.142	-0.266
-726.908	-89.294	0.373	0.111
-725.894	-44.916	-0.416	0.209
-724.879	-64.482	0.216	0.089
-723.864	419.189	0.119	-0.258
-722.850	-149.508	0.244	0.020
-721.835	-93.046	-0.325	0.091
-720.821	56.555	0.100	-0.098
-719.806	725.447	-0.071	-0.190
-718.791	11.596	-0.212	-0.164
-717.777	800.000	0.058	-0.204
-716.762	-140.526	-0.324	0.034
-715.748	-200.000	0.008	-0.189
-714.733	-126.555	-0.265	0.040
-713.718	30.621	-0.145	-0.125
-712.704	14.449	-0.111	0.087
-711.689	-142.801	-0.476	-0.047
-710.675	-46.985	-0.160	-0.079
-709.660	17.945	-0.286	0.229
-708.645	800.000	0.058	-0.221
-707.631	-50.176	0.225	-0.107
-706.616	192.299	0.021	-0.032
-705.602	-101.966	-0.176	-0.043
-704.587	800.000	-0.088	-0.250
-703.572	-7.668	0.229	-0.156
-702.558	800.000	-0.193	-0.602
-701.543	-90.262	-0.060	0.018
-700.529	-59.698	-0.122	0.053
-699.514	800.000	0.071	-0.253
-698.499	-63.452	-0.164	-0.068
-697.485	-138.456	-0.161	0.018
-696.470	-200.000	-0.021	-0.172
-695.456	81.142	0.088	-0.096
-694.441	800.000	0.038	-0.126
-693.426	800.000	-0.123	0.353
-692.412	488.093	0.041	-0.094
-691.397	-200.000	-0.059	-0.440
-690.383	146.677	0.186	-0.252
-689.368	56.337	-0.176	0.172
-688.354	-103.372	-0.360	0.086
-687.339	40.663	-0.147	0.133
-686.324	-78.912	0.049	-0.017
-685.310	-17.256	-0.223	0.142
-684.295	-49.411	-0.149	0.072
-683.281	-100.505	-0.203	0.051
-682.266	118.152	-0.179	0.222
-681.251	249.835	-0.059	0.100
-680.237	-5.191	-0.356	-0.246
-679.222	791.207	-0.058	0.162
-678.208	-128.522	-0.368	0.053
-677.193	-143.832	0.278	0.026
-676.178	338.502	-0.013	-0.026
-675.164	337.832	0.086	0.169
-674.149	410.834	0.174	-0.371
-673.135	-54.718	-0.176	0.080
-672.120	-200.000	0.010	-0.264
-671.105	-138.855	-0.008	-0.001
-670.091	-68.314	0.056	-0.022
-669.076	499.793	-0.128	-0.297
-668.062	47.005	0.069	-0.065
-667.047	783.872	0.061	-0.169
-666.032	-30.121	-0.159	-0.091
-665.018	36.300	-0.211	0.187
-664.003	701.185	0.130	-0.345
-662.989	80.197	-0.192	0.208
-661.974	-148.887	-0.264	0.021
-660.959	356.772	-0.093	0.186
-659.945	53.799	0.033	-0.032
-658.930	51.843	0.101	-0.097
-657.916	-91.450	0.196	0.056
-656.901	-200.000	-0.020	0.216
-655.886	-200.000	0.004	0.090
-654.872	-36.442	0.141	0.077
-653.857	-4.060	-0.139	0.097
-652.843	-130.132	-0.313	-0.043
-651.828	27.887	0.136	-0.115
-650.814	17.263	0.122	0.097
-649.799	-74.933	-0.068	-0.025
-648.784	356.328	0.044	0.088
-647.770	162.304	0.175	0.246
-646.755	-161.742	-0.588	-0.030
-645.741	-134.005	0.164	-0.020
-644.726	-200.000	0.038	-0.301
-643.711	-120.259	-0.214	-0.037
-642.697	-129.294	0.300	-0.042
-641.682	21.594	-0.080	-0.065
-640.668	86.229	-0.045	0.050
-639.653	265.909	0.159	-0.279
-638.638	728.507	0.125	0.335
-637.624	746.699	-0.088	0.239
-636.609	73.391	0.295	-0.311
-635.595	-114.252	0.193	0.037
-634.580	-200.000	-0.022	-0.189
-633.565	70.551	-0.095	0.098
-632.551	-104.966	0.070	0.016
-631.536	-124.947	-0.147	0.023
-630.522	-19.069	0.290	0.181
-629.507	800.000	0.073	0.280
-628.492	105.986	0.069	-0.082
-627.478	456.997	-0.077	0.172
-626.463	-137.656	-0.330	0.037
-625.449	258.931	-0.155	0.268
-624.434	-52.580	-0.259	0.120
-623.419	-200.000	0.000	-0.234
-622.405	-200.000	0.011	0.230
-621.390	60.468	0.136	-0.136
-620.376	-76.946	-0.195	-0.068
-619.361	647.287	0.014	0.036
-618.346	-74.300	0.190	0.069
-617.332	-200.000	-0.020	0.118
-616.317	-60.396	-0.228	-0.097
-615.303	783.713	0.060	-0.165
-614.288	800.000	0.053	-0.182
-613.273	259.949	0.050	0.086
-612.259	-200.000	-0.021	0.191
-611.244	-167.964	-0.410	-0.016
-610.230	34.846	0.188	-0.166
-609.215	126.117	0.263	-0.334
-608.201	194.136	0.076	-0.115
-607.186	-85.839	0.259	-0.080
-606.171	-35.666	0.173	-0.094
-605.157	122.618	0.175	-0.220
-604.142	-200.000	-0.077	-0.394
-603.128	245.135	-0.082	-0.139
-602.113	23.105	0.222	-0.183
-601.098	-28.481	0.036	-0.021
-600.084	54.274	-0.133	-0.128
-599.069	-62.160	-0.359	-0.150
-598.055	-200.000	-0.020	-0.165
-597.040	-123.244	-0.073	-0.012
-596.025	-148.233	-0.402	-0.033
-595.011	388.463	-0.056	0.116
-593.996	-55.016	-0.281	0.127
-592.982	-17.523	-0.128	-0.081
-591.967	800.000	0.086	-0.283
-590.952	-125.578	-0.207	0.032
-589.938	800.000	-0.174	0.500
-588.923	566.344	0.119	-0.289
-587.909	17.869	-0.230	0.184
-586.894	-78.995	-0.145	-0.049
-585.879	800.000	-0.022	0.078
-584.865	28.466	0.215	0.182
-583.850	392.246	0.142	0.296
-582.836	-81.160	0.199	0.066
-581.821	-200.000	0.007	0.074
-580.806	-90.118	-0.020	0.006
-579.792	-175.731	-0.072	0.002
-578.777	800.000	-0.060	0.216
-577.763	-200.000	0.006	0.202
-576.748	42.394	-0.267	0.243
-575.733	-200.000	-0.019	-0.209
-574.719	-110.073	-0.033	-0.007
-573.704	-168.867	-0.308	0.012
-572.690	-118.698	-0.371	-0.066
-571.675	800.000	-0.042	0.125
-570.661	153.839	0.160	-0.220
-569.646	800.000	0.038	-0.131
-568.631	-87.773	-0.139	-0.042
-567.617	800.000	0.032	-0.114
-566.602	-200.000	0.008	0.064
-565.588	-200.000	0.033	-0.214
-564.573	437.163	-0.033	-0.071
-563.558	359.321	-0.109	-0.219
-562.544	-200.000	-0.009	-0.213
-561.529	159.152	0.263	0.367
-560.515	800.000	0.044	0.148
-559.500	-129.226	-0.072	-0.010
-558.485	-200.000	0.005	0.110
-557.471	176.179	-0.110	-0.160
-556.456	-113.855	-0.177	-0.035
-555.442	194.519	-0.066	-0.100
-554.427	-60.506	0.139	0.059
-553.412	-124.540	-0.101	-0.016
-552.398	-17.389	-0.158	0.100
-551.383	-200.000	0.024	-0.141
-550.369	41.916	-0.184	0.167
-549.354	181.932	-0.125	0.185
-548.339	92.241	0.183	0.207
-547.325	192.373	-0.111	0.168
-546.310	-175.419	-0.312	0.009
-545.296	273.248	0.082	-0.145
-544.281	-68.754	0.406	0.157
-543.266	-200.000	0.022	0.336
-542.252	-63.762	-0.093	-0.038
-541.237	-15.608	-0.199	0.127
-540.223	-36.087	-0.119	-0.064
-539.208	262.152	0.042	0.073
-538.193	-5.055	-0.258	0.178
-537.179	-101.366	-0.332	0.081
-536.164	-122.459	-0.145	0.024
-535.150	-55.672	0.050	0.023
-534.135	-123.335	0.122	0.020
-533.121	800.000	-0.045	-0.152
-532.106	-90.657	0.438	0.127
-531.091	-200.000	0.098	0.441
-530.077	114.194	-0.256	-0.312
-529.062	-7.091	-0.154	-0.105
-528.048	103.448	0.101	0.118
-527.033	742.206	0.068	-0.183
-526.018	482.358	0.153	-0.349
-525.004	-43.098	0.186	0.095
-523.989	-200.000	-0.030	-0.135
-522.975	59.607	0.051	0.051
-521.960	96.306	0.113	0.129
-520.945	-200.000	-0.031	-0.533
-519.931	800.000	-0.097	-0.299
-518.916	-188.882	0.255	-0.003
-517.902	-75.821	0.492	0.175
-516.887	584.765	-0.084	0.207
-515.872	-85.440	-0.235	0.073
-514.858	233.899	-0.052	0.086
-513.843	564.759	-0.071	0.172
-512.829	800.000	0.058	0.236
-511.814	-143.381	0.277	-0.027
-510.799	-81.481	0.121	-0.040
-509.785	-200.000	-0.023	-0.183
-508.770	-52.341	0.228	0.106
-507.756	-170.676	-0.346	-0.012
-506.741	-173.253	-0.074	0.002
-505.726	432.326	-0.119	0.257
-504.712	40.799	0.147	0.132
-503.697	-200.000	0.036	-0.174
-502.683	-47.272	-0.215	-0.105
-501.668	29.493	-0.144	-0.122
-500.653	-45.770	0.160	0.079
-499.639	321.895	0.033	-0.063
-498.624	-84.447	-0.293	0.092
-497.610	800.000	0.032	0.121
-496.595	119.085	0.123	0.152
-495.581	-190.723	0.076	0.001
-494.566	241.260	-0.092	0.154
-493.551	800.000	-0.052	-0.187
-492.537	-125.762	0.335	0.051
-491.522	800.000	0.038	0.119
-490.508	63.209	0.380	-0.380
-489.493	133.091	-0.077	0.099
-488.478	-110.005	-0.383	0.080
-487.464	-200.000	0.048	-0.386
-486.449	800.000	0.032	-0.099
-485.435	-9.827	0.236	0.157
-484.420	70.838	-0.150	0.155
-483.405	-11.665	-0.206	0.135
-482.391	800.000	0.047	0.204
-481.376	-60.966	0.150	0.063
-480.362	173.930	-0.118	-0.171
-479.347	-200.000	0.039	-0.200
-478.332	-74.915	0.121	0.043
-477.318	-43.650	-0.187	0.094
-476.303	-10.181	0.198	0.132
-475.289	620.415	0.068	0.171
-474.274	561.155	0.076	-0.184
-473.259	58.521	-0.244	0.239
-472.245	-200.000	-0.010	0.197
-471.230	-37.723	-0.151	0.080
-470.216	-131.762	-0.223	-0.029
-469.201	14.969	0.038	0.030
-468.186	800.000	0.118	0.421
-467.172	-200.000	-0.026	-0.124
-466.157	196.991	0.201	-0.306
-465.143	-200.000	-0.035	0.192
-464.128	-148.820	-0.243	0.020
-463.113	-32.821	-0.096	-0.053
-462.099	-189.317	0.112	-0.001
-461.084	-200.000	0.041	-0.184
-460.070	104.949	0.257	-0.302
-459.055	-109.579	0.148	0.031
-458.040	-5.705	0.155	0.106
-457.026	9.414	-0.150	-0.113
-456.011	-200.000	-0.013	0.093
-454.997	-200.000	0.034	0.193
-453.982	-49.851	0.044	0.021
-452.968	27.079	-0.116	-0.097
-451.953	-192.398	0.362	-0.003
-450.938	-200.000	0.056	0.251
-449.924	-200.000	-0.063	0.318
-448.909	354.526	-0.051	-0.101
-447.895	-94.358	-0.141	-0.038
-446.880	-89.526	0.096	0.028
-445.865	-115.460	0.047	-0.009
-444.851	-65.403	-0.173	-0.069
-443.836	-5.474	-0.192	-0.132
-442.822	9.184	-0.107	-0.080
-441.807	-51.620	0.110	0.051
-440.792	800.000	-0.034	0.116
-439.778	61.780	0.056	0.055
-438.763	800.000	-0.065	0.244
-437.749	30.101	-0.194	0.165
-436.734	-170.725	-0.412	0.014
-435.719	-72.013	0.201	-0.074
-434.705	-200.000	0.040	-0.201
-433.690	-129.166	-0.314	0.044
-432.676	-200.000	0.013	-0.141
-431.661	-200.000	-0.021	-0.124
-430.646	260.086	0.084	0.144
-429.632	-12.175	-0.078	0.051
-428.617	720.272	-0.124	0.328
-427.603	-200.000	0.019	-0.319
-426.588	-17.806	-0.103	-0.064
-425.573	-48.287	-0.066	-0.032
-424.559	800.000	-0.084	-0.302
-423.544	-25.554	0.196	-0.116
-422.530	-81.743	-0.138	0.045
-421.515	780.462	0.042	0.114
-420.500	-137.020	0.182	0.021
-419.486	-125.685	-0.108	-0.016
-418.471	-200.000	0.005	0.183
-417.457	0.492	-0.112	0.080
-416.442	-200.000	0.012	-0.229
-415.428	692.881	0.170	-0.445
-414.413	129.114	0.106	0.135
-413.398	154.695	0.215	0.294
-412.384	215.900	0.070	0.111
-411.369	-120.887	0.121	-0.020
-410.355	97.280	-0.357	0.409
-409.340	-4.962	-0.133	-0.091
-408.325	42.749	0.315	0.286
-407.311	232.221	-0.099	-0.162
-406.296	-116.527	-0.111	0.020
-405.282	52.107	-0.100	-0.095
-404.267	-22.999	-0.244	-0.146
-403.252	126.452	-0.071	-0.089
-402.238	-62.365	0.254	-0.105
-401.223	-169.030	-0.267	-0.010
-400.209	-200.000	0.001	0.036
-399.194	800.000	-0.069	0.269
-398.179	-56.029	-0.205	-0.091
-397.165	46.415	-0.122	0.113
-396.150	188.466	0.229	-0.340
-395.136	-200.000	0.029	-0.308
-394.121	-50.807	-0.309	-0.145
-393.106	-200.000	0.065	0.305
-392.092	-17.778	0.111	0.069
-391.077	-28.356	-0.269	-0.155
-390.063	-200.000	0.073	0.599
-389.048	-200.000	-0.043	0.270
-388.033	-200.000	-0.062	0.373
-387.019	-53.556	-0.409	-0.186
-386.004	-34.038	0.082	0.045
-384.990	800.000	0.105	-0.377
-383.975	61.011	0.058	0.057
-382.960	13.404	0.199	-0.154
-381.946	800.000	0.070	-0.197
-380.931	63.007	-0.132	-0.132
-379.917	800.000	0.069	-0.265
-378.902	-137.001	0.377	0.043
-377.888	-33.831	-0.205	-0.113
-376.873	800.000	0.043	0.134
-375.858	800.000	0.112	0.466
-374.844	-32.513	-0.205	-0.114
-373.829	57.682	-0.220	0.214
-372.815	22.148	-0.233	0.190
-371.800	-62.989	-0.131	-0.054
-370.785	-200.000	0.017	0.142
-369.771	211.511	-0.106	0.166
-368.756	230.127	0.064	-0.104
-367.742	-107.664	0.116	0.025
-366.727	-200.000	-0.008	-0.054
-365.712	-107.507	-0.287	-0.062
-364.698	313.263	0.155	-0.290
-363.683	-63.576	0.397	0.162
-362.669	-72.100	0.095	0.035
-361.654	-97.784	-0.218	-0.056
-360.639	-200.000	0.028	0.221
-359.625	-200.000	-0.106	0.489
-358.610	-56.829	0.173	-0.076
-357.596	-119.118	-0.153	0.027
-356.581	-37.485	-0.091	0.048
-355.566	-35.390	-0.254	-0.137
-354.552	11.448	-0.118	0.090
-353.537	-57.029	0.269	0.118
-352.523	800.000	0.115	0.345
-351.508	-200.000	0.014	-0.139
-350.493	800.000	0.076	-0.210
-349.479	283.307	0.182	-0.326
-348.464	12.871	-0.198	-0.152
-347.450	564.049	0.019	-0.047
-346.435	-189.893	0.157	-0.002
-345.420	189.592	-0.073	-0.108
-344.406	535.734	0.030	-0.071
-343.391	-19.135	-0.167	0.103
-342.377	-200.000	-0.061	-0.286
-341.362	-134.813	-0.049	-0.006
-340.348	-200.000	-0.003	0.090
-339.333	-183.384	-0.081	0.001
-338.318	182.343	-0.082	0.121
-337.304	709.536	0.153	-0.401
-336.289	2.918	0.039	0.028
-335.275	409.801	-0.158	0.332
-334.260	20.093	-0.105	0.084
-333.245	-200.000	-0.016	-0.245
-332.231	508.891	-0.096	0.221
-331.216	-4.091	0.096	0.066
-330.202	-134.883	-0.236	-0.028
-329.187	-162.106	0.159	0.008
-328.172	-122.813	-0.185	-0.030
-327.158	-200.000	0.037	-0.167
-326.143	-150.623	-0.171	0.013
-325.129	141.920	0.129	-0.170
-324.114	37.961	-0.152	-0.135
-323.099	2.048	-0.150	0.108
-322.085	-67.014	-0.424	-0.166
-321.070	-96.835	0.130	-0.034
-320.056	-127.999	0.023	-0.003
-319.041	-39.978	0.295	-0.153
-318.026	550.263	-0.062	-0.149
-317.012	-35.115	0.060	-0.032
-315.997	198.042	0.203	-0.308
-314.983	-200.000	0.064	-0.348
-313.968	-200.000	-0.046	-0.306
-312.953	-77.441	-0.177	-0.061
-311.939	59.343	0.043	0.042
-310.924	-133.683	-0.318	0.039
-309.910	14.706	0.320	-0.248
-308.895	-200.000	0.000	0.174
-307.880	120.196	-0.185	0.228
-306.866	-78.528	-0.089	-0.030
-305.851	-200.000	0.065	-0.308
-304.837	1.713	0.207	-0.148
-303.822	131.773	-0.038	0.048
-302.807	552.653	0.160	-0.382
-301.793	-23.840	0.057	-0.034
-300.778	186.332	0.116	-0.171
-299.764	-164.158	0.406	0.019
-298.749	800.000	0.060	0.255
-297.735	6.443	0.179	0.132
-296.720	695.356	0.025	0.064
-295.705	800.000	0.068	-0.237
-294.691	-159.749	0.238	0.013
-293.676	-103.297	0.173	0.041
-292.662	502.615	-0.028	-0.063
-291.647	-116.995	0.293	-0.053
-290.632	678.955	0.046	-0.118
-289.618	-200.000	-0.056	0.252
-288.603	-200.000	-0.018	-0.863
-287.589	147.779	-0.358	0.479
-286.574	-41.774	0.172	0.087
-285.559	-200.000	-0.044	0.278
-284.545	-132.795	0.173	0.022
-283.530	480.483	-0.155	-0.349
-282.516	-159.247	0.137	-0.008
-281.501	800.000	-0.009	-0.031
-280.486	49.321	0.131	-0.123
-279.472	-200.000	0.015	-0.178
-278.457	-200.000	0.052	-0.485
-277.443	-42.098	-0.068	0.034
-276.428	-200.000	-0.037	-0.368
-275.413	-49.379	0.141	0.067
-274.399	800.000	0.096	-0.271
-273.384	31.319	0.205	-0.174
-272.370	-178.068	-0.098	0.002
-271.355	-200.000	0.070	-0.000
-270.340	151.069	0.064	-0.086
-269.326	-84.310	-0.165	-0.052
-268.311	6.965	0.186	0.137
-267.297	-105.795	0.048	-0.011
-266.282	-200.000	-0.031	0.305
-265.267	-51.865	0.302	-0.139
-264.253	-36.393	-0.376	-0.201
-263.238	-64.263	0.212	-0.086
-262.224	-200.000	-0.005	0.171
-261.209	44.887	0.107	0.098
-260.195	-200.000	0.035	0.172
-259.180	-9.501	0.148	0.098
-258.165	800.000	0.078	-0.304
-257.151	-37.873	0.206	-0.108
-256.136	-69.496	0.179	-0.068
-255.122	-56.855	0.218	-0.096
-254.107	292.322	-0.013	0.024
-253.092	237.036	0.099	-0.162
-252.078	-119.649	-0.164	-0.028
-251.063	71.021	0.116	0.119
-250.049	-118.363	0.164	-0.029
-249.034	-134.889	0.089	-0.011
-248.019	25.659	-0.141	0.116
-247.005	-200.000	-0.028	0.315
-245.990	-162.674	-0.252	0.012
-244.976	-200.000	0.040	0.239
-243.961	20.912	-0.084	-0.067
-242.946	-200.000	0.002	-0.033
-241.932	-200.000	0.098	0.492
-240.917	-200.000	0.007	-0.172
-239.903	123.638	-0.384	0.477
-238.888	28.910	-0.200	0.168
-237.873	800.000	-0.031	-0.096
-236.859	228.149	0.256	0.413
-235.844	800.000	0.047	0.131
-234.830	143.356	0.033	0.044
-233.815	-172.168	-0.119	0.004
-232.800	-98.649	-0.236	-0.060
-231.786	118.332	0.186	0.228
-230.771	35.384	-0.229	0.199
-229.757	411.328	-0.159	0.333
-228.742	351.887	0.172	0.338
-227.727	-44.484	0.303	-0.150
-226.713	-38.689	-0.291	0.152
-225.698	-7.115	-0.221	-0.148
-224.684	-90.105	0.393	0.113
-223.669	-200.000	0.030	-0.208
-222.655	-200.000	0.050	-0.298
-221.640	-200.000	-0.094	0.569
-220.625	-176.269	-0.114	-0.003
-219.611	-151.770	0.385	0.028
-218.596	585.484	0.124	-0.303
-217.582	800.000	-0.014	0.055
-216.567	-39.589	-0.015	0.008
-215.552	-105.560	-0.120	-0.027
-214.538	800.000	0.080	-0.320
-213.523	-94.250	-0.271	-0.073
-212.509	86.603	0.108	-0.118
-211.494	-166.504	0.340	0.014
-210.479	-30.243	0.077	-0.043
-209.465	-95.265	-0.126	-0.034
-208.450	-161.709	0.112	0.006
-207.436	17.762	0.238	-0.187
-206.421	-34.506	0.086	-0.047
-205.406	-33.012	0.140	0.077
-204.392	-30.499	-0.112	-0.063
-203.377	486.837	0.070	0.158
-202.363	102.521	0.182	0.211
-201.348	99.907	-0.071	0.081
-200.333	130.528	-0.097	0.122
-199.319	49.445	0.118	-0.110
-198.304	-200.000	-0.010	-0.068
-197.290	-200.000	0.030	0.363
-196.275	132.442	0.239	-0.304
-195.260	125.999	0.073	0.091
-194.246	330.094	-0.082	0.157
-193.231	-7.680	0.244	-0.163
-192.217	69.655	-0.118	0.120
-191.202	-46.344	0.166	-0.080
-190.187	-200.000	-0.051	-0.249
-189.173	41.086	0.113	-0.101
-188.158	-36.088	-0.160	0.085
-187.144	276.483	0.047	0.082
-186.129	74.310	0.322	-0.334
-185.114	209.492	0.087	-0.135
-184.100	-102.386	-0.290	-0.069
-183.085	338.718	-0.146	0.280
-182.071	-103.297	0.156	0.036
-181.056	307.536	0.045	-0.082
-180.042	-61.987	-0.357	0.148
-179.027	-56.463	-0.221	0.097
-178.012	-128.225	0.122	0.017
-176.998	-44.028	0.198	-0.098
-175.983	-200.000	0.007	0.189
-174.969	-32.977	-0.126	-0.069
-173.954	-200.000	0.004	0.145
-172.939	-139.444	0.142	0.015
-171.925	9.678	-0.085	0.063
-170.910	-13.583	0.177	-0.113
-169.896	256.417	-0.207	0.351
-168.881	272.983	0.205	-0.357
-167.866	-100.633	-0.262	0.064
-166.852	413.705	-0.116	-0.243
-165.837	-200.000	-0.029	-0.140
-164.823	65.046	0.203	0.202
-163.808	-200.000	0.033	0.141
-162.793	27.589	0.179	-0.149
-161.779	-64.443	0.218	-0.088
-160.764	800.000	0.055	0.226
-159.750	424.001	0.113	0.240
-158.735	90.822	0.132	-0.146
-157.720	47.983	-0.112	0.103
-156.706	-199.403	-0.358	0.002
-155.691	-3.584	0.146	-0.100
-154.677	-100.049	0.104	0.026
-153.662	138.155	-0.048	0.062
-152.647	-92.095	0.222	-0.062
-151.633	66.616	-0.174	-0.175
-150.618	-74.487	0.192	-0.068
-149.604	-23.280	0.071	0.042
-148.589	-150.731	-0.294	-0.022
-147.574	-200.000	-0.006	0.112
-146.560	800.000	-0.107	0.366
-145.545	-200.000	0.019	0.352
-144.531	267.360	0.021	-0.037
-143.516	442.199	0.093	0.201
-142.502	-102.374	-0.216	-0.051
-141.487	-200.000	0.000	0.009
-140.472	-173.636	0.219	0.006
-139.458	612.921	0.090	0.221
-138.443	-200.000	-0.003	-0.286
-137.429	800.000	0.045	0.181
-136.414	-87.185	0.266	-0.080
-135.399	-110.113	-0.260	0.054
-134.385	566.128	-0.178	0.425
-133.370	-200.000	0.012	-0.178
-132.356	176.383	-0.010	-0.014
-131.341	-75.480	-0.424	-0.149
-130.326	800.000	0.086	0.294
-129.312	-200.000	0.002	0.312
-128.297	-200.000	0.012	-0.202
-127.283	-100.978	0.115	-0.028
-126.268	353.954	-0.118	0.232
-125.253	19.409	0.065	-0.052
-124.239	-168.424	0.186	0.007
-123.224	386.904	-0.146	0.298
-122.210	172.734	0.252	-0.357
-121.195	-67.252	-0.075	-0.029
-120.180	-150.159	0.444	0.034
-119.166	-111.149	0.164	0.033
-118.151	-200.000	0.021	-0.120
-117.137	-92.525	0.130	-0.036
-116.122	-150.043	-0.280	-0.021
-115.107	-147.104	-0.191	0.016
-114.093	800.000	-0.048	-0.150
-113.078	800.000	-0.046	-0.146
-112.064	185.272	0.119	0.174
-111.049	559.938	-0.070	0.167
-110.034	-114.181	0.124	-0.024
-109.020	15.479	0.234	0.181
-108.005	485.814	-0.073	0.163
-106.991	-82.124	0.244	0.078
-105.976	-108.285	-0.213	-0.045
-104.962	-158.398	0.190	0.011
-103.947	-172.661	0.262	0.008
-102.932	-4.488	0.301	-0.205
-101.918	-200.000	0.014	-0.071
-100.903	-94.518	0.118	0.032
-99.889	-200.000	-0.038	0.179
-98.874	800.000	0.038	-0.121
-97.859	-140.858	0.124	-0.013
-96.845	-200.000	0.013	-0.068
-95.830	365.920	0.179	-0.356
-94.816	-45.743	-0.088	-0.043
-93.801	5.230	-0.050	-0.036
-92.786	-15.532	-0.174	0.109
-91.772	381.269	0.096	0.193
-90.757	126.780	0.160	0.200
-89.743	156.860	-0.111	0.151
-88.728	329.173	0.088	-0.167
-87.713	-5.691	0.192	-0.130
-86.699	-66.010	-0.384	-0.151
-85.684	-118.741	-0.161	0.028
-84.670	-29.964	0.191	0.107
-83.655	110.326	-0.113	-0.134
-82.640	-173.476	-0.216	0.006
-81.626	-200.000	-0.011	0.145
-80.611	-11.734	-0.314	-0.203
-79.597	13.070	0.176	0.134
-78.582	-66.427	0.110	-0.043
-77.567	27.854	-0.147	-0.122
-76.553	210.020	0.092	0.142
-75.538	-48.656	-0.324	-0.153
-74.524	40.870	-0.063	0.056
-73.509	-108.935	0.269	0.056
-72.494	-200.000	0.013	0.073
-71.480	346.206	-0.058	-0.112
-70.465	-200.000	-0.021	-0.113
-69.451	43.770	0.237	0.213
-68.436	356.221	0.137	0.268
-67.422	800.000	0.013	0.043
-66.407	-162.012	-0.233	-0.012
-65.392	800.000	-0.007	0.020
-64.378	800.000	-0.109	0.393
-63.363	-112.156	-0.046	0.009
-62.349	40.802	0.074	-0.066
-61.334	171.580	-0.855	-1.207
-60.319	161.139	0.291	0.400
-59.305	800.000	-0.187	-0.689
-58.290	209.416	0.788	1.214
-57.276	286.312	0.672	1.192
-56.261	-200.000	101.867	581.221
-55.246	479.922	1441.585	3212.911
-54.232	151.055	2627.001	3512.757
-53.217	109.856	2164.673	2552.210
-52.203	42.448	1606.886	1436.524
-51.188	34.123	1339.104	1147.160
-50.173	30.872	1297.731	1092.643
-49.159	54.195	1347.965	1274.848
-48.144	55.431	1363.933	1297.277
-47.130	34.359	1321.002	1132.877
-46.115	30.752	1303.656	1096.747
-45.100	30.535	1299.146	1091.634
-44.086	30.516	1296.788	1089.500
-43.071	30.416	1294.430	1086.891
-42.057	30.372	1291.987	1084.538
-41.042	30.524	1290.721	1084.319
-40.027	30.471	1289.184	1082.678
-39.013	30.491	1287.341	1081.204
-37.998	30.399	1285.748	1079.290
-36.984	30.454	1284.186	1078.255
-35.969	30.500	1282.339	1076.924
-34.954	30.651	1280.007	1075.794
-33.940	30.575	1279.207	1074.644
-32.925	30.548	1277.541	1073.047
-31.911	30.585	1275.927	1071.858
-30.896	30.620	1274.737	1071.022
-29.881	30.675	1273.613	1070.350
-28.867	30.720	1271.981	1069.192
-27.852	30.695	1270.670	1067.907
-26.838	30.615	1269.146	1066.122
-25.823	30.683	1267.694	1065.249
-24.809	30.594	1266.491	1063.690
-23.794	30.559	1265.696	1062.780
-22.779	30.571	1264.007	1061.385
-21.765	30.606	1262.329	1060.136
-20.750	30.621	1261.241	1059.264
-19.736	30.451	1260.505	1057.635
-18.721	30.522	1258.897	1056.650
-17.706	30.412	1258.118	1055.328
-16.692	30.331	1256.954	1053.849
-15.677	30.617	1255.725	1054.402
-14.663	30.505	1254.400	1052.611
-13.648	30.356	1253.612	1051.063
-12.633	30.311	1252.685	1049.990
-11.619	30.394	1251.682	1049.578
-10.604	30.495	1250.548	1049.158
-9.590	30.483	1249.588	1048.241
-8.575	30.533	1248.209	1047.323
-7.560	30.383	1247.843	1046.130
-6.546	30.463	1246.603	1045.501
-5.531	30.344	1246.641	1044.821
-4.517	30.491	1245.124	1044.333
-3.502	30.510	1244.555	1043.923
-2.487	30.476	1243.762	1043.025
-1.473	30.448	1239.180	1038.984
-0.458	29.196	1224.680	1019.862
0.556	24.248	1208.275	984.055
1.571	20.639	1213.783	968.401
2.586	19.559	1229.176	974.500
3.600	19.385	1218.462	964.947
4.615	14.355	1145.708	880.724
5.629	5.085	1069.219	775.926
6.644	0.633	1048.757	739.255
7.659	0.242	1047.221	736.197
8.673	0.133	1045.582	734.449
9.688	0.173	1044.339	733.706
10.702	0.336	1042.494	733.136
11.717	5.727	1049.622	764.432
12.731	14.434	1060.520	815.047
13.746	17.587	1064.269	833.301
14.761	17.155	1063.041	830.156
15.775	15.976	1060.978	822.717
16.790	14.963	1058.947	816.130
17.804	14.362	1057.425	811.956
18.819	13.971	1056.332	809.144
19.834	13.759	1055.702	807.554
20.848	13.580	1054.247	805.503
21.863	13.347	1053.538	803.759
22.877	13.042	1052.969	801.772
23.892	13.043	1052.133	801.067
24.907	13.197	1051.150	800.997
25.921	13.264	1050.178	800.507
26.936	13.148	1049.851	799.625
27.950	13.187	1048.886	799.008
28.965	13.235	1047.637	798.220
29.980	13.234	1046.580	797.336
30.994	13.466	1045.123	797.275
32.009	13.507	1044.337	796.804
33.023	13.363	1043.558	795.445
34.038	13.384	1042.498	794.666
35.053	13.265	1042.039	793.677
36.067	13.203	1040.706	792.291
37.082	13.318	1040.131	792.337
38.096	13.318	1039.361	791.680
39.111	13.438	1038.310	791.381
40.126	13.235	1037.581	789.788
41.140	13.003	1036.721	787.952
42.155	13.220	1035.103	787.692
43.169	13.012	1034.680	786.306
44.184	13.175	1033.081	785.795
45.199	13.170	1031.851	784.769
46.213	13.130	1031.029	783.885
47.228	13.307	1030.202	784.027
48.242	13.114	1028.856	782.017
49.257	13.083	1028.695	781.677
50.271	13.194	1027.530	781.252
51.286	13.291	1026.594	780.926
52.301	13.273	1025.213	779.721
53.315	13.212	1024.510	778.834
54.330	13.205	1023.540	777.992
55.344	13.157	1022.872	777.189
56.359	13.144	1022.380	776.688
57.374	13.108	1021.162	775.525
58.388	13.106	1020.001	774.561
59.403	13.152	1019.145	774.062
60.417	13.073	1018.489	773.123
61.432	13.102	1017.836	772.695
62.447	13.014	1017.093	771.651
63.461	12.965	1016.464	770.878
64.476	13.118	1015.288	770.632
65.490	12.997	1014.493	769.396
66.505	13.151	1013.942	769.628
67.520	13.080	1012.840	768.390
68.534	12.984	1012.809	767.851
69.549	12.918	1011.863	766.761
70.563	13.091	1010.820	766.706
71.578	13.010	1010.052	765.681
72.593	12.854	1009.545	764.505
73.607	12.924	1008.861	764.243
74.622	12.913	1008.118	763.564
75.636	13.027	1006.732	762.973
76.651	12.973	1006.484	762.465
77.666	13.075	1005.894	762.424
78.680	13.072	1005.069	761.718
79.695	13.071	1004.891	761.510
80.709	13.016	1004.095	760.586
81.724	13.160	1003.389	760.648
82.739	13.180	1002.362	759.895
83.753	13.160	1001.717	759.244
84.768	13.267	1000.840	759.005
85.782	13.332	999.693	758.366
86.797	13.279	998.756	757.346
87.812	13.176	998.285	756.452
88.826	13.258	997.309	756.017
89.841	13.217	996.278	754.981
90.855	13.240	995.407	754.360
91.870	13.248	994.696	753.790
92.884	13.356	993.634	753.411
93.899	13.412	992.930	753.066
94.914	13.367	992.307	752.320
95.928	13.363	991.501	751.626
96.943	13.335	990.631	750.775
97.957	13.380	989.875	750.340
98.972	13.403	989.226	749.885
99.987	13.311	988.265	748.674
101.001	13.247	987.352	747.626
102.016	13.399	986.290	747.443
103.030	13.399	985.528	746.797
104.045	13.296	985.127	745.964
105.060	13.380	983.883	745.336
106.074	13.227	983.244	744.094
107.089	13.280	981.783	743.162
108.103	13.164	981.531	742.383
109.118	13.180	980.717	741.776
110.133	13.119	979.739	740.697
111.147	13.179	979.070	740.391
112.162	13.088	978.290	739.330
113.176	13.290	977.018	739.207
114.191	13.247	976.826	738.803
115.206	13.315	975.802	738.269
116.220	13.277	974.860	737.319
117.235	13.213	974.116	736.406
118.249	13.146	973.491	735.572
119.264	13.089	972.825	734.752
120.279	13.152	972.086	734.407
121.293	13.273	970.985	734.049
122.308	13.147	970.082	732.741
123.322	13.252	968.921	732.262
124.337	13.146	968.112	731.117
125.352	13.201	967.172	730.586
126.366	13.141	966.543	729.782
127.381	13.075	965.303	728.488
128.395	13.188	964.265	728.141
129.410	13.288	962.992	727.555
130.424	13.277	962.124	726.785
131.439	13.298	962.055	726.760
132.454	13.363	960.771	726.011
133.468	13.366	960.025	725.400
134.483	13.308	959.281	724.520
135.497	13.292	958.539	723.826
136.512	13.324	957.431	723.064
137.527	13.359	956.746	722.633
138.541	13.275	955.945	721.599
139.556	13.346	955.373	721.414
140.570	13.461	954.597	721.262
141.585	13.340	953.835	720.100
142.600	13.370	953.171	719.662
143.614	13.498	952.070	719.324
144.629	13.462	951.430	718.620
145.643	13.421	950.510	717.686
146.658	13.459	949.494	717.017
147.673	13.323	948.629	715.716
148.687	13.460	947.820	715.633
149.702	13.399	946.634	714.411
150.716	13.364	945.794	713.563
151.731	13.298	945.073	712.672
152.746	13.474	944.778	713.143
153.760	13.495	944.038	712.610
154.775	13.488	943.632	712.214
155.789	13.502	942.915	711.668
156.804	13.413	942.335	710.786
157.819	13.502	941.321	710.339
158.833	13.444	941.307	710.017
159.848	13.597	939.769	709.450
160.862	13.508	939.205	708.581
161.877	13.366	938.169	707.128
162.892	13.449	937.151	706.652
163.906	13.380	936.489	705.799
164.921	13.353	935.947	705.213
165.935	13.555	934.703	705.073
166.950	13.576	933.700	704.340
167.964	13.559	933.175	703.813
168.979	13.491	932.155	702.689
169.994	13.569	931.340	702.347
171.008	13.528	930.904	701.783
172.023	13.536	929.869	700.973
173.037	13.534	929.552	700.663
174.052	13.698	928.397	700.424
175.067	13.647	927.945	699.806
176.081	13.572	927.434	699.039
177.096	13.461	927.169	698.311
178.110	13.534	926.665	698.178
179.125	13.580	925.563	697.478
180.140	13.758	924.739	697.545
181.154	13.755	924.673	697.420
182.169	13.690	924.495	696.952
183.183	13.863	923.217	696.653
184.198	13.708	922.481	695.384
185.213	13.868	921.766	695.455
186.227	13.866	921.132	694.906
187.242	13.835	920.974	694.597
188.256	13.852	920.037	693.900
189.271	13.844	919.364	693.296
190.286	13.718	918.532	692.082
191.300	13.695	917.403	691.074
192.315	13.586	917.416	690.569
193.329	13.581	917.440	690.505
194.344	13.646	916.086	689.695
195.359	13.719	915.618	689.588
196.373	13.820	914.838	689.359
197.388	13.918	914.438	689.404
198.402	13.926	914.296	689.265
199.417	13.895	913.580	688.540
200.432	14.039	912.627	688.355
201.446	14.065	912.402	688.230
202.461	14.131	911.788	687.980
203.475	14.017	911.224	687.025
204.490	14.072	910.597	686.717
205.504	14.056	909.682	685.899
206.519	13.984	908.876	684.934
207.534	14.141	908.155	684.976
208.548	14.082	907.537	684.206
209.563	14.113	906.872	683.772
210.577	14.305	906.128	683.939
211.592	14.177	905.803	683.110
212.607	14.296	904.296	682.402
213.621	14.201	904.214	681.889
214.636	14.289	903.347	681.535
215.650	14.238	903.040	681.033
216.665	14.268	902.290	680.532
217.680	14.257	901.650	679.943
218.694	14.375	900.878	679.781
219.709	14.309	900.358	679.061
220.723	14.290	899.738	678.455
221.738	14.318	898.836	677.830
222.753	14.354	898.133	677.386
223.767	14.430	897.685	677.294
224.782	14.464	897.230	677.031
225.796	14.470	896.856	676.712
226.811	14.366	896.137	675.690
227.826	14.294	895.441	674.814
228.840	14.397	894.437	674.415
229.855	14.477	893.995	674.344
230.869	14.364	892.854	672.969
231.884	14.520	892.079	672.954
232.899	14.315	891.692	671.775
233.913	14.234	891.313	671.102
234.928	14.387	890.423	670.988
235.942	14.218	890.241	670.115
236.957	14.472	889.046	670.175
237.972	14.308	888.733	669.223
238.986	14.430	887.876	669.006
240.001	14.482	887.245	668.681
241.015	14.463	887.036	668.388
242.030	14.534	886.155	667.948
243.045	14.461	885.464	667.079
244.059	14.573	884.783	666.951
245.074	14.500	884.726	666.559
246.088	14.524	884.087	666.115
247.103	14.603	883.035	665.577
248.117	14.657	882.691	665.473
249.132	14.632	882.437	665.123
250.147	14.654	881.412	664.382
251.161	14.822	880.744	664.485
252.176	14.857	880.090	664.074
253.190	14.879	879.152	663.394
254.205	15.002	878.306	663.186
255.220	14.916	878.119	662.645
256.234	14.891	877.450	661.980
257.249	14.921	876.572	661.379
258.263	14.994	876.247	661.366
259.278	14.915	875.284	660.265
260.293	14.932	874.841	659.943
261.307	14.853	874.371	659.217
262.322	15.150	873.408	659.601
263.336	14.978	873.237	658.736
264.351	15.135	871.821	658.228
265.366	15.130	871.252	657.721
266.380	15.152	870.862	657.454
267.395	14.989	870.481	656.469
268.409	15.074	869.377	655.911
269.424	15.033	868.897	655.332
270.439	15.237	868.016	655.408
271.453	15.095	867.133	654.128
272.468	15.218	866.751	654.259
273.482	15.170	866.582	653.888
274.497	15.127	865.594	652.916
275.512	15.223	865.242	652.966
276.526	15.189	864.751	652.406
277.541	15.219	864.447	652.236
278.555	15.237	863.804	651.765
279.570	15.281	862.914	651.205
280.585	15.407	861.860	650.843
281.599	15.359	861.540	650.355
282.614	15.273	860.918	649.497
283.628	15.380	860.321	649.404
284.643	15.231	860.113	648.611
285.657	15.342	859.014	648.156
286.672	15.241	858.467	647.292
287.687	15.345	857.955	647.253
288.701	15.286	857.261	646.444
289.716	15.312	856.801	646.141
290.730	15.506	855.912	646.159
291.745	15.299	855.841	645.251
292.760	15.474	855.118	645.323
293.774	15.555	854.351	644.999
294.789	15.440	854.137	644.338
295.803	15.402	853.386	643.568
296.818	15.451	852.528	643.051
297.833	15.498	852.072	642.832
298.847	15.517	851.347	642.300
299.862	15.590	850.393	641.803
300.876	15.415	850.048	640.817
301.891	15.609	849.726	641.257
302.906	15.511	849.334	640.530
303.920	15.477	848.966	640.067
304.935	15.692	848.116	640.187
305.949	15.682	847.390	639.547
306.964	15.677	846.749	638.987
307.979	15.699	846.308	638.679
308.993	15.820	845.511	638.483
310.008	15.821	844.856	637.933
311.022	15.757	844.238	637.169
312.037	15.633	844.204	636.619
313.052	15.661	843.609	636.217
314.066	15.541	843.115	635.336
315.081	15.664	842.168	635.029
316.095	15.618	841.685	634.436
317.110	15.605	840.954	633.779
318.125	15.783	840.555	634.093
319.139	15.746	840.260	633.677
320.154	15.822	839.738	633.512
321.168	15.783	839.188	632.895
322.183	15.832	838.402	632.430
323.197	15.793	838.565	632.352
324.212	15.750	837.728	631.502
325.227	15.853	836.817	631.147
326.241	15.827	836.373	630.656
327.256	15.780	836.022	630.161
328.270	15.857	835.432	629.948
329.285	15.966	834.626	629.693
330.300	15.808	834.147	628.687
331.314	15.925	833.675	628.712
332.329	15.820	833.331	628.004
333.343	15.873	833.063	627.946
334.358	15.973	832.413	627.770
335.373	16.068	831.978	627.740
336.387	16.132	831.313	627.422
337.402	16.133	831.502	627.512
338.416	16.092	831.352	627.191
339.431	16.050	830.614	626.425
340.446	16.057	830.410	626.239
341.460	16.107	829.777	625.894
342.475	16.254	829.397	626.097
343.489	16.199	829.012	625.545
344.504	16.261	828.230	625.130
345.519	16.275	828.048	624.990
346.533	16.183	827.622	624.272
347.548	16.322	826.490	623.878
348.562	16.242	826.058	623.200
349.577	16.116	825.925	622.581
350.592	16.218	824.926	622.147
351.606	16.198	824.555	621.739
352.621	16.290	823.794	621.450
353.635	16.228	823.526	620.965
354.650	16.459	822.299	620.830
355.665	16.276	821.948	619.839
356.679	16.388	821.301	619.710
357.694	16.455	820.843	619.553
358.708	16.484	819.935	618.921
359.723	16.388	819.783	618.397
360.738	16.428	818.901	617.825
361.752	16.424	818.339	617.333
362.767	16.543	817.754	617.268
363.781	16.450	817.551	616.722
364.796	16.514	817.150	616.598
365.810	16.717	816.523	616.811
366.825	16.555	816.141	615.879
367.840	16.616	815.853	615.827
368.854	16.570	815.377	615.246
369.869	16.562	815.045	614.914
370.883	16.702	814.123	614.672
371.898	16.660	814.175	614.504
372.913	16.819	813.926	614.840
373.927	16.791	813.035	614.008
374.942	16.769	812.632	613.569
375.956	16.900	812.243	613.696
376.971	16.902	811.534	613.114
377.986	16.933	811.174	612.901
379.000	16.914	811.346	612.906
380.015	16.930	810.222	612.060
381.029	16.920	809.809	611.660
382.044	16.928	809.090	611.090
383.059	16.807	808.586	610.220
384.073	16.841	808.244	610.030
385.088	16.846	808.074	609.867
386.102	16.849	807.172	609.143
387.117	16.903	806.374	608.681
388.132	17.030	805.361	608.317
389.146	16.805	805.427	607.509
390.161	16.932	805.252	607.778
391.175	16.939	804.864	607.453
392.190	16.907	803.922	606.577
393.205	17.014	803.415	606.521
394.219	16.899	803.281	605.957
395.234	16.951	802.988	605.868
396.248	16.940	802.431	605.355
397.263	17.062	801.688	605.174
398.278	17.031	801.272	604.697
399.292	17.107	800.897	604.633
400.307	17.102	800.365	604.159
401.321	16.949	800.162	603.408
402.336	16.975	799.924	603.266
403.350	17.115	799.125	603.107
404.365	17.264	798.297	602.959
405.380	17.107	798.360	602.396
406.394	17.107	797.727	601.863
407.409	17.201	797.319	601.836
408.423	17.272	797.071	601.849
409.438	17.349	796.765	601.835
410.453	17.305	796.353	601.315
411.467	17.417	795.597	601.086
412.482	17.337	795.545	600.714
413.496	17.455	795.170	600.794
414.511	17.276	794.676	599.735
415.526	17.361	794.424	599.791
416.540	17.477	793.998	599.825
417.555	17.476	793.062	599.063
418.569	17.386	792.918	598.584
419.584	17.463	792.100	598.183
420.599	17.566	791.810	598.274
421.613	108.891	1289.259	1464.813
422.628	93.503	1361.702	1464.914
