DTS Sentinel unit serial number:	SN413079Multiplexer serial number:	ORYXHardware model number:	OX4-SRSoftware version number:	ORYX F/W v4.00 Oryx Data Collector v3.7.2.0data status	okinstallation	princeton_trtdifferential loss correction	single-endedforward channel	channel 1reverse channel	N/Adate	2019/09/19time	13:26:35forward acquisition time	60.00reverse acquisition time	0.00gamma	496.2192k internal	0.2327k external	0.2327temperature offset calibration	1.0013default loss term (dB/km)	0.3790temperature slope calibration	1.0000multiplexer offset coefficient	1.0000multiplexer slope coefficient	1.0000fibre end	0.00T internal ref (°C)	29.87T ext. ref 1 (°C)	0.96T ext. ref 2 (°C)	27.00length (m)	temperature (°C)	Stokes	anti-Stokes-747.200	115.164	0.055	0.067
-746.185	133.674	-0.233	0.304
-745.171	-42.675	0.245	0.126
-744.156	222.910	0.196	0.318
-743.142	-156.700	0.184	-0.011
-742.127	160.684	0.143	-0.201
-741.112	57.676	0.186	-0.184
-740.098	-134.372	-0.113	-0.014
-739.083	217.683	0.151	-0.243
-738.069	-98.233	0.108	0.028
-737.054	-71.111	-0.296	0.112
-736.039	232.867	-0.141	-0.234
-735.025	-64.977	0.284	0.116
-734.010	800.000	-0.089	-0.254
-732.996	-200.000	0.036	-0.261
-731.981	1.880	-0.180	0.131
-730.966	117.872	-0.157	-0.194
-729.952	-47.083	-0.135	-0.067
-728.937	-9.363	-0.245	-0.165
-727.923	800.000	0.031	-0.096
-726.908	-48.777	-0.140	0.068
-725.894	-45.334	-0.263	-0.131
-724.879	147.736	0.053	0.072
-723.864	420.675	0.181	-0.390
-722.850	132.694	-0.196	0.255
-721.835	627.091	-0.019	0.048
-720.821	-200.000	-0.031	0.287
-719.806	-93.991	-0.143	0.040
-718.791	278.866	-0.089	-0.160
-717.777	-177.916	0.153	0.004
-716.762	-153.978	-0.106	0.007
-715.748	140.279	0.157	0.208
-714.733	-11.663	-0.068	-0.045
-713.718	-41.057	0.085	0.044
-712.704	211.634	-0.230	0.364
-711.689	-73.257	-0.122	-0.045
-710.675	-66.894	0.128	0.051
-709.660	83.046	-0.288	-0.315
-708.645	-135.603	0.114	0.014
-707.631	-17.815	0.154	0.097
-706.616	-200.000	-0.012	-0.155
-705.602	800.000	0.109	0.365
-704.587	110.778	-0.175	-0.212
-703.572	-91.782	0.208	-0.059
-702.558	-18.260	0.104	-0.065
-701.543	-110.461	-0.055	-0.011
-700.529	-167.235	-0.194	-0.008
-699.514	233.721	0.205	0.340
-698.499	-104.106	0.207	0.048
-697.485	-32.589	0.161	0.090
-696.470	-200.000	-0.011	-0.114
-695.456	-77.596	0.272	0.095
-694.441	-79.613	0.185	-0.063
-693.426	-79.545	-0.069	0.023
-692.412	-58.051	-0.063	-0.028
-691.397	-27.032	-0.084	-0.050
-690.383	40.233	0.284	0.257
-689.368	800.000	-0.111	0.470
-688.354	-8.320	-0.189	0.128
-687.339	-5.441	-0.195	0.135
-686.324	794.288	-0.044	-0.123
-685.310	-183.821	0.071	-0.001
-684.295	800.000	0.055	-0.206
-683.281	-103.739	-0.169	-0.040
-682.266	-5.910	0.223	-0.154
-681.251	800.000	-0.071	0.246
-680.237	-200.000	-0.028	-0.192
-679.222	-34.368	-0.284	-0.157
-678.208	-200.000	0.015	0.075
-677.193	-7.706	-0.040	0.027
-676.178	-56.339	0.102	-0.045
-675.164	184.141	-0.077	0.115
-674.149	355.966	-0.223	0.446
-673.135	-49.805	-0.049	0.024
-672.120	250.372	0.168	0.287
-671.105	117.886	-0.424	-0.525
-670.091	134.968	0.041	0.054
-669.076	-10.509	-0.098	0.065
-668.062	307.075	0.064	0.120
-667.047	-193.648	0.378	0.003
-666.032	81.767	0.143	0.156
-665.018	181.817	0.172	-0.255
-664.003	-118.635	-0.124	-0.022
-662.989	-60.858	-0.312	-0.133
-661.974	2.099	-0.231	-0.168
-660.959	-200.000	-0.183	-0.000
-659.945	-12.167	-0.293	0.193
-658.930	-153.300	0.110	0.008
-657.916	-115.587	0.064	0.012
-656.901	69.160	0.317	-0.328
-655.886	94.851	0.183	0.209
-654.872	800.000	-0.090	-0.330
-653.857	-83.266	-0.167	0.054
-652.843	-200.000	-0.014	0.210
-651.828	-5.878	0.311	0.214
-650.814	-200.000	-0.010	0.131
-649.799	-200.000	-0.061	-0.283
-648.784	-25.761	-0.123	0.073
-647.770	-2.113	-0.208	-0.147
-646.755	378.193	0.135	-0.276
-645.741	-39.735	-0.320	-0.168
-644.726	-160.830	-0.128	0.007
-643.711	173.369	0.187	-0.270
-642.697	-132.855	-0.134	0.017
-641.682	117.762	-0.063	0.078
-640.668	-60.189	-0.055	-0.024
-639.653	-91.565	-0.323	0.092
-638.638	800.000	0.038	-0.117
-637.624	754.548	0.046	0.124
-636.609	49.086	0.253	0.238
-635.595	427.008	-0.048	-0.105
-634.580	-90.938	0.348	0.101
-633.565	215.923	-0.035	0.056
-632.551	-65.764	-0.090	-0.036
-631.536	800.000	0.046	0.130
-630.522	25.839	0.276	-0.231
-629.507	51.228	0.147	0.140
-628.492	647.146	0.102	0.262
-627.478	-21.214	0.271	-0.166
-626.463	-78.258	0.210	-0.072
-625.449	-200.000	0.045	0.372
-624.434	121.931	-0.116	-0.146
-623.419	800.000	-0.045	-0.144
-622.405	-200.000	0.005	-0.110
-621.390	-200.000	-0.013	-0.156
-620.376	-56.447	0.111	0.049
-619.361	800.000	-0.030	0.130
-618.346	119.539	-0.134	0.166
-617.332	-95.464	0.349	0.094
-616.317	-8.686	0.163	0.110
-615.303	396.503	-0.034	-0.072
-614.288	730.527	0.153	0.409
-613.273	188.099	-0.070	0.105
-612.259	17.297	-0.285	-0.227
-611.244	459.508	-0.026	0.058
-610.230	-158.913	-0.197	0.011
-609.215	100.288	0.211	-0.245
-608.201	800.000	-0.039	0.123
-607.186	-121.175	0.045	-0.008
-606.171	15.872	0.226	0.178
-605.157	186.339	-0.115	-0.171
-604.142	800.000	0.054	-0.150
-603.128	106.981	-0.017	0.020
-602.113	84.501	0.183	-0.201
-601.098	-21.470	-0.301	0.184
-600.084	212.210	0.061	0.097
-599.069	55.251	-0.204	0.198
-598.055	585.909	0.107	-0.263
-597.040	-200.000	-0.024	-0.193
-596.025	-118.457	0.049	-0.009
-595.011	-32.384	-0.233	0.130
-593.996	-184.512	0.081	0.001
-592.982	-19.293	-0.060	-0.037
-591.967	6.183	0.059	-0.044
-590.952	-200.000	-0.004	-0.138
-589.938	-29.991	-0.168	-0.096
-588.923	-18.619	0.257	0.161
-587.909	242.795	0.035	-0.059
-586.894	-71.100	-0.294	-0.111
-585.879	-73.773	-0.272	0.099
-584.865	800.000	-0.046	-0.130
-583.850	800.000	0.043	-0.127
-582.836	-98.812	-0.069	-0.018
-581.821	-200.000	0.048	-0.280
-580.806	800.000	0.032	0.093
-579.792	-2.433	0.051	0.036
-578.777	-43.600	-0.433	-0.219
-577.763	-117.525	-0.129	-0.023
-576.748	800.000	0.040	-0.149
-575.733	-38.945	-0.083	-0.044
-574.719	-184.049	0.133	-0.002
-573.704	-200.000	-0.052	0.464
-572.690	268.310	-0.244	0.428
-571.675	-99.660	-0.263	0.066
-570.661	-62.508	-0.109	0.045
-569.646	19.433	-0.218	0.176
-568.631	800.000	0.043	0.149
-567.617	417.255	-0.056	0.119
-566.602	-173.132	-0.068	-0.002
-565.588	800.000	0.075	0.271
-564.573	-200.000	-0.043	0.224
-563.558	-200.000	-0.003	0.238
-562.544	32.244	-0.239	0.207
-561.529	118.583	0.116	0.143
-560.515	9.596	-0.049	-0.037
-559.500	-64.521	-0.250	0.102
-558.485	-174.576	-0.338	-0.010
-557.471	87.340	0.068	-0.075
-556.456	-200.000	-0.026	-0.252
-555.442	246.699	-0.156	-0.263
-554.427	800.000	-0.063	-0.245
-553.412	779.649	-0.033	0.089
-552.398	-38.812	-0.116	-0.061
-551.383	-200.000	-0.010	-0.292
-550.369	-185.272	-0.211	0.003
-549.354	156.978	-0.212	0.294
-548.339	709.811	0.063	0.166
-547.325	325.423	-0.058	-0.111
-546.310	-30.670	0.170	-0.096
-545.296	800.000	0.025	0.106
-544.281	-31.769	0.108	0.061
-543.266	243.179	-0.146	-0.244
-542.252	-61.660	0.418	-0.176
-541.237	179.900	-0.284	0.417
-540.223	-91.041	0.186	0.054
-539.208	149.280	0.173	0.234
-538.193	-48.825	0.261	0.125
-537.179	33.608	-0.228	-0.198
-536.164	-87.887	-0.293	0.088
-535.150	118.901	-0.113	-0.139
-534.135	306.429	0.059	0.110
-533.121	-54.849	0.329	0.148
-532.106	-70.425	-0.052	-0.020
-531.091	366.463	-0.078	0.157
-530.077	30.995	0.145	-0.125
-529.062	-106.140	0.364	-0.082
-528.048	-7.007	0.215	0.146
-527.033	139.820	-0.211	-0.278
-526.018	-9.659	0.201	-0.134
-525.004	31.337	0.155	-0.133
-523.989	-200.000	0.012	0.218
-522.975	-200.000	0.014	-0.168
-521.960	-82.247	-0.398	-0.130
-520.945	-200.000	0.025	0.156
-519.931	177.189	0.054	-0.079
-518.916	288.521	-0.075	0.136
-517.902	140.595	0.083	-0.110
-516.887	-200.000	0.041	-0.244
-515.872	-200.000	-0.029	0.228
-514.858	22.073	-0.122	-0.099
-513.843	-91.354	0.392	-0.112
-512.829	-24.625	0.186	-0.110
-511.814	-103.216	0.432	-0.102
-510.799	31.731	-0.070	0.060
-509.785	-154.888	0.185	0.012
-508.770	-200.000	-0.006	-0.033
-507.756	21.887	0.109	0.089
-506.741	-72.420	0.247	0.091
-505.726	-145.677	-0.080	-0.007
-504.712	218.117	-0.127	0.202
-503.697	-83.944	-0.146	-0.047
-502.683	-2.994	-0.181	0.126
-501.668	-84.800	-0.149	0.047
-500.653	800.000	-0.078	0.234
-499.639	52.781	0.059	-0.056
-498.624	-200.000	0.023	0.295
-497.610	226.870	-0.114	-0.185
-496.595	-59.662	0.118	0.050
-495.581	-79.759	-0.309	-0.104
-494.566	800.000	-0.115	-0.362
-493.551	27.448	-0.116	0.097
-492.537	17.339	-0.092	0.073
-491.522	-59.149	-0.091	0.039
-490.508	800.000	-0.031	-0.105
-489.493	113.209	0.088	0.107
-488.478	-139.624	-0.081	0.009
-487.464	-99.588	-0.362	0.091
-486.449	-200.000	-0.097	-0.474
-485.435	321.308	-0.189	0.359
-484.420	106.899	-0.088	-0.104
-483.405	-99.753	-0.246	0.062
-482.391	170.038	0.116	-0.166
-481.376	-200.000	0.004	0.098
-480.362	-105.401	0.137	-0.031
-479.347	306.320	-0.224	-0.417
-478.332	-27.621	-0.227	-0.132
-477.318	-200.000	0.035	-0.284
-476.303	389.182	0.061	-0.125
-475.289	212.143	-0.153	-0.240
-474.274	211.763	-0.089	-0.139
-473.259	165.083	0.174	-0.245
-472.245	-63.076	0.088	-0.036
-471.230	-28.257	0.223	0.129
-470.216	42.740	-0.100	-0.091
-469.201	41.835	-0.187	-0.169
-468.186	-200.000	0.002	0.179
-467.172	-107.453	0.070	-0.015
-466.157	91.993	-0.141	0.158
-465.143	800.000	-0.023	-0.075
-464.128	800.000	-0.124	-0.366
-463.113	32.758	0.045	-0.039
-462.099	81.486	0.203	-0.218
-461.084	-200.000	-0.013	-0.140
-460.070	800.000	0.041	-0.131
-459.055	39.622	-0.213	-0.191
-458.040	-135.827	-0.226	0.027
-457.026	-200.000	0.062	-0.358
-456.011	-200.000	0.023	-0.299
-454.997	150.228	-0.210	0.284
-453.982	-112.814	-0.410	-0.081
-452.968	777.794	0.008	-0.022
-451.953	-151.595	-0.052	0.004
-450.938	262.202	0.108	-0.187
-449.924	-41.909	-0.240	-0.122
-448.909	800.000	-0.083	0.257
-447.895	-102.960	0.008	-0.002
-446.880	88.185	0.213	0.236
-445.865	68.194	0.143	-0.146
-444.851	-23.977	0.059	0.035
-443.836	-200.000	0.061	0.269
-442.822	-33.441	0.151	-0.083
-441.807	-155.653	0.351	-0.022
-440.792	-200.000	-0.017	-0.133
-439.778	800.000	-0.082	0.256
-438.763	36.156	-0.211	-0.185
-437.749	16.996	-0.117	-0.093
-436.734	-34.370	0.239	-0.131
-435.719	91.991	-0.093	0.105
-434.705	-10.595	0.109	0.072
-433.690	645.785	0.115	0.293
-432.676	11.689	-0.170	-0.130
-431.661	62.651	-0.219	-0.218
-430.646	22.392	-0.101	0.082
-429.632	-59.773	0.163	-0.069
-428.617	-200.000	-0.015	-0.193
-427.603	-27.013	-0.212	0.123
-426.588	-167.761	-0.034	-0.001
-425.573	64.339	-0.278	0.279
-424.559	101.058	0.198	0.229
-423.544	248.136	-0.020	-0.033
-422.530	61.968	0.115	-0.115
-421.515	76.416	0.131	0.138
-420.500	274.084	0.113	0.200
-419.486	-37.695	-0.142	-0.076
-418.471	179.269	0.097	0.142
-417.457	-77.292	-0.312	0.108
-416.442	4.229	0.360	-0.262
-415.428	221.020	-0.098	-0.156
-414.413	-162.701	0.298	0.015
-413.398	-200.000	0.010	0.043
-412.384	-151.109	-0.248	-0.019
-411.369	155.280	0.108	0.148
-410.355	-58.610	0.230	-0.099
-409.340	705.281	-0.110	-0.288
-408.325	-10.882	-0.234	-0.154
-407.311	31.470	0.094	0.080
-406.296	251.152	-0.074	-0.125
-405.282	-121.401	-0.695	-0.115
-404.267	54.469	0.111	0.107
-403.252	-170.715	-0.269	-0.009
-402.238	-64.498	0.402	-0.163
-401.223	-200.000	-0.027	0.124
-400.209	-200.000	0.010	0.122
-399.194	-47.540	-0.102	-0.050
-398.179	800.000	0.127	0.379
-397.165	-200.000	0.008	-0.176
-396.150	17.048	-0.329	-0.259
-395.136	107.671	-0.080	0.095
-394.121	-61.078	0.209	0.088
-393.106	-58.453	-0.452	-0.195
-392.092	-181.311	-0.167	-0.003
-391.077	765.470	-0.063	0.171
-390.063	-164.725	-0.030	-0.001
-389.048	800.000	-0.042	0.126
-388.033	-42.021	0.107	-0.055
-387.019	800.000	-0.089	-0.369
-386.004	41.602	-0.103	0.093
-384.990	-22.095	0.217	0.131
-383.975	214.914	0.039	0.062
-382.960	-136.926	-0.213	0.024
-381.946	-40.012	0.149	0.077
-380.931	11.128	-0.093	0.071
-379.917	135.376	0.193	-0.250
-378.902	535.284	-0.064	-0.150
-377.888	38.773	-0.203	0.180
-376.873	800.000	-0.045	-0.172
-375.858	-57.491	0.171	-0.075
-374.844	305.453	0.110	-0.204
-373.829	18.555	0.322	0.256
-372.815	115.819	0.228	-0.278
-371.800	-127.018	0.187	-0.027
-370.785	-25.230	0.186	0.110
-369.771	329.722	0.099	0.189
-368.756	16.779	0.292	-0.230
-367.742	68.332	-0.083	0.084
-366.727	122.494	0.159	-0.197
-365.712	800.000	0.046	0.163
-364.698	-200.000	0.026	-0.183
-363.683	-26.061	0.363	0.212
-362.669	-43.817	0.318	0.159
-361.654	27.492	-0.046	0.038
-360.639	800.000	-0.014	0.039
-359.625	21.039	-0.053	-0.043
-358.610	-10.324	0.357	-0.235
-357.596	586.917	-0.108	-0.265
-356.581	-133.996	0.400	0.049
-355.566	-70.852	-0.296	-0.111
-354.552	800.000	-0.083	0.321
-353.537	800.000	-0.093	-0.306
-352.523	-200.000	-0.005	0.267
-351.508	-200.000	-0.006	0.342
-350.493	12.740	0.205	0.157
-349.479	-29.919	-0.170	-0.096
-348.464	-68.046	-0.163	-0.063
-347.450	314.191	0.052	0.097
-346.435	-32.956	0.077	-0.042
-345.420	75.090	0.045	0.047
-344.406	-112.551	0.450	0.089
-343.391	15.313	-0.265	-0.206
-342.377	-148.523	-0.172	0.014
-341.362	-67.958	-0.282	-0.109
-340.348	71.209	-0.037	0.038
-339.333	331.988	-0.077	0.148
-338.318	-76.199	-0.300	0.105
-337.304	-130.099	0.146	-0.020
-336.289	294.171	-0.156	-0.282
-335.275	800.000	0.040	-0.144
-334.260	-200.000	0.006	0.128
-333.245	800.000	0.060	0.178
-332.231	-200.000	-0.016	0.099
-331.216	-49.250	-0.020	0.010
-330.202	-91.794	0.106	-0.030
-329.187	537.817	0.081	0.191
-328.172	-200.000	0.038	-0.257
-327.158	-62.051	-0.178	-0.074
-326.143	-45.146	-0.149	0.073
-325.129	-97.379	0.108	0.028
-324.114	800.000	0.177	0.495
-323.099	-14.885	0.086	0.055
-322.085	-90.361	0.148	-0.043
-321.070	-200.000	-0.012	0.076
-320.056	-32.970	0.152	-0.083
-319.041	230.112	0.076	0.123
-318.026	-24.049	0.172	0.102
-317.012	-200.000	-0.037	-0.234
-315.997	26.139	-0.183	0.151
-314.983	-65.067	-0.357	0.143
-313.968	-13.067	-0.127	-0.082
-312.953	-40.415	-0.108	-0.056
-311.939	800.000	0.040	-0.127
-310.924	25.683	0.153	0.126
-309.910	-9.646	0.325	0.215
-308.895	76.278	0.302	0.317
-307.880	800.000	-0.156	-0.450
-306.866	-142.614	-0.150	0.015
-305.851	-158.328	-0.154	0.009
-304.837	-130.147	0.093	0.013
-303.822	143.354	0.183	0.242
-302.807	800.000	-0.062	0.266
-301.793	-71.705	0.158	0.058
-300.778	-91.126	-0.207	0.059
-299.764	161.130	-0.035	-0.048
-298.749	17.540	-0.122	-0.096
-297.735	283.296	-0.064	0.113
-296.720	78.900	0.111	0.118
-295.705	-119.524	0.082	-0.014
-294.691	234.498	0.109	0.179
-293.676	46.341	-0.125	0.115
-292.662	800.000	-0.077	0.228
-291.647	-53.921	0.354	-0.160
-290.632	5.885	0.022	-0.016
-289.618	-106.289	0.282	-0.062
-288.603	-62.048	-0.395	0.163
-287.589	-0.166	-0.221	0.156
-286.574	-200.000	0.012	-0.181
-285.559	-200.000	-0.024	-0.174
-284.545	800.000	0.094	0.298
-283.530	800.000	0.095	0.398
-282.516	-153.858	0.314	0.021
-281.501	-18.878	-0.075	-0.046
-280.486	-200.000	0.064	0.355
-279.472	-44.877	-0.127	-0.062
-278.457	-200.000	-0.041	0.402
-277.443	223.936	-0.166	0.265
-276.428	-95.329	-0.148	-0.040
-275.413	-71.910	-0.110	0.041
-274.399	-192.018	0.202	0.002
-273.384	117.836	0.035	0.042
-272.370	350.224	0.092	0.180
-271.355	-93.672	-0.257	-0.070
-270.340	-200.000	0.029	-0.166
-269.326	-131.544	-0.097	0.013
-268.311	800.000	0.066	-0.196
-267.297	-142.360	-0.183	-0.018
-266.282	-191.581	0.286	-0.003
-265.267	-200.000	-0.003	0.019
-264.253	-89.542	0.191	-0.056
-263.238	-86.586	0.252	-0.077
-262.224	-110.380	-0.213	-0.044
-261.209	130.448	0.202	-0.256
-260.195	563.874	0.044	0.104
-259.180	-28.897	-0.065	0.037
-258.165	403.188	-0.027	0.057
-257.151	-167.858	-0.100	-0.004
-256.136	800.000	0.056	0.205
-255.122	62.542	-0.068	-0.067
-254.107	-200.000	0.078	-0.417
-253.092	-51.746	0.114	-0.052
-252.078	187.463	0.052	0.076
-251.063	233.458	0.134	0.218
-250.049	86.420	-0.310	-0.338
-249.034	461.692	0.053	0.118
-248.019	-81.829	0.606	-0.196
-247.005	-41.621	0.476	-0.242
-245.990	-158.930	-0.431	-0.024
-244.976	101.840	0.091	-0.105
-243.961	800.000	0.121	-0.340
-242.946	-191.551	0.313	0.003
-241.932	59.619	0.179	-0.174
-240.917	-2.354	-0.199	-0.138
-239.903	91.433	0.044	-0.049
-238.888	239.938	0.160	0.264
-237.873	224.679	0.052	-0.083
-236.859	-29.402	-0.373	-0.211
-235.844	-200.000	0.014	0.103
-234.830	800.000	-0.020	0.055
-233.815	17.142	0.210	0.164
-232.800	800.000	0.073	-0.215
-231.786	151.426	-0.077	-0.103
-230.771	-200.000	-0.021	0.171
-229.757	-200.000	-0.010	0.073
-228.742	800.000	0.055	0.164
-227.727	-200.000	-0.069	0.337
-226.713	-200.000	-0.006	-0.203
-225.698	175.026	-0.068	0.097
-224.684	800.000	-0.049	0.185
-223.669	277.553	0.075	0.132
-222.655	174.388	0.180	0.257
-221.640	-50.636	-0.193	-0.090
-220.625	76.475	-0.059	-0.062
-219.611	-200.000	0.011	0.131
-218.596	-2.915	0.216	0.149
-217.582	238.991	0.156	-0.257
-216.567	-149.316	0.276	-0.022
-215.552	-105.541	-0.194	-0.043
-214.538	-122.257	0.201	-0.032
-213.523	537.440	-0.027	0.062
-212.509	-159.885	0.171	-0.009
-211.494	-96.003	0.555	0.146
-210.479	-33.361	-0.299	-0.163
-209.465	-14.603	-0.338	-0.215
-208.450	-156.871	0.118	-0.007
-207.436	-200.000	0.016	-0.129
-206.421	52.172	-0.273	-0.257
-205.406	-55.796	0.188	0.083
-204.392	346.563	0.089	-0.173
-203.377	800.000	-0.056	-0.230
-202.363	-19.709	0.368	0.225
-201.348	-200.000	0.024	0.173
-200.333	71.068	-0.334	-0.341
-199.319	-200.000	0.012	0.064
-198.304	-49.934	0.103	-0.048
-197.290	-200.000	-0.032	0.343
-196.275	395.767	0.148	0.304
-195.260	24.312	0.039	0.032
-194.246	173.016	-0.155	0.220
-193.231	-11.419	-0.097	-0.063
-192.217	-166.523	-0.111	0.005
-191.202	-110.901	0.236	-0.048
-190.187	-200.000	-0.018	-0.254
-189.173	-148.989	-0.357	0.028
-188.158	523.338	0.049	0.114
-187.144	-200.000	-0.012	0.063
-186.129	-34.462	0.041	0.022
-185.114	180.030	0.058	0.083
-184.100	310.376	-0.030	0.056
-183.085	-132.582	-0.135	0.017
-182.071	800.000	-0.132	0.430
-181.056	-94.954	0.282	0.075
-180.042	-51.291	0.122	-0.056
-179.027	4.051	-0.156	-0.112
-178.012	-5.634	0.108	0.073
-176.998	269.356	-0.095	-0.164
-175.983	-110.995	-0.272	-0.055
-174.969	318.647	-0.123	0.229
-173.954	117.622	0.018	0.022
-172.939	-200.000	0.026	-0.207
-171.925	543.918	0.111	0.261
-170.910	-200.000	0.049	-0.237
-169.896	-200.000	-0.015	0.127
-168.881	488.219	-0.069	-0.156
-167.866	-200.000	0.006	-0.251
-166.852	-200.000	0.073	-0.438
-165.837	-115.905	0.276	-0.051
-164.823	-152.545	-0.348	-0.025
-163.808	23.739	0.187	0.152
-162.793	-60.565	0.158	0.066
-161.779	55.293	0.096	-0.092
-160.764	2.670	0.035	-0.025
-159.750	-141.705	-0.119	-0.012
-158.735	-65.120	0.130	0.052
-157.720	-29.744	0.118	-0.066
-156.706	800.000	-0.056	-0.231
-155.691	495.064	-0.094	0.212
-154.677	95.669	0.220	0.247
-153.662	-200.000	-0.023	-0.140
-152.647	243.329	-0.092	0.152
-151.633	34.144	0.138	0.119
-150.618	549.879	0.087	-0.206
-149.604	-28.362	-0.028	-0.016
-148.589	57.172	0.133	0.128
-147.574	569.718	0.102	-0.243
-146.560	-147.896	-0.297	-0.024
-145.545	-17.445	-0.232	-0.144
-144.531	40.049	0.196	-0.174
-143.516	10.664	0.294	-0.221
-142.502	-127.549	0.101	0.014
-141.487	294.523	-0.158	-0.285
-140.472	800.000	0.032	-0.118
-139.458	757.443	-0.089	0.237
-138.443	86.400	0.218	-0.237
-137.429	-200.000	-0.013	0.189
-136.414	93.726	-0.158	-0.177
-135.399	-89.969	0.043	-0.012
-134.385	46.804	0.106	0.097
-133.370	-200.000	0.003	0.261
-132.356	-88.947	-0.351	-0.102
-131.341	-8.760	0.218	0.144
-130.326	-69.879	-0.040	-0.015
-129.312	-200.000	-0.007	0.271
-128.297	174.039	-0.243	0.346
-127.283	-123.444	0.236	0.037
-126.268	-82.671	0.094	-0.030
-125.253	668.006	0.071	0.182
-124.239	-200.000	0.027	0.308
-123.224	48.553	0.188	0.173
-122.210	163.120	-0.094	0.129
-121.195	800.000	-0.085	0.315
-120.180	-200.000	-0.023	-0.104
-119.166	49.995	0.055	0.051
-118.151	-115.381	0.438	0.081
-117.137	261.975	-0.159	0.270
-116.122	41.670	-0.068	0.061
-115.107	800.000	0.034	0.112
-114.093	-163.279	-0.278	0.013
-113.078	132.993	-0.143	0.182
-112.064	145.282	-0.089	0.117
-111.049	-157.188	0.164	0.010
-110.034	800.000	-0.043	-0.165
-109.020	-137.664	-0.229	-0.025
-108.005	-51.967	0.172	0.078
-106.991	-200.000	0.025	-0.193
-105.976	483.775	-0.055	0.122
-104.962	424.423	0.098	0.207
-103.947	800.000	0.076	-0.268
-102.932	-200.000	0.015	0.214
-101.918	478.800	0.131	0.292
-100.903	-89.010	0.447	0.130
-99.889	800.000	0.122	-0.369
-98.874	-95.629	-0.332	0.087
-97.859	44.071	0.294	0.265
-96.845	0.053	0.306	-0.214
-95.830	289.269	-0.139	-0.247
-94.816	-87.895	0.151	-0.045
-93.801	-200.000	0.003	0.212
-92.786	-40.682	-0.213	0.109
-91.772	50.496	-0.255	-0.237
-90.757	-38.381	0.114	-0.059
-89.743	672.425	-0.031	-0.079
-88.728	-143.129	-0.311	-0.029
-87.713	90.589	0.049	-0.054
-86.699	243.407	-0.163	0.269
-85.684	-49.724	0.165	0.077
-84.670	149.019	0.061	-0.081
-83.655	-13.741	-0.227	-0.144
-82.640	-15.075	0.132	-0.083
-81.626	-36.515	-0.398	0.211
-80.611	-12.242	0.028	0.018
-79.597	-200.000	-0.019	0.367
-78.582	-111.337	0.165	0.033
-77.567	-28.431	-0.140	-0.079
-76.553	378.299	0.052	-0.104
-75.538	-182.393	0.057	-0.001
-74.524	-137.576	-0.260	0.029
-73.509	-78.778	0.559	-0.187
-72.494	-75.949	0.196	0.068
-71.480	14.969	0.238	0.183
-70.465	-12.664	-0.069	0.044
-69.451	103.271	0.048	-0.055
-68.436	800.000	-0.050	-0.186
-67.422	207.634	0.003	-0.004
-66.407	38.115	-0.031	-0.027
-65.392	24.595	-0.165	0.134
-64.378	109.819	-0.119	-0.140
-63.363	200.683	0.025	-0.037
-62.349	-24.943	0.235	-0.137
-61.334	84.677	-1.101	-1.183
-60.319	110.120	0.438	0.517
-59.305	-200.000	-0.231	-1.052
-58.290	264.138	0.623	1.063
-57.276	149.344	1.143	1.519
-56.261	-200.000	102.279	575.605
-55.246	448.261	1469.595	3176.555
-54.232	144.022	2686.910	3516.706
-53.217	106.794	2200.385	2562.996
-52.203	41.895	1632.748	1453.142
-51.188	33.405	1363.407	1161.587
-50.173	30.273	1321.104	1106.856
-49.159	53.746	1372.583	1293.224
-48.144	54.399	1388.829	1312.445
-47.130	33.578	1344.577	1146.408
-46.115	30.067	1327.755	1111.015
-45.100	29.853	1322.102	1104.963
-44.086	29.806	1319.822	1102.729
-43.071	29.763	1317.498	1100.489
-42.057	29.770	1314.963	1098.370
-41.042	29.742	1313.643	1097.060
-40.027	29.824	1312.360	1096.428
-39.013	29.784	1309.826	1094.032
-37.998	29.893	1308.181	1093.258
-36.984	29.912	1306.339	1091.786
-35.969	29.825	1305.270	1090.338
-34.954	29.935	1302.944	1089.000
-33.940	29.894	1301.915	1087.856
-32.925	29.957	1300.278	1086.813
-31.911	30.014	1298.430	1085.562
-30.896	29.913	1297.329	1084.008
-29.881	30.028	1295.994	1083.522
-28.867	29.932	1294.561	1081.717
-27.852	29.971	1293.163	1080.733
-26.838	29.924	1291.652	1079.156
-25.823	29.990	1290.375	1078.428
-24.809	29.952	1289.141	1077.136
-23.794	29.944	1287.803	1075.926
-22.779	30.039	1285.703	1074.683
-21.765	29.990	1284.564	1073.401
-20.750	29.996	1283.417	1072.434
-19.736	29.837	1282.274	1070.516
-18.721	29.911	1281.121	1069.941
-17.706	29.821	1279.930	1068.382
-16.692	29.766	1279.019	1067.264
-15.677	29.734	1278.286	1066.427
-14.663	29.806	1276.877	1065.621
-13.648	29.882	1275.158	1064.585
-12.633	29.816	1274.384	1063.513
-11.619	29.808	1273.369	1062.583
-10.604	29.726	1273.126	1061.865
-9.590	29.759	1271.956	1061.032
-8.575	29.722	1270.817	1059.831
-7.560	29.865	1269.788	1059.748
-6.546	29.838	1268.661	1058.612
-5.531	29.800	1268.067	1057.856
-4.517	29.800	1267.486	1057.333
-3.502	29.829	1266.771	1056.856
-2.487	29.792	1265.599	1055.630
-1.473	29.889	1261.945	1053.090
-0.458	28.984	1246.952	1035.443
0.556	24.964	1230.647	999.739
1.571	21.025	1236.478	982.247
2.586	19.584	1250.634	985.191
3.600	18.406	1238.401	968.812
4.615	13.389	1163.809	883.649
5.629	5.126	1087.377	784.161
6.644	1.225	1067.476	750.473
7.659	0.880	1065.450	747.280
8.673	0.861	1064.620	746.539
9.688	0.874	1063.484	745.739
10.702	1.051	1061.783	745.349
11.717	5.643	1067.814	772.193
12.731	13.335	1077.269	817.093
13.746	17.098	1081.300	838.704
14.761	17.433	1081.640	840.549
15.775	16.654	1079.829	835.225
16.790	15.649	1077.641	828.507
17.804	14.894	1076.599	823.910
18.819	14.696	1074.754	821.454
19.834	14.423	1074.068	819.512
20.848	14.170	1072.926	817.325
21.863	13.891	1072.132	815.281
22.877	13.746	1071.619	814.105
23.892	13.592	1071.017	812.822
24.907	13.593	1070.182	812.120
25.921	13.682	1069.112	811.671
26.936	13.682	1068.542	811.169
27.950	13.737	1067.453	810.540
28.965	13.867	1065.977	809.980
29.980	13.817	1065.246	809.111
30.994	13.979	1063.466	808.476
32.009	13.903	1062.741	807.483
33.023	13.799	1061.883	806.253
34.038	13.860	1060.951	805.772
35.053	13.766	1060.166	804.649
36.067	13.742	1059.145	803.687
37.082	13.902	1058.108	803.600
38.096	13.922	1057.328	803.035
39.111	13.789	1057.005	802.077
40.126	13.845	1055.696	801.282
41.140	13.724	1054.519	799.733
42.155	13.595	1053.610	798.352
43.169	13.670	1052.500	797.803
44.184	13.700	1051.382	797.028
45.199	13.667	1050.114	795.838
46.213	13.663	1049.358	795.173
47.228	13.773	1048.492	794.975
48.242	13.744	1047.062	793.684
49.257	13.812	1045.986	793.120
50.271	13.861	1044.828	792.409
51.286	13.833	1044.392	791.871
52.301	13.817	1043.552	791.087
53.315	13.681	1042.686	789.714
54.330	13.743	1041.119	788.753
55.344	13.674	1040.452	787.850
56.359	13.733	1039.459	787.309
57.374	13.705	1038.870	786.660
58.388	13.715	1037.913	785.915
59.403	13.672	1037.574	785.383
60.417	13.801	1036.485	785.101
61.432	13.647	1035.653	783.671
62.447	13.763	1034.570	783.332
63.461	13.620	1034.375	782.440
64.476	13.550	1033.251	781.188
65.490	13.630	1032.177	780.687
66.505	13.722	1031.296	780.383
67.520	13.681	1030.962	779.870
68.534	13.646	1030.213	779.067
69.549	13.684	1029.308	778.493
70.563	13.587	1028.557	777.402
71.578	13.601	1027.736	776.779
72.593	13.715	1026.853	776.574
73.607	13.567	1026.615	775.635
74.622	13.651	1025.049	774.773
75.636	13.604	1024.836	774.324
76.651	13.630	1023.806	773.599
77.666	13.519	1023.691	772.928
78.680	13.514	1022.883	772.227
79.695	13.639	1022.086	772.137
80.709	13.600	1021.543	771.477
81.724	13.597	1020.695	770.752
82.739	13.751	1019.429	770.447
83.753	13.864	1018.657	770.320
84.768	13.790	1018.103	769.490
85.782	13.862	1017.043	768.952
86.797	13.770	1016.476	768.028
87.812	13.755	1015.447	767.117
88.826	13.580	1014.807	765.753
89.841	13.854	1013.259	765.781
90.855	13.841	1012.871	765.361
91.870	13.821	1012.118	764.632
92.884	13.878	1010.856	763.875
93.899	13.827	1010.625	763.399
94.914	13.948	1009.180	762.795
95.928	13.881	1008.688	762.049
96.943	13.848	1007.908	761.238
97.957	13.828	1006.884	760.309
98.972	13.819	1006.006	759.537
99.987	13.897	1004.981	759.053
101.001	13.827	1004.023	757.941
102.016	13.858	1003.199	757.392
103.030	13.823	1002.513	756.649
104.045	13.942	1001.487	756.350
105.060	13.861	1001.110	755.627
106.074	13.814	1000.238	754.688
107.089	13.736	999.281	753.548
108.103	13.761	998.285	752.842
109.118	13.780	997.244	752.079
110.133	13.672	996.548	750.997
111.147	13.684	995.802	750.420
112.162	13.762	994.770	749.930
113.176	13.934	993.609	749.765
114.191	13.827	993.392	749.051
115.206	13.824	992.437	748.253
116.220	13.850	991.715	747.760
117.235	13.764	990.819	746.629
118.249	13.704	990.015	745.688
119.264	13.726	989.473	745.313
120.279	13.896	988.313	745.137
121.293	13.878	987.229	744.175
122.308	13.863	986.568	743.543
123.322	13.798	985.510	742.386
124.337	13.853	984.706	741.962
125.352	13.783	983.608	740.757
126.366	13.871	982.111	739.954
127.381	13.768	981.676	739.104
128.395	13.899	980.466	738.709
129.410	13.803	979.550	737.528
130.424	13.831	978.544	736.829
131.439	13.795	978.225	736.364
132.454	13.924	977.574	736.380
133.468	13.931	976.044	735.195
134.483	13.911	975.284	734.470
135.497	13.734	974.543	733.065
136.512	13.852	973.709	732.891
137.527	13.902	972.903	732.441
138.541	13.938	972.126	731.951
139.556	13.970	971.447	731.517
140.570	14.020	970.827	731.203
141.585	14.120	969.929	730.903
142.600	14.006	968.805	729.489
143.614	14.070	967.975	729.082
144.629	14.023	967.390	728.370
145.643	13.996	966.467	727.494
146.658	13.848	966.131	726.530
147.673	13.997	964.949	726.225
148.687	13.940	964.351	725.463
149.702	14.059	962.945	724.860
150.716	14.041	962.089	724.072
151.731	14.077	961.582	723.784
152.746	13.978	961.015	722.862
153.760	14.014	960.905	722.873
154.775	13.989	959.774	721.850
155.789	13.960	959.227	721.246
156.804	14.038	958.541	721.005
157.819	14.138	957.942	720.927
158.833	14.079	957.113	719.982
159.848	14.095	956.412	719.460
160.862	14.116	955.274	718.631
161.877	13.977	954.437	717.340
162.892	14.058	953.700	717.071
163.906	14.161	952.668	716.674
164.921	14.041	951.982	715.578
165.935	14.065	950.883	714.795
166.950	14.118	950.052	714.333
167.964	14.083	949.149	713.441
168.979	14.140	948.336	713.009
169.994	14.101	947.419	712.090
171.008	14.167	946.863	711.890
172.023	14.127	946.125	711.103
173.037	14.285	945.166	710.993
174.052	14.229	944.495	710.188
175.067	14.149	943.917	709.349
176.081	14.156	943.628	709.098
177.096	14.157	942.976	708.550
178.110	14.210	941.883	707.893
179.125	14.192	941.824	707.709
180.140	14.343	940.739	707.471
181.154	14.350	940.584	707.324
182.169	14.304	940.275	706.832
183.183	14.308	939.735	706.379
184.198	14.436	938.592	706.001
185.213	14.449	938.003	705.549
186.227	14.392	937.383	704.779
187.242	14.418	936.847	704.428
188.256	14.517	935.505	703.774
189.271	14.362	935.698	703.202
190.286	14.502	934.709	702.988
191.300	14.276	933.841	701.319
192.315	14.289	933.598	701.131
193.329	14.297	932.670	700.404
194.344	14.404	931.943	700.246
195.359	14.312	931.412	699.397
196.373	14.511	930.735	699.661
197.388	14.499	929.994	698.992
198.402	14.417	930.048	698.626
199.417	14.512	929.006	698.182
200.432	14.563	928.547	697.987
201.446	14.645	928.110	697.941
202.461	14.728	927.156	697.510
203.475	14.817	926.429	697.272
204.490	14.684	925.765	696.154
205.504	14.579	925.509	695.464
206.519	14.576	925.007	695.014
207.534	14.584	924.402	694.530
208.548	14.736	923.604	694.502
209.563	14.669	922.989	693.698
210.577	14.635	921.638	692.480
211.592	14.764	921.458	692.821
212.607	14.905	920.477	692.605
213.621	14.768	919.889	691.535
214.636	14.849	918.820	691.004
215.650	14.888	918.307	690.719
216.665	14.983	917.658	690.559
217.680	14.832	917.182	689.517
218.694	14.742	916.689	688.716
219.709	14.850	915.834	688.457
220.723	14.852	915.361	688.050
221.738	14.909	914.598	687.647
222.753	14.863	913.877	686.858
223.767	14.947	913.236	686.658
224.782	15.097	912.692	686.806
225.796	14.991	912.140	685.896
226.811	14.900	911.621	685.069
227.826	15.073	910.516	684.888
228.840	14.872	909.976	683.596
229.855	14.976	908.766	683.053
230.869	14.941	908.355	682.542
231.884	14.994	907.660	682.175
232.899	15.013	907.038	681.723
233.913	15.037	906.556	681.399
234.928	15.033	905.749	680.717
235.942	15.015	905.673	680.527
236.957	15.079	904.484	679.833
237.972	15.004	903.966	679.080
238.986	14.890	903.524	678.225
240.001	14.971	902.940	678.055
241.015	15.073	902.124	677.795
242.030	15.098	901.982	677.727
243.045	15.088	901.164	677.015
244.059	15.166	900.456	676.735
245.074	15.202	899.679	676.240
246.088	15.148	899.014	675.463
247.103	15.286	898.074	675.252
248.117	15.188	897.919	674.681
249.132	15.262	897.361	674.499
250.147	15.462	896.416	674.532
251.161	15.357	895.886	673.653
252.176	15.335	895.267	673.040
253.190	15.281	894.765	672.384
254.205	15.353	894.311	672.274
255.220	15.373	893.379	671.595
256.234	15.508	892.387	671.327
257.249	15.535	891.913	671.020
258.263	15.449	891.078	669.988
259.278	15.457	889.946	669.112
260.293	15.615	889.653	669.461
261.307	15.603	889.276	669.071
262.322	15.461	889.212	668.399
263.336	15.632	887.860	668.004
264.351	15.808	886.707	667.772
265.366	15.681	886.324	666.920
266.380	15.722	885.948	666.742
267.395	15.681	885.236	665.987
268.409	15.706	884.126	665.190
269.424	15.781	883.499	664.955
270.439	15.735	883.014	664.351
271.453	15.642	882.065	663.210
272.468	15.668	882.289	663.422
273.482	15.650	881.589	662.767
274.497	15.702	880.682	662.230
275.512	15.789	879.886	661.915
276.526	15.781	879.493	661.529
277.541	15.676	879.448	661.028
278.555	15.781	878.729	660.839
279.570	15.816	877.979	660.354
280.585	15.904	877.127	660.000
281.599	15.917	876.126	659.239
282.614	15.934	875.480	658.762
283.628	15.928	874.858	658.212
284.643	15.970	874.284	657.886
285.657	15.991	873.700	657.469
286.672	16.023	872.822	656.877
287.687	15.897	872.615	656.170
288.701	15.849	872.420	655.779
289.716	16.000	871.498	655.614
290.730	16.036	870.974	655.305
291.745	16.142	869.991	654.919
292.760	15.919	869.760	653.820
293.774	16.098	869.122	653.977
294.789	16.237	868.185	653.753
295.803	16.136	867.580	652.849
296.818	16.114	866.895	652.188
297.833	15.960	866.503	651.241
298.847	16.106	865.867	651.270
299.862	16.218	865.298	651.218
300.876	16.280	864.543	650.831
301.891	16.270	863.738	650.129
302.906	16.194	863.504	649.602
303.920	16.277	862.552	649.147
304.935	16.376	862.694	649.578
305.949	16.357	861.664	648.671
306.964	16.331	861.233	648.189
307.979	16.347	860.268	647.468
308.993	16.325	859.771	646.951
310.008	16.426	859.095	646.774
311.022	16.406	858.775	646.397
312.037	16.286	858.361	645.572
313.052	16.432	857.610	645.507
314.066	16.267	857.194	644.506
315.081	16.386	856.369	644.281
316.095	16.306	855.783	643.480
317.110	16.461	855.286	643.638
318.125	16.470	854.895	643.321
319.139	16.464	853.996	642.566
320.154	16.472	853.687	642.308
321.168	16.508	853.161	641.993
322.183	16.405	852.990	641.416
323.197	16.425	852.318	640.928
324.212	16.444	851.963	640.675
325.227	16.534	850.686	640.001
326.241	16.490	850.538	639.667
327.256	16.535	850.223	639.542
328.270	16.458	849.439	638.607
329.285	16.494	848.838	638.233
330.300	16.534	848.246	637.881
331.314	16.614	847.621	637.658
332.329	16.622	847.314	637.399
333.343	16.530	847.036	636.789
334.358	16.554	846.415	636.354
335.373	16.488	846.072	635.792
336.387	16.720	845.472	636.158
337.402	16.696	845.641	636.138
338.416	16.713	844.733	635.463
339.431	16.819	844.226	635.422
340.446	16.720	844.095	634.896
341.460	16.823	843.793	635.001
342.475	16.841	843.077	634.473
343.489	16.978	842.728	634.665
344.504	16.898	841.915	633.699
345.519	16.929	842.035	633.848
346.533	16.977	841.488	633.561
347.548	16.823	840.728	632.357
348.562	16.875	840.117	632.034
349.577	16.976	839.901	632.194
350.592	16.785	839.325	630.994
351.606	16.870	838.588	630.700
352.621	16.901	837.812	630.174
353.635	16.977	837.053	629.829
354.650	17.003	836.160	629.199
355.665	16.784	836.004	628.211
356.679	16.944	835.211	628.153
357.694	16.966	834.622	627.738
358.708	16.828	834.269	626.905
359.723	17.001	833.416	626.850
360.738	17.060	832.832	626.571
361.752	17.124	832.525	626.522
362.767	17.074	831.884	625.798
363.781	17.124	831.116	625.350
364.796	17.035	831.210	625.038
365.810	17.178	830.378	624.884
366.825	17.155	829.966	624.433
367.840	17.344	829.261	624.544
368.854	17.232	829.046	623.913
369.869	17.238	828.217	623.255
370.883	17.300	828.173	623.397
371.898	17.280	827.887	623.053
372.913	17.306	827.385	622.714
373.927	17.349	826.579	622.209
374.942	17.318	826.195	621.751
375.956	17.285	825.982	621.416
376.971	17.417	825.562	621.529
377.986	17.509	824.870	621.289
379.000	17.517	824.424	620.925
380.015	17.503	824.237	620.680
381.029	17.426	823.393	619.709
382.044	17.417	823.024	619.344
383.059	17.569	822.626	619.542
384.073	17.621	821.699	618.977
385.088	17.547	821.109	618.209
386.102	17.409	820.588	617.262
387.117	17.609	819.947	617.449
388.132	17.615	819.364	616.977
389.146	17.495	819.044	616.247
390.161	17.466	818.994	616.050
391.175	17.663	818.003	615.964
392.190	17.645	817.159	615.207
393.205	17.638	816.917	614.944
394.219	17.584	816.840	614.637
395.234	17.545	816.522	614.205
396.248	17.492	816.166	613.693
397.263	17.696	815.230	613.669
398.278	17.589	815.280	613.265
399.292	17.586	814.782	612.827
400.307	17.614	814.337	612.536
401.321	17.586	813.957	612.096
402.336	17.667	813.231	611.787
403.350	17.771	812.789	611.775
404.365	17.747	812.520	611.433
405.380	17.821	811.936	611.202
406.394	17.795	811.305	610.583
407.409	17.740	810.698	609.875
408.423	17.993	810.367	610.475
409.438	17.865	809.933	609.638
410.453	17.931	809.906	609.797
411.467	17.989	809.149	609.382
412.482	17.939	809.335	609.289
413.496	18.041	808.409	608.899
414.511	18.079	808.247	608.862
415.526	18.229	807.205	608.556
416.540	18.028	807.098	607.706
417.555	18.127	806.623	607.648
418.569	18.058	806.557	607.296
419.584	18.030	805.861	606.619
420.599	18.013	805.507	606.242
421.613	110.905	1292.382	1468.754
422.628	95.697	1363.310	1468.856
