DTS Sentinel unit serial number:	SN413079Multiplexer serial number:	ORYXHardware model number:	OX4-SRSoftware version number:	ORYX F/W v4.00 Oryx Data Collector v3.7.2.0data status	okinstallation	princeton_trtdifferential loss correction	single-endedforward channel	channel 1reverse channel	N/Adate	2019/09/17time	02:42:35forward acquisition time	60.00reverse acquisition time	0.00gamma	496.2192k internal	0.2323k external	0.2323temperature offset calibration	0.9954default loss term (dB/km)	0.3790temperature slope calibration	1.0000multiplexer offset coefficient	1.0000multiplexer slope coefficient	1.0000fibre end	0.00T internal ref (°C)	29.86T ext. ref 1 (°C)	0.13T ext. ref 2 (°C)	24.85length (m)	temperature (°C)	Stokes	anti-Stokes-747.200	21.609	0.102	-0.084
-746.185	378.856	-0.215	-0.444
-745.171	-200.000	-0.010	0.122
-744.156	-49.395	0.366	0.176
-743.142	800.000	0.038	-0.159
-742.127	-66.042	0.224	0.090
-741.112	-104.658	0.184	0.043
-740.098	-99.385	0.052	-0.013
-739.083	102.092	-0.177	0.208
-738.069	-200.000	-0.014	0.094
-737.054	109.844	0.174	0.210
-736.039	-200.000	0.001	-0.062
-735.025	-15.574	0.033	0.021
-734.010	93.413	-0.111	-0.127
-732.996	800.000	-0.034	-0.150
-731.981	-57.125	0.344	-0.153
-730.966	800.000	-0.045	0.161
-729.952	209.110	-0.096	-0.151
-728.937	-17.203	-0.031	-0.020
-727.923	-174.711	-0.212	-0.006
-726.908	-31.299	-0.077	0.044
-725.894	-200.000	0.099	-0.000
-724.879	167.691	-0.119	-0.171
-723.864	698.605	-0.039	-0.103
-722.850	47.970	-0.084	-0.079
-721.835	-103.151	0.219	-0.052
-720.821	253.038	0.025	-0.043
-719.806	61.935	0.095	0.096
-718.791	8.714	-0.120	0.091
-717.777	712.877	0.111	0.295
-716.762	-100.076	-0.462	-0.116
-715.748	308.539	-0.023	0.044
-714.733	-107.451	-0.451	0.100
-713.718	-200.000	0.006	-0.106
-712.704	21.076	-0.062	-0.050
-711.689	145.449	-0.152	0.205
-710.675	492.452	0.150	0.347
-709.660	44.455	-0.063	-0.059
-708.645	-167.853	-0.122	-0.005
-707.631	-114.550	0.345	0.067
-706.616	157.577	-0.111	-0.155
-705.602	15.552	0.090	0.071
-704.587	-200.000	0.016	0.344
-703.572	327.860	0.056	-0.109
-702.558	-105.021	0.316	0.073
-701.543	-175.439	0.195	0.005
-700.529	195.150	0.026	0.040
-699.514	-66.659	-0.181	0.072
-698.499	-55.449	-0.223	-0.101
-697.485	-75.467	0.342	-0.123
-696.470	-200.000	0.032	0.256
-695.456	800.000	0.097	-0.324
-694.441	421.919	-0.107	0.231
-693.426	-0.679	0.200	-0.143
-692.412	-1.044	0.157	-0.112
-691.397	-113.379	0.106	-0.021
-690.383	30.321	-0.037	0.032
-689.368	-107.014	-0.085	0.019
-688.354	144.804	-0.222	-0.298
-687.339	-166.651	0.265	-0.011
-686.324	20.123	0.293	-0.238
-685.310	-65.543	0.129	-0.052
-684.295	800.000	0.099	0.434
-683.281	-128.006	-0.162	-0.023
-682.266	452.559	0.154	-0.343
-681.251	-153.346	0.133	-0.009
-680.237	8.271	-0.288	-0.218
-679.222	-50.153	-0.307	-0.146
-678.208	39.416	-0.106	0.096
-677.193	767.828	0.035	0.095
-676.178	114.403	-0.134	-0.164
-675.164	208.774	0.020	0.031
-674.149	-66.685	-0.190	-0.076
-673.135	-200.000	-0.003	0.160
-672.120	-200.000	0.003	-0.072
-671.105	-151.529	0.072	0.005
-670.091	-153.336	0.296	-0.021
-669.076	-73.223	0.161	0.059
-668.062	7.879	-0.062	0.047
-667.047	-118.734	0.437	0.078
-666.032	-44.307	-0.140	0.071
-665.018	-132.869	0.207	0.027
-664.003	90.807	-0.144	-0.163
-662.989	30.378	-0.162	-0.139
-661.974	91.883	0.096	-0.109
-660.959	566.123	-0.075	-0.182
-659.945	-68.460	-0.346	-0.135
-658.930	69.637	-0.175	-0.181
-657.916	800.000	-0.006	0.015
-656.901	-200.000	0.029	-0.189
-655.886	800.000	-0.040	0.160
-654.872	-136.239	-0.176	0.021
-653.857	35.489	0.202	-0.179
-652.843	-60.456	0.278	0.119
-651.828	-93.520	-0.185	-0.052
-650.814	-73.579	0.200	-0.073
-649.799	-128.788	-0.229	0.032
-648.784	66.545	-0.181	0.185
-647.770	371.637	0.098	0.200
-646.755	154.778	-0.104	-0.144
-645.741	-175.703	0.234	-0.006
-644.726	-130.596	-0.191	-0.026
-643.711	-40.335	0.186	0.097
-642.697	128.600	-0.203	0.260
-641.682	731.389	-0.079	-0.213
-640.668	43.709	0.084	-0.077
-639.653	-200.000	-0.023	0.191
-638.638	564.424	0.100	-0.244
-637.624	241.102	0.064	-0.108
-636.609	-75.042	0.101	-0.036
-635.595	181.845	-0.125	0.185
-634.580	-200.000	0.120	-0.000
-633.565	-200.000	0.004	-0.107
-632.551	800.000	-0.065	-0.190
-631.536	-27.952	0.038	-0.022
-630.522	-118.367	-0.289	0.052
-629.507	-200.000	0.028	0.178
-628.492	-137.698	-0.044	0.005
-627.478	-147.147	0.346	0.030
-626.463	122.037	0.071	0.089
-625.449	65.642	-0.046	-0.047
-624.434	-140.190	0.215	-0.023
-623.419	20.565	-0.280	-0.228
-622.405	-99.194	-0.216	0.055
-621.390	-41.815	0.257	0.133
-620.376	800.000	-0.034	-0.141
-619.361	-97.539	0.160	0.042
-618.346	685.102	0.046	-0.119
-617.332	-137.970	-0.247	0.028
-616.317	-126.727	-0.295	0.044
-615.303	800.000	-0.143	-0.456
-614.288	315.319	0.162	0.307
-613.273	89.569	-0.159	0.178
-612.259	145.980	0.137	0.184
-611.244	-78.296	-0.286	0.099
-610.230	-133.395	0.399	0.050
-609.215	-70.962	-0.358	0.135
-608.201	4.040	0.173	-0.127
-607.186	38.142	-0.177	0.159
-606.171	-63.879	-0.481	0.197
-605.157	-200.000	0.017	0.111
-604.142	-200.000	0.015	-0.457
-603.128	-200.000	0.033	-0.262
-602.113	-24.626	-0.129	-0.077
-601.098	-160.274	0.140	0.008
-600.084	-59.308	0.249	0.108
-599.069	-28.838	0.130	-0.075
-598.055	25.975	-0.176	0.148
-597.040	122.150	0.251	-0.315
-596.025	800.000	0.082	0.255
-595.011	-112.934	-0.084	-0.017
-593.996	559.583	-0.088	-0.212
-592.982	800.000	0.034	-0.097
-591.967	-60.827	0.388	0.165
-590.952	369.081	0.148	-0.301
-589.938	-134.946	-0.415	-0.050
-588.923	-3.300	0.180	-0.126
-587.909	-78.467	-0.313	-0.108
-586.894	-179.171	0.181	0.004
-585.879	37.333	-0.166	0.148
-584.865	108.130	0.085	-0.102
-583.850	43.373	-0.149	-0.137
-582.836	-200.000	0.009	-0.095
-581.821	36.486	0.133	-0.118
-580.806	-79.294	-0.162	0.055
-579.792	-200.000	0.008	-0.085
-578.777	643.247	0.109	-0.278
-577.763	-76.710	-0.199	0.070
-576.748	800.000	0.055	-0.169
-575.733	179.508	0.099	-0.146
-574.719	-200.000	-0.003	-0.048
-573.704	-200.000	0.025	0.152
-572.690	-64.594	0.150	0.061
-571.675	800.000	0.021	0.062
-570.661	137.675	0.108	0.142
-569.646	-70.056	-0.138	-0.053
-568.631	-51.108	0.405	0.191
-567.617	-200.000	0.017	-0.167
-566.602	-23.980	0.131	-0.078
-565.588	13.923	0.060	-0.047
-564.573	-38.107	-0.200	0.106
-563.558	-121.811	-0.142	-0.024
-562.544	-2.062	0.375	-0.264
-561.529	672.216	-0.163	0.425
-560.515	-55.010	-0.170	-0.077
-559.500	-23.164	-0.314	-0.190
-558.485	-161.168	0.245	0.013
-557.471	-162.258	0.263	-0.013
-556.456	-128.810	-0.250	-0.035
-555.442	13.464	-0.062	0.048
-554.427	-200.000	0.083	0.381
-553.412	-200.000	0.047	-0.321
-552.398	800.000	-0.044	-0.190
-551.383	-185.224	-0.270	0.004
-550.369	-108.261	-0.280	0.061
-549.354	404.287	0.167	0.352
-548.339	77.423	0.156	0.166
-547.325	-200.000	-0.004	-0.063
-546.310	-55.223	-0.164	-0.074
-545.296	132.547	0.173	-0.223
-544.281	181.004	-0.050	0.074
-543.266	-24.095	0.277	-0.166
-542.252	-128.424	0.251	0.036
-541.237	528.358	-0.075	0.178
-540.223	-42.356	-0.265	-0.135
-539.208	86.585	0.138	0.152
-538.193	800.000	-0.044	0.128
-537.179	800.000	-0.051	0.203
-536.164	13.835	-0.156	0.121
-535.150	128.901	0.136	0.173
-534.135	245.358	-0.094	-0.158
-533.121	269.006	-0.013	-0.022
-532.106	800.000	0.065	0.194
-531.091	87.694	0.168	0.186
-530.077	-99.899	-0.310	0.078
-529.062	63.335	0.109	-0.109
-528.048	-200.000	-0.027	-0.246
-527.033	87.269	0.173	-0.191
-526.018	-35.998	0.075	0.041
-525.004	-200.000	-0.040	-0.235
-523.989	-44.765	-0.260	-0.130
-522.975	112.480	0.113	0.137
-521.960	-118.523	0.378	-0.067
-520.945	433.581	-0.052	0.113
-519.931	-61.882	0.312	-0.131
-518.916	95.786	-0.311	0.355
-517.902	800.000	0.032	0.096
-516.887	-58.677	-0.177	0.077
-515.872	30.356	-0.186	-0.159
-514.858	800.000	0.068	-0.239
-513.843	-110.684	-0.151	-0.031
-512.829	-17.045	-0.250	0.158
-511.814	-200.000	0.006	-0.206
-510.799	340.894	0.077	-0.150
-509.785	-96.561	-0.136	0.036
-508.770	-78.562	-0.293	-0.100
-507.756	-168.138	0.135	0.005
-506.741	494.192	0.068	0.155
-505.726	89.223	0.070	0.079
-504.712	-162.680	-0.258	0.013
-503.697	-200.000	0.022	0.211
-502.683	308.929	-0.194	-0.363
-501.668	-200.000	-0.028	-0.129
-500.653	276.810	0.134	-0.239
-499.639	-56.268	0.240	-0.107
-498.624	161.713	-0.098	-0.137
-497.610	-200.000	0.018	-0.203
-496.595	-23.389	-0.453	0.272
-495.581	210.192	-0.042	0.066
-494.566	-200.000	-0.035	0.214
-493.551	-200.000	-0.037	0.181
-492.537	-163.224	0.137	0.007
-491.522	-188.954	-0.033	-0.000
-490.508	138.798	0.068	0.090
-489.493	78.336	-0.102	-0.109
-488.478	648.835	-0.066	-0.170
-487.464	0.999	0.129	-0.092
-486.449	-44.536	0.162	0.081
-485.435	-92.537	0.259	0.073
-484.420	314.734	0.076	-0.143
-483.405	266.113	0.121	0.211
-482.391	-200.000	0.036	0.257
-481.376	255.125	0.083	0.142
-480.362	4.147	0.083	-0.061
-479.347	259.862	-0.034	-0.059
-478.332	-59.920	-0.228	0.098
-477.318	-62.022	0.204	-0.085
-476.303	357.501	0.076	0.151
-475.289	-173.470	-0.440	0.013
-474.274	-47.537	0.271	0.132
-473.259	-37.622	-0.182	0.097
-472.245	-87.514	-0.052	-0.016
-471.230	-101.293	-0.185	-0.045
-470.216	-10.815	-0.340	0.225
-469.201	431.128	-0.131	0.284
-468.186	-54.486	-0.178	0.080
-467.172	59.861	-0.325	0.321
-466.157	-137.660	0.359	-0.040
-465.143	-112.897	0.130	-0.026
-464.128	-68.669	0.200	-0.077
-463.113	-70.343	-0.334	0.127
-462.099	19.249	-0.245	-0.196
-461.084	800.000	0.025	-0.083
-460.070	-153.042	0.065	-0.005
-459.055	-113.576	0.245	-0.048
-458.040	108.168	-0.214	-0.254
-457.026	800.000	-0.049	-0.171
-456.011	403.982	0.051	-0.107
-454.997	-118.143	0.253	0.045
-453.982	-33.808	-0.147	-0.081
-452.968	-41.103	-0.351	-0.181
-451.953	22.981	0.116	-0.095
-450.938	10.236	-0.158	0.120
-449.924	-23.173	-0.185	0.111
-448.909	41.116	-0.208	-0.187
-447.895	-199.472	-0.279	-0.001
-446.880	339.033	0.162	0.314
-445.865	156.646	0.050	0.069
-444.851	-52.139	-0.102	-0.047
-443.836	-136.326	-0.110	0.013
-442.822	-44.530	-0.120	0.060
-441.807	55.959	-0.142	-0.137
-440.792	-164.603	-0.193	-0.009
-439.778	-110.363	0.284	-0.059
-438.763	-159.396	0.124	-0.007
-437.749	-71.784	0.305	0.113
-436.734	553.750	0.057	-0.137
-435.719	9.933	0.063	0.048
-434.705	628.617	-0.055	0.139
-433.690	498.955	0.172	-0.395
-432.676	180.860	-0.047	-0.069
-431.661	56.964	0.088	0.086
-430.646	-94.561	-0.134	-0.036
-429.632	26.590	0.198	0.165
-428.617	-84.611	0.180	-0.057
-427.603	-200.000	0.043	-0.219
-426.588	-90.999	0.163	0.047
-425.573	-87.907	-0.099	-0.030
-424.559	800.000	0.121	-0.463
-423.544	140.172	-0.326	-0.429
-422.530	-83.147	0.110	0.035
-421.515	65.214	0.265	0.267
-420.500	-181.325	-0.239	-0.005
-419.486	250.522	0.233	-0.395
-418.471	-91.438	0.308	-0.088
-417.457	-81.514	0.403	0.132
-416.442	800.000	0.024	0.094
-415.428	227.438	0.098	-0.159
-414.413	-4.317	-0.109	-0.075
-413.398	-35.162	0.043	0.023
-412.384	-152.030	-0.350	0.025
-411.369	75.310	0.182	-0.191
-410.355	46.190	-0.207	0.191
-409.340	389.657	-0.096	-0.198
-408.325	-1.021	-0.145	0.102
-407.311	-200.000	-0.039	-0.203
-406.296	-84.148	0.109	-0.034
-405.282	96.613	0.199	-0.227
-404.267	-49.199	0.216	0.103
-403.252	-55.689	0.200	-0.089
-402.238	-200.000	0.009	-0.106
-401.223	-200.000	0.021	-0.194
-400.209	-200.000	-0.014	0.176
-399.194	-39.753	0.103	-0.053
-398.179	284.644	0.094	0.169
-397.165	-34.577	0.292	0.159
-396.150	325.855	-0.090	-0.171
-395.136	201.249	-0.117	-0.179
-394.121	385.137	-0.031	-0.065
-393.106	-24.078	0.296	-0.176
-392.092	-26.865	-0.201	0.117
-391.077	-108.401	-0.281	0.060
-390.063	117.127	-0.184	-0.225
-389.048	-194.966	0.276	0.002
-388.033	-200.000	0.019	0.128
-387.019	-108.048	-0.161	0.035
-386.004	30.957	-0.084	0.072
-384.990	70.196	0.249	0.256
-383.975	-33.646	-0.472	0.259
-382.960	800.000	0.066	0.200
-381.946	-49.896	-0.402	0.190
-380.931	105.165	0.103	-0.122
-379.917	-200.000	-0.003	0.286
-378.902	85.117	-0.070	0.076
-377.888	-54.641	0.367	0.165
-376.873	83.610	-0.137	0.149
-375.858	153.343	0.019	0.026
-374.844	-200.000	-0.013	-0.153
-373.829	-143.922	0.463	0.043
-372.815	207.226	0.114	-0.177
-371.800	-105.733	0.515	0.116
-370.785	26.338	0.261	-0.217
-369.771	57.097	-0.253	-0.246
-368.756	-35.851	0.026	-0.014
-367.742	226.912	-0.026	-0.042
-366.727	800.000	0.121	0.379
-365.712	411.319	0.073	-0.154
-364.698	25.574	0.371	-0.307
-363.683	-200.000	0.027	0.288
-362.669	-53.150	0.187	0.085
-361.654	266.066	-0.123	-0.214
-360.639	-200.000	-0.014	-0.094
-359.625	-3.659	0.195	0.135
-358.610	-200.000	0.027	-0.117
-357.596	171.474	0.156	-0.223
-356.581	800.000	-0.012	-0.042
-355.566	131.641	-0.241	0.308
-354.552	-40.367	-0.176	-0.091
-353.537	251.654	-0.112	-0.190
-352.523	64.152	-0.305	-0.305
-351.508	-109.441	0.201	-0.042
-350.493	-150.846	-0.441	-0.033
-349.479	-193.005	-0.112	-0.001
-348.464	-51.493	-0.204	-0.095
-347.450	-200.000	-0.024	-0.229
-346.435	-52.487	0.142	0.066
-345.420	-12.609	-0.037	0.024
-344.406	383.484	0.180	0.368
-343.391	328.146	0.107	-0.204
-342.377	87.256	-0.267	-0.293
-341.362	78.230	0.235	0.249
-340.348	-200.000	0.003	0.076
-339.333	187.720	0.115	0.171
-338.318	-108.014	0.211	-0.046
-337.304	-200.000	0.061	0.283
-336.289	553.632	-0.103	0.247
-335.275	-15.182	0.559	0.355
-334.260	-42.581	-0.282	0.143
-333.245	-200.000	-0.008	0.162
-332.231	800.000	0.041	0.165
-331.216	145.172	0.125	0.166
-330.202	120.388	0.240	0.296
-329.187	334.767	-0.042	-0.082
-328.172	-200.000	-0.039	0.324
-327.158	-48.851	-0.182	-0.087
-326.143	58.975	0.233	-0.228
-325.129	0.056	-0.245	-0.173
-324.114	800.000	0.101	0.312
-323.099	-125.311	0.166	0.025
-322.085	130.780	-0.054	0.068
-321.070	-84.279	-0.184	-0.058
-320.056	-44.687	0.350	0.173
-319.041	704.197	-0.133	0.347
-318.026	15.489	-0.152	-0.119
-317.012	800.000	-0.047	0.139
-315.997	-55.402	0.015	0.007
-314.983	-200.000	0.018	-0.084
-313.968	-130.189	-0.124	0.017
-312.953	800.000	-0.136	-0.472
-311.939	-32.089	0.073	-0.041
-310.924	-200.000	-0.003	0.136
-309.910	-200.000	0.024	0.140
-308.895	-39.942	0.125	-0.065
-307.880	-38.895	0.209	0.109
-306.866	800.000	-0.067	-0.227
-305.851	800.000	0.046	0.148
-304.837	-200.000	0.048	-0.236
-303.822	-148.997	-0.038	0.003
-302.807	5.702	-0.093	-0.068
-301.793	800.000	-0.102	0.313
-300.778	37.700	0.318	0.280
-299.764	-200.000	0.059	0.387
-298.749	-98.626	-0.135	-0.034
-297.735	95.415	0.077	-0.087
-296.720	12.592	-0.252	0.193
-295.705	-116.913	-0.092	-0.017
-294.691	800.000	-0.082	0.238
-293.676	83.995	-0.151	0.164
-292.662	561.892	0.061	0.147
-291.647	80.543	-0.106	0.113
-290.632	800.000	-0.026	0.100
-289.618	-70.871	-0.199	-0.074
-288.603	-11.153	0.147	-0.096
-287.589	516.961	-0.035	0.082
-286.574	340.631	0.002	-0.005
-285.559	423.461	-0.136	-0.289
-284.545	187.072	-0.027	0.040
-283.530	-67.369	-0.254	-0.099
-282.516	-22.087	0.381	-0.229
-281.501	177.692	0.158	0.228
-280.486	60.274	0.150	-0.147
-279.472	-125.477	-0.114	-0.017
-278.457	-109.223	0.095	0.020
-277.443	-56.291	0.225	-0.099
-276.428	-89.226	0.075	-0.022
-275.413	241.812	0.129	0.214
-274.399	-130.576	0.105	0.014
-273.384	284.030	0.119	-0.213
-272.370	-79.264	0.350	0.118
-271.355	159.089	-0.088	-0.121
-270.340	480.089	0.041	0.091
-269.326	657.158	-0.005	-0.013
-268.311	-117.942	-0.159	-0.028
-267.297	637.776	-0.045	-0.113
-266.282	98.859	0.122	0.140
-265.267	800.000	-0.030	0.087
-264.253	-69.061	0.307	0.117
-263.238	3.513	0.162	0.117
-262.224	131.769	0.147	-0.187
-261.209	-105.635	-0.034	0.008
-260.195	38.410	0.015	-0.014
-259.180	-73.611	-0.306	0.110
-258.165	-130.574	-0.303	0.041
-257.151	-145.091	0.137	0.012
-256.136	-174.937	0.232	0.006
-255.122	800.000	-0.014	0.043
-254.107	-53.622	-0.419	-0.190
-253.092	-200.000	0.046	-0.259
-252.078	-200.000	-0.045	0.231
-251.063	56.668	-0.289	0.279
-250.049	0.752	0.087	0.061
-249.034	-192.135	-0.184	-0.002
-248.019	64.697	0.176	-0.176
-247.005	340.452	0.158	0.305
-245.990	-200.000	0.010	-0.226
-244.976	-200.000	0.036	-0.320
-243.961	269.328	-0.121	-0.211
-242.946	286.049	0.110	-0.196
-241.932	-81.570	0.111	-0.036
-240.917	22.494	0.130	0.105
-239.903	70.767	0.118	-0.121
-238.888	-200.000	0.067	-0.336
-237.873	-200.000	-0.001	0.290
-236.859	-74.145	0.030	0.011
-235.844	-200.000	-0.027	0.264
-234.830	-113.736	-0.362	-0.070
-233.815	-58.876	-0.328	-0.140
-232.800	-65.473	0.338	-0.134
-231.786	103.230	-0.098	-0.113
-230.771	60.924	0.353	-0.347
-229.757	-200.000	0.020	0.164
-228.742	-59.045	-0.106	0.045
-227.727	151.708	-0.086	-0.116
-226.713	167.689	0.263	-0.370
-225.698	800.000	0.045	-0.182
-224.684	800.000	-0.086	-0.285
-223.669	800.000	-0.103	-0.382
-222.655	-151.724	-0.268	0.019
-221.640	276.850	-0.035	0.062
-220.625	-3.676	0.185	-0.127
-219.611	-126.750	-0.399	-0.058
-218.596	79.716	-0.081	0.086
-217.582	-99.685	-0.173	0.043
-216.567	-67.769	0.238	-0.092
-215.552	245.184	-0.088	0.146
-214.538	-200.000	-0.010	0.091
-213.523	61.029	-0.052	-0.051
-212.509	-71.296	0.249	0.092
-211.494	257.020	-0.131	-0.223
-210.479	-43.166	0.141	-0.071
-209.465	1.015	0.047	0.033
-208.450	126.383	-0.235	0.294
-207.436	-200.000	0.008	0.127
-206.421	464.821	-0.065	0.144
-205.406	-147.935	0.356	-0.029
-204.392	-117.802	-0.301	0.053
-203.377	-102.528	0.060	-0.014
-202.363	-94.456	-0.203	-0.055
-201.348	444.450	0.063	-0.137
-200.333	-119.717	-0.344	-0.059
-199.319	7.315	0.129	-0.096
-198.304	-94.936	0.109	-0.029
-197.290	-73.306	-0.310	-0.112
-196.275	208.248	-0.140	0.216
-195.260	205.539	-0.199	-0.305
-194.246	109.962	-0.082	0.098
-193.231	-40.020	0.509	-0.263
-192.217	609.200	-0.054	-0.133
-191.202	348.871	0.131	-0.255
-190.187	-200.000	-0.070	0.317
-189.173	121.029	-0.170	0.208
-188.158	-200.000	0.009	-0.069
-187.144	-175.386	0.666	0.018
-186.129	269.589	0.096	-0.166
-185.114	144.877	-0.225	0.297
-184.100	6.568	0.094	0.069
-183.085	-5.177	-0.095	0.065
-182.071	-71.095	0.148	-0.055
-181.056	-136.926	-0.255	-0.029
-180.042	-131.350	0.421	0.055
-179.027	-200.000	0.043	-0.198
-178.012	-185.974	0.074	0.001
-176.998	-200.000	-0.010	0.287
-175.983	141.275	-0.092	0.120
-174.969	-200.000	-0.036	0.254
-173.954	253.004	0.102	0.172
-172.939	-200.000	0.004	-0.206
-171.925	122.038	0.090	0.110
-170.910	93.478	-0.122	-0.136
-169.896	-120.370	-0.158	0.027
-168.881	-3.351	0.324	0.223
-167.866	452.075	0.139	0.303
-166.852	-200.000	0.048	0.330
-165.837	-34.187	-0.064	-0.035
-164.823	-157.951	-0.109	-0.006
-163.808	-65.868	-0.417	0.165
-162.793	-11.281	-0.103	0.067
-161.779	800.000	0.085	-0.288
-160.764	-91.246	-0.341	0.096
-159.750	-87.641	-0.415	-0.124
-158.735	209.075	0.088	0.136
-157.720	765.069	0.021	-0.056
-156.706	-107.847	0.041	-0.009
-155.691	-122.966	0.118	0.019
-154.677	493.778	-0.089	-0.202
-153.662	149.961	-0.100	0.133
-152.647	-18.188	-0.162	-0.100
-151.633	-200.000	0.067	0.290
-150.618	-97.847	0.344	-0.088
-149.604	-102.213	-0.336	-0.080
-148.589	135.311	-0.097	0.124
-147.574	-200.000	0.218	0.000
-146.560	-200.000	-0.037	0.335
-145.545	0.465	0.111	-0.078
-144.531	800.000	-0.017	0.047
-143.516	-13.012	-0.211	-0.136
-142.502	32.673	-0.213	0.182
-141.487	41.002	0.227	-0.202
-140.472	149.217	0.024	-0.032
-139.458	-200.000	-0.022	0.271
-138.443	34.400	0.128	-0.110
-137.429	111.872	0.206	0.245
-136.414	800.000	-0.093	-0.259
-135.399	-87.193	0.403	0.121
-134.385	-163.037	0.211	-0.010
-133.370	-90.795	0.236	-0.067
-132.356	-0.155	0.169	-0.119
-131.341	23.294	0.219	0.178
-130.326	-103.346	0.295	0.069
-129.312	160.592	0.301	-0.415
-128.297	-5.234	0.099	0.067
-127.283	217.522	-0.074	-0.116
-126.268	800.000	-0.055	-0.181
-125.253	-58.209	0.330	-0.142
-124.239	-200.000	0.020	-0.088
-123.224	-50.749	-0.209	-0.097
-122.210	800.000	0.033	-0.139
-121.195	-2.061	0.212	0.147
-120.180	125.033	0.178	0.221
-119.166	-187.456	0.425	-0.006
-118.151	779.809	0.101	-0.273
-117.137	-1.277	-0.325	0.226
-116.122	-101.428	-0.507	-0.122
-115.107	-36.450	0.614	0.326
-114.093	362.156	-0.068	-0.134
-113.078	-200.000	0.056	-0.288
-112.064	-46.367	0.151	-0.073
-111.049	-23.727	0.228	0.135
-110.034	36.219	0.258	-0.224
-109.020	-156.296	0.142	0.009
-108.005	-81.946	-0.111	0.036
-106.991	-12.001	-0.200	0.129
-105.976	192.450	-0.061	-0.091
-104.962	119.895	-0.131	0.160
-103.947	-184.256	-0.098	-0.002
-102.932	800.000	0.032	0.124
-101.918	219.055	-0.066	0.104
-100.903	-200.000	0.024	0.138
-99.889	-110.436	0.160	-0.033
-98.874	104.238	-0.133	-0.154
-97.859	-78.879	0.195	-0.065
-96.845	-200.000	-0.022	-0.122
-95.830	-197.927	0.285	0.002
-94.816	-125.418	0.275	-0.041
-93.801	261.363	-0.046	-0.078
-92.786	-128.379	0.266	-0.037
-91.772	-9.630	-0.067	-0.044
-90.757	-172.708	-0.261	0.008
-89.743	-200.000	0.045	-0.214
-88.728	-129.634	-0.242	0.033
-87.713	-200.000	0.005	-0.147
-86.699	311.294	-0.173	-0.319
-85.684	56.189	0.257	0.245
-84.670	-90.595	0.188	-0.054
-83.655	-177.262	-0.349	0.009
-82.640	-200.000	0.000	-0.076
-81.626	-200.000	0.009	0.042
-80.611	-146.519	0.119	-0.010
-79.597	-66.508	-0.129	0.050
-78.582	-34.812	0.205	0.110
-77.567	-46.558	-0.105	-0.051
-76.553	203.886	0.077	0.117
-75.538	120.297	-0.242	0.295
-74.524	-200.000	0.001	-0.023
-73.509	684.088	0.089	0.230
-72.494	800.000	-0.099	-0.325
-71.480	-200.000	-0.015	0.318
-70.465	-14.206	0.238	-0.151
-69.451	800.000	-0.142	-0.425
-68.436	-200.000	-0.042	0.242
-67.422	158.169	0.182	-0.248
-66.407	100.854	0.073	0.083
-65.392	-19.265	0.173	-0.106
-64.378	-3.033	-0.226	-0.155
-63.363	-154.456	-0.282	0.019
-62.349	-65.407	0.154	0.061
-61.334	190.047	-0.733	-1.082
-60.319	-54.612	0.397	0.177
-59.305	800.000	-0.424	-1.381
-58.290	800.000	0.328	1.226
-57.276	702.888	0.679	1.760
-56.261	-200.000	105.931	576.959
-55.246	455.545	1460.378	3183.488
-54.232	149.128	2644.297	3516.678
-53.217	106.571	2156.844	2514.362
-52.203	41.277	1604.748	1426.080
-51.188	33.387	1343.025	1145.945
-50.173	30.256	1301.671	1092.213
-49.159	53.831	1354.213	1278.459
-48.144	54.321	1369.910	1296.170
-47.130	33.400	1325.803	1131.144
-46.115	30.044	1307.521	1095.692
-45.100	29.999	1302.809	1091.436
-44.086	29.801	1300.494	1088.290
-43.071	29.688	1298.712	1086.092
-42.057	29.698	1295.893	1083.747
-41.042	29.725	1294.887	1083.025
-40.027	29.753	1293.217	1081.749
-39.013	29.715	1290.952	1079.587
-37.998	29.737	1289.413	1078.384
-36.984	29.928	1287.333	1077.716
-35.969	29.805	1285.839	1075.707
-34.954	29.901	1284.213	1074.865
-33.940	29.846	1282.947	1073.442
-32.925	29.962	1281.594	1072.937
-31.911	29.856	1280.208	1071.121
-30.896	29.982	1278.394	1070.292
-29.881	29.900	1277.288	1068.848
-28.867	29.997	1276.042	1068.326
-27.852	29.992	1274.409	1066.884
-26.838	29.981	1272.950	1065.557
-25.823	29.963	1271.790	1064.442
-24.809	29.903	1270.770	1063.201
-23.794	29.929	1269.032	1061.853
-22.779	30.000	1267.779	1061.168
-21.765	29.993	1266.554	1060.063
-20.750	29.912	1265.495	1058.673
-19.736	29.827	1264.119	1056.989
-18.721	29.776	1263.365	1056.027
-17.706	29.833	1261.827	1055.024
-16.692	29.827	1260.711	1054.015
-15.677	29.847	1259.414	1053.002
-14.663	29.779	1258.298	1051.643
-13.648	29.853	1257.220	1051.122
-12.633	29.852	1256.178	1050.203
-11.619	29.828	1255.204	1049.210
-10.604	29.824	1254.556	1048.603
-9.590	29.797	1253.277	1047.339
-8.575	29.845	1252.525	1046.944
-7.560	29.744	1251.863	1045.773
-6.546	29.775	1250.977	1045.169
-5.531	29.743	1250.281	1044.362
-4.517	29.862	1248.962	1043.892
-3.502	29.860	1248.274	1043.265
-2.487	29.808	1247.747	1042.489
-1.473	29.870	1243.285	1039.069
-0.458	28.489	1228.929	1019.358
0.556	23.287	1212.464	983.028
1.571	19.924	1218.568	969.093
2.586	18.989	1234.063	976.026
3.600	18.836	1222.690	966.086
4.615	13.804	1149.726	881.683
5.629	4.726	1073.102	777.652
6.644	0.531	1053.148	742.519
7.659	0.016	1051.237	738.580
8.673	-0.034	1049.881	737.317
9.688	0.018	1048.381	736.452
10.702	0.116	1047.109	735.972
11.717	5.602	1053.874	767.610
12.731	14.223	1065.226	818.366
13.746	17.598	1068.842	837.696
14.761	17.106	1067.002	833.763
15.775	15.995	1065.043	826.713
16.790	14.986	1063.061	820.155
17.804	14.127	1062.034	815.084
18.819	13.894	1060.667	812.819
19.834	13.685	1059.626	810.931
20.848	13.451	1058.579	808.913
21.863	13.128	1057.671	806.570
22.877	13.038	1057.155	805.665
23.892	12.940	1056.474	804.597
24.907	12.982	1055.475	803.972
25.921	13.060	1054.687	803.678
26.936	13.081	1053.838	803.063
27.950	13.009	1053.367	802.284
28.965	13.177	1052.128	802.086
29.980	13.238	1050.807	801.301
30.994	13.155	1049.964	800.184
32.009	13.263	1048.516	799.533
33.023	13.373	1047.203	798.991
34.038	13.184	1046.585	797.538
35.053	13.192	1045.680	796.819
36.067	13.121	1044.497	795.501
37.082	13.055	1044.190	794.883
38.096	13.281	1043.091	795.062
39.111	13.175	1042.600	794.107
40.126	13.146	1041.571	793.112
41.140	13.003	1040.409	791.471
42.155	13.020	1039.099	790.490
43.169	12.869	1038.249	789.049
44.184	12.982	1037.220	788.739
45.199	12.960	1036.524	788.032
46.213	13.041	1035.031	787.212
47.228	13.001	1034.150	786.286
48.242	13.052	1033.089	785.651
49.257	13.196	1031.706	785.215
50.271	13.084	1031.137	784.181
51.286	13.162	1029.927	783.559
52.301	13.085	1029.562	782.846
53.315	13.117	1028.302	781.971
54.330	13.026	1027.158	780.603
55.344	13.005	1026.319	779.794
56.359	13.017	1025.472	779.139
57.374	13.147	1024.079	778.626
58.388	13.024	1023.622	777.631
59.403	12.968	1022.837	776.703
60.417	12.967	1022.092	776.064
61.432	12.969	1021.390	775.472
62.447	12.879	1020.342	774.181
63.461	12.925	1019.793	773.914
64.476	12.852	1018.734	772.699
65.490	12.880	1017.936	772.159
66.505	12.954	1017.407	772.033
67.520	13.020	1016.728	771.757
68.534	12.956	1016.237	771.018
69.549	12.964	1015.456	770.397
70.563	12.949	1014.434	769.484
71.578	12.902	1013.921	768.804
72.593	12.956	1013.111	768.375
73.607	12.837	1012.478	767.272
74.622	12.889	1012.057	767.129
75.636	13.006	1010.682	766.562
76.651	12.848	1010.550	765.662
77.666	12.873	1009.840	765.172
78.680	12.951	1008.612	764.533
79.695	12.900	1008.807	764.378
80.709	12.867	1008.288	763.763
81.724	13.016	1007.386	763.701
82.739	13.103	1006.406	763.296
83.753	13.169	1005.630	762.945
84.768	13.208	1004.699	762.347
85.782	13.243	1003.767	761.733
86.797	13.300	1002.825	761.217
87.812	13.027	1002.419	759.585
88.826	13.100	1000.952	758.742
89.841	13.195	1000.392	758.687
90.855	13.198	999.317	757.814
91.870	13.092	998.991	757.016
92.884	13.276	997.852	756.929
93.899	13.184	997.153	755.910
94.914	13.271	996.342	755.628
95.928	13.215	995.475	754.648
96.943	13.304	994.573	754.301
97.957	13.116	993.889	752.859
98.972	13.133	992.625	751.912
99.987	13.211	991.854	751.615
101.001	13.207	990.727	750.678
102.016	13.236	989.932	750.143
103.030	13.119	989.823	749.463
104.045	13.220	989.020	749.246
105.060	13.241	987.708	748.278
106.074	13.199	986.830	747.356
107.089	13.126	985.612	746.040
108.103	13.022	985.330	745.292
109.118	13.101	984.090	744.643
110.133	13.042	983.303	743.716
111.147	13.115	982.348	743.255
112.162	13.078	981.502	742.386
113.176	13.033	980.961	741.708
114.191	13.181	980.066	741.631
115.206	12.985	979.704	740.408
116.220	13.154	978.241	739.998
117.235	13.063	977.658	739.082
118.249	13.112	976.587	738.425
119.264	13.146	975.870	737.971
120.279	13.095	974.984	737.010
121.293	13.103	974.309	736.467
122.308	13.087	973.432	735.671
123.322	13.053	972.728	734.919
124.337	13.021	971.598	733.860
125.352	13.245	970.101	733.660
126.366	13.123	968.991	732.212
127.381	12.946	968.375	730.896
128.395	13.053	967.240	730.452
129.410	13.124	966.624	730.234
130.424	13.133	965.585	729.425
131.439	13.106	965.438	729.131
132.454	13.359	964.054	729.135
133.468	13.226	963.480	728.051
134.483	13.192	962.599	727.171
135.497	13.150	961.418	726.032
136.512	13.056	961.194	725.385
137.527	13.205	960.269	725.274
138.541	13.205	959.266	724.453
139.556	13.125	958.944	723.798
140.570	13.145	958.220	723.272
141.585	13.246	957.142	722.839
142.600	13.151	956.158	721.617
143.614	13.327	955.530	721.843
144.629	13.437	954.253	721.296
145.643	13.383	953.688	720.571
146.658	13.297	952.599	719.310
147.673	13.216	952.183	718.580
148.687	13.312	951.098	718.115
149.702	13.215	950.370	717.080
150.716	13.228	949.541	716.449
151.731	13.194	948.977	715.809
152.746	13.233	948.403	715.482
153.760	13.377	947.365	715.262
154.775	13.366	947.191	715.017
155.789	13.391	946.193	714.308
156.804	13.446	945.460	713.928
157.819	13.351	945.158	713.231
158.833	13.352	944.637	712.778
159.848	13.518	943.347	712.456
160.862	13.591	942.072	711.744
161.877	13.378	941.575	710.389
162.892	13.383	940.836	709.792
163.906	13.310	939.716	708.569
164.921	13.357	938.999	708.170
165.935	13.348	938.428	707.635
166.950	13.430	937.448	707.185
167.964	13.414	936.429	706.285
168.979	13.373	935.574	705.402
169.994	13.350	934.984	704.798
171.008	13.471	934.203	704.661
172.023	13.536	933.390	704.261
173.037	13.502	932.778	703.595
174.052	13.508	932.404	703.274
175.067	13.451	931.343	702.172
176.081	13.425	930.680	701.498
177.096	13.498	930.224	701.404
178.110	13.536	929.644	701.064
179.125	13.434	929.026	700.105
180.140	13.628	928.408	700.396
181.154	13.664	928.144	700.289
182.169	13.671	927.366	699.667
183.183	13.703	926.623	699.179
184.198	13.688	925.866	698.483
185.213	13.614	925.504	697.836
186.227	13.663	924.775	697.432
187.242	13.843	923.987	697.533
188.256	13.836	923.107	696.776
189.271	13.797	922.722	696.260
190.286	13.610	921.868	694.774
191.300	13.423	921.343	693.532
192.315	13.469	920.400	692.951
193.329	13.576	920.131	693.136
194.344	13.630	919.449	692.786
195.359	13.739	918.503	692.469
196.373	13.803	918.025	692.315
197.388	13.801	917.536	691.874
198.402	13.815	917.250	691.657
199.417	13.885	916.706	691.477
200.432	13.954	915.878	691.077
201.446	13.934	915.698	690.796
202.461	13.979	915.246	690.583
203.475	14.016	914.428	690.059
204.490	13.876	913.886	689.007
205.504	13.995	912.778	688.603
206.519	13.940	912.206	687.884
207.534	14.022	910.772	687.079
208.548	13.912	910.812	686.595
209.563	13.883	910.453	686.145
210.577	13.940	909.177	685.356
211.592	14.019	908.967	685.463
212.607	14.048	908.217	684.955
213.621	14.081	907.351	684.381
214.636	14.167	906.629	684.127
215.650	14.007	906.118	683.022
216.665	14.068	905.449	682.711
217.680	14.162	904.530	682.341
218.694	14.170	904.067	681.964
219.709	14.092	903.283	680.992
220.723	14.088	902.708	680.483
221.738	14.171	902.030	680.252
222.753	14.182	901.303	679.690
223.767	14.318	900.433	679.528
224.782	14.302	900.178	679.210
225.796	14.277	899.582	678.596
226.811	14.299	898.806	678.041
227.826	14.292	898.033	677.371
228.840	14.140	897.535	676.318
229.855	14.234	896.902	676.161
230.869	14.243	896.158	675.579
231.884	14.280	895.168	674.920
232.899	14.157	894.362	673.758
233.913	14.152	893.837	673.283
234.928	14.282	892.914	673.050
235.942	14.143	892.839	672.375
236.957	14.162	892.176	671.892
237.972	14.250	891.433	671.625
238.986	14.339	890.602	671.299
240.001	14.374	890.010	670.937
241.015	14.318	889.339	670.144
242.030	14.350	888.833	669.834
243.045	14.314	888.569	669.432
244.059	14.269	888.088	668.830
245.074	14.401	887.086	668.545
246.088	14.447	886.091	667.920
247.103	14.511	885.912	667.981
248.117	14.510	885.698	667.759
249.132	14.710	884.798	667.820
250.147	14.687	884.141	667.172
251.161	14.748	883.530	666.898
252.176	14.740	883.044	666.440
253.190	14.868	881.960	666.069
254.205	14.794	881.603	665.449
255.220	14.760	880.689	664.563
256.234	14.787	880.134	664.192
257.249	14.683	879.649	663.354
258.263	14.872	878.603	663.257
259.278	14.854	878.243	662.857
260.293	14.860	877.550	662.298
261.307	14.835	877.057	661.769
262.322	14.871	876.871	661.713
263.336	14.974	875.709	661.185
264.351	15.103	874.720	660.887
265.366	15.067	874.223	660.312
266.380	15.036	873.863	659.859
267.395	14.856	873.246	658.628
268.409	14.953	872.726	658.558
269.424	14.933	871.671	657.624
270.439	14.976	871.091	657.300
271.453	14.975	870.157	656.533
272.468	15.024	869.891	656.464
273.482	14.995	869.190	655.764
274.497	14.957	868.871	655.318
275.512	14.936	868.299	654.745
276.526	14.994	867.551	654.350
277.541	14.980	866.982	653.806
278.555	15.085	866.785	654.013
279.570	15.172	865.852	653.591
280.585	15.220	864.927	653.019
281.599	15.151	864.152	652.109
282.614	15.157	863.908	651.892
283.628	15.230	863.416	651.743
284.643	15.243	862.650	651.160
285.657	15.218	862.072	650.569
286.672	15.264	861.458	650.225
287.687	15.220	861.046	649.688
288.701	15.189	860.354	648.988
289.716	15.265	859.504	648.584
290.730	15.322	858.761	648.183
291.745	15.361	858.389	647.998
292.760	15.397	857.891	647.703
293.774	15.392	857.421	647.272
294.789	15.399	856.829	646.793
295.803	15.393	855.737	645.891
296.818	15.278	855.236	645.013
297.833	15.421	854.498	644.947
298.847	15.401	854.169	644.566
299.862	15.432	853.711	644.282
300.876	15.584	852.932	644.221
301.891	15.427	852.475	643.216
302.906	15.546	851.930	643.205
303.920	15.647	851.325	643.076
304.935	15.630	850.482	642.319
305.949	15.636	850.357	642.189
306.964	15.538	849.788	641.330
307.979	15.640	849.294	641.290
308.993	15.635	848.698	640.763
310.008	15.715	848.132	640.583
311.022	15.623	847.451	639.662
312.037	15.571	847.081	639.129
313.052	15.762	845.886	638.895
314.066	15.559	845.490	637.771
315.081	15.694	845.148	637.968
316.095	15.641	844.965	637.572
317.110	15.645	844.195	636.950
318.125	15.559	843.479	636.030
319.139	15.646	843.312	636.175
320.154	15.626	843.088	635.873
321.168	15.711	842.418	635.634
322.183	15.778	841.390	635.054
323.197	15.784	840.737	634.530
324.212	15.812	840.510	634.406
325.227	15.821	839.919	633.938
326.241	15.762	839.156	633.084
327.256	15.811	838.929	633.040
328.270	15.732	838.151	632.100
329.285	15.708	837.543	631.496
330.300	15.647	837.120	630.894
331.314	15.837	836.414	631.018
332.329	15.692	836.214	630.267
333.343	15.865	835.692	630.467
334.358	15.874	835.151	630.035
335.373	15.770	835.081	629.537
336.387	15.934	834.669	629.785
337.402	16.061	834.267	629.901
338.416	16.046	834.001	629.588
339.431	16.021	833.622	629.152
340.446	16.060	833.117	628.861
341.460	16.001	832.537	628.147
342.475	16.052	832.339	628.134
343.489	16.139	831.819	628.009
344.504	16.207	831.035	627.614
345.519	16.188	830.781	627.298
346.533	16.202	830.581	627.141
347.548	16.113	830.060	626.363
348.562	16.149	829.383	625.931
349.577	16.094	828.528	625.027
350.592	16.158	827.637	624.534
351.606	15.964	827.510	623.667
352.621	16.078	826.676	623.402
353.635	16.158	825.804	622.986
354.650	16.198	825.999	623.225
355.665	16.158	824.753	622.084
356.679	16.327	824.236	622.260
357.694	16.247	823.816	621.595
358.708	16.279	823.336	621.296
359.723	16.323	822.587	620.837
360.738	16.274	821.900	620.084
361.752	16.330	821.484	619.920
362.767	16.341	820.875	619.447
363.781	16.470	820.135	619.304
364.796	16.567	819.960	619.472
365.810	16.430	819.621	618.661
366.825	16.507	818.973	618.399
367.840	16.608	818.698	618.504
368.854	16.419	818.290	617.451
369.869	16.662	817.472	617.667
370.883	16.572	817.144	617.036
371.898	16.674	816.614	616.954
372.913	16.612	816.185	616.348
373.927	16.567	816.087	616.055
374.942	16.583	815.306	615.471
375.956	16.652	815.087	615.502
376.971	16.755	814.385	615.292
377.986	16.740	813.809	614.748
379.000	16.815	813.235	614.530
380.015	16.886	812.949	614.518
381.029	16.805	812.408	613.761
382.044	16.724	812.284	613.318
383.059	16.761	811.363	612.703
384.073	16.830	810.867	612.525
385.088	16.808	810.523	612.131
386.102	16.922	809.799	611.941
387.117	16.841	808.983	610.978
388.132	16.816	808.846	610.730
389.146	16.780	808.124	610.002
390.161	16.855	807.909	610.054
391.175	16.875	807.192	609.533
392.190	16.820	806.639	608.862
393.205	16.777	806.539	608.581
394.219	16.844	806.125	608.454
395.234	16.905	805.501	608.147
396.248	16.803	805.269	607.554
397.263	16.773	804.660	606.932
398.278	16.757	804.393	606.619
399.292	16.899	803.841	606.657
400.307	16.861	803.106	605.915
401.321	17.011	802.455	605.905
402.336	16.967	802.176	605.483
403.350	17.035	801.921	605.480
404.365	17.127	801.529	605.457
405.380	17.134	800.801	604.880
406.394	17.206	800.443	604.814
407.409	17.064	800.014	603.931
408.423	17.069	799.857	603.775
409.438	17.335	799.021	604.034
410.453	17.147	799.540	603.706
411.467	17.265	798.522	603.302
412.482	17.354	798.065	603.220
413.496	17.254	797.855	602.653
414.511	17.256	797.576	602.396
415.526	17.362	796.821	602.149
416.540	17.383	796.496	601.924
417.555	17.397	795.864	601.441
418.569	17.184	795.674	600.493
419.584	17.444	794.899	600.774
420.599	17.391	794.568	600.282
421.613	108.954	1291.364	1468.846
422.628	93.595	1363.731	1468.921
