DTS Sentinel unit serial number:	SN413079Multiplexer serial number:	ORYXHardware model number:	OX4-SRSoftware version number:	ORYX F/W v4.00 Oryx Data Collector v3.7.2.0data status	okinstallation	princeton_trtdifferential loss correction	single-endedforward channel	channel 1reverse channel	N/Adate	2019/09/19time	14:42:35forward acquisition time	60.00reverse acquisition time	0.00gamma	496.2192k internal	0.2319k external	0.2319temperature offset calibration	1.0019default loss term (dB/km)	0.3790temperature slope calibration	1.0000multiplexer offset coefficient	1.0000multiplexer slope coefficient	1.0000fibre end	0.00T internal ref (°C)	32.56T ext. ref 1 (°C)	1.08T ext. ref 2 (°C)	29.61length (m)	temperature (°C)	Stokes	anti-Stokes-747.200	262.595	0.300	0.527
-746.185	-200.000	-0.025	0.306
-745.171	61.148	0.206	0.207
-744.156	-115.978	-0.366	-0.069
-743.142	-107.796	0.314	0.069
-742.127	-200.000	-0.032	0.153
-741.112	-113.988	0.427	0.084
-740.098	-70.421	-0.040	-0.015
-739.083	123.354	-0.188	0.238
-738.069	-200.000	-0.075	0.358
-737.054	240.280	-0.154	0.259
-736.039	226.060	-0.086	-0.141
-735.025	82.720	0.063	0.069
-734.010	448.409	0.107	-0.239
-732.996	-200.000	0.002	-0.103
-731.981	-151.065	-0.130	-0.010
-730.966	-25.294	-0.255	0.153
-729.952	-200.000	-0.008	-0.076
-728.937	-200.000	0.057	-0.412
-727.923	-101.985	-0.219	-0.054
-726.908	-113.756	0.274	-0.054
-725.894	233.240	-0.121	0.201
-724.879	-106.542	-0.615	-0.139
-723.864	187.950	0.078	-0.117
-722.850	8.095	0.238	-0.181
-721.835	-63.374	-0.468	-0.195
-720.821	-16.317	-0.165	0.106
-719.806	-120.372	-0.250	0.043
-718.791	-65.013	-0.210	0.086
-717.777	-90.529	0.226	-0.066
-716.762	-20.167	0.200	-0.125
-715.748	-113.639	-0.059	0.012
-714.733	-140.920	-0.074	-0.008
-713.718	-6.495	0.327	-0.225
-712.704	-200.000	-0.020	-0.104
-711.689	71.244	0.252	-0.264
-710.675	800.000	0.088	-0.351
-709.660	46.613	0.122	-0.115
-708.645	-54.015	-0.355	-0.163
-707.631	82.157	0.255	-0.279
-706.616	120.935	-0.102	-0.128
-705.602	-111.379	-0.224	-0.046
-704.587	-184.784	0.305	0.005
-703.572	35.992	0.138	-0.123
-702.558	791.943	0.212	0.588
-701.543	800.000	0.016	-0.056
-700.529	62.646	0.102	0.103
-699.514	-5.617	-0.141	-0.098
-698.499	-78.450	-0.141	-0.049
-697.485	1.210	-0.032	-0.023
-696.470	-200.000	-0.017	-0.271
-695.456	-151.145	0.094	0.007
-694.441	-89.202	0.271	0.081
-693.426	-122.267	0.270	-0.044
-692.412	-96.525	0.386	0.103
-691.397	436.322	0.072	-0.158
-690.383	-93.456	0.305	0.085
-689.368	-200.000	0.070	0.327
-688.354	-110.580	0.271	0.057
-687.339	52.538	-0.107	-0.104
-686.324	-200.000	-0.017	-0.512
-685.310	431.859	-0.101	0.221
-684.295	-28.299	-0.330	-0.192
-683.281	353.163	-0.110	-0.220
-682.266	-200.000	-0.017	0.315
-681.251	800.000	0.085	-0.332
-680.237	-200.000	0.037	-0.286
-679.222	-28.594	0.098	0.057
-678.208	-200.000	-0.044	-0.205
-677.193	172.525	0.121	0.176
-676.178	-6.733	0.186	-0.128
-675.164	53.375	-0.100	-0.097
-674.149	-105.031	-0.239	0.055
-673.135	-73.440	0.531	0.196
-672.120	800.000	-0.114	0.386
-671.105	-88.625	-0.312	-0.094
-670.091	65.066	0.058	-0.059
-669.076	188.379	0.054	0.081
-668.062	-35.825	-0.089	-0.048
-667.047	399.009	-0.036	0.076
-666.032	12.903	-0.209	-0.163
-665.018	-34.186	-0.196	-0.109
-664.003	52.064	-0.113	-0.109
-662.989	-58.020	0.243	-0.107
-661.974	-9.871	0.218	0.146
-660.959	-74.013	0.226	-0.082
-659.945	-200.000	0.019	0.247
-658.930	-20.349	0.081	0.050
-657.916	-95.187	-0.334	-0.091
-656.901	214.753	-0.073	-0.117
-655.886	49.077	-0.086	-0.082
-654.872	-200.000	0.003	0.041
-653.857	-9.069	0.218	0.147
-652.843	203.938	-0.101	0.158
-651.828	800.000	-0.104	-0.347
-650.814	45.728	0.074	-0.069
-649.799	-200.000	-0.068	0.385
-648.784	-57.490	-0.208	0.092
-647.770	-29.362	0.322	0.186
-646.755	-79.653	0.282	0.096
-645.741	148.998	-0.063	0.085
-644.726	-30.082	0.313	0.179
-643.711	-158.202	0.362	-0.021
-642.697	800.000	0.026	0.083
-641.682	-98.146	-0.271	-0.070
-640.668	-53.097	-0.112	0.052
-639.653	-200.000	-0.019	0.307
-638.638	231.900	0.095	-0.158
-637.624	-30.666	-0.364	0.208
-636.609	195.924	0.228	-0.349
-635.595	86.187	0.148	-0.165
-634.580	-200.000	-0.049	-0.250
-633.565	-82.755	-0.447	-0.146
-632.551	-103.746	-0.358	-0.085
-631.536	-173.079	0.125	0.004
-630.522	7.678	0.131	-0.099
-629.507	102.401	0.270	-0.317
-628.492	32.376	-0.151	0.132
-627.478	353.385	-0.175	-0.350
-626.463	-200.000	-0.005	0.127
-625.449	243.421	0.157	-0.265
-624.434	-96.309	0.114	0.030
-623.419	114.461	0.116	0.143
-622.405	-12.723	0.036	-0.024
-621.390	-118.558	-0.271	0.048
-620.376	122.015	0.208	0.261
-619.361	17.666	0.330	-0.265
-618.346	141.147	-0.098	-0.131
-617.332	134.230	0.252	-0.329
-616.317	-17.721	0.200	-0.127
-615.303	606.248	-0.114	-0.287
-614.288	309.059	-0.112	0.210
-613.273	-26.271	0.256	0.151
-612.259	-48.443	-0.052	0.025
-611.244	190.417	0.022	-0.034
-610.230	-182.526	0.256	-0.005
-609.215	-50.439	-0.195	0.093
-608.201	800.000	0.101	0.304
-607.186	82.711	-0.088	0.096
-606.171	-200.000	0.291	-0.001
-605.157	-200.000	0.039	0.487
-604.142	251.292	-0.182	-0.312
-603.128	-11.706	0.154	0.102
-602.113	-101.838	0.257	0.062
-601.098	-130.412	0.299	0.041
-600.084	84.593	0.116	0.128
-599.069	26.437	-0.145	-0.122
-598.055	-107.331	-0.015	-0.003
-597.040	221.954	0.199	0.323
-596.025	178.567	0.219	-0.322
-595.011	62.009	-0.122	-0.122
-593.996	651.141	0.068	-0.176
-592.982	-17.456	0.214	-0.135
-591.967	343.011	0.039	0.077
-590.952	-147.966	0.333	-0.028
-589.938	-13.804	-0.231	-0.150
-588.923	485.359	0.104	0.238
-587.909	-200.000	0.048	0.353
-586.894	163.447	-0.136	0.192
-585.879	800.000	0.102	-0.352
-584.865	24.304	-0.216	-0.180
-583.850	-128.842	-0.214	0.030
-582.836	155.660	-0.129	0.179
-581.821	-32.355	-0.316	0.177
-580.806	-137.381	0.138	-0.016
-579.792	-47.459	-0.235	0.115
-578.777	252.275	-0.070	-0.120
-577.763	224.074	0.131	0.212
-576.748	-56.348	-0.122	-0.054
-575.733	-85.226	0.164	0.051
-574.719	1.098	0.072	-0.052
-573.704	-51.353	0.137	-0.065
-572.690	182.206	0.082	0.121
-571.675	-200.000	0.016	-0.086
-570.661	800.000	-0.031	0.112
-569.646	150.896	-0.131	0.179
-568.631	207.251	0.141	0.221
-567.617	-54.260	-0.355	0.162
-566.602	-27.791	-0.052	0.030
-565.588	800.000	-0.111	-0.314
-564.573	-73.505	0.147	0.054
-563.558	407.903	0.087	0.185
-562.544	-110.311	0.145	-0.030
-561.529	179.592	-0.157	-0.230
-560.515	-80.419	0.350	0.117
-559.500	-115.591	-0.428	-0.081
-558.485	169.587	-0.200	0.287
-557.471	-131.498	-0.114	-0.015
-556.456	-200.000	0.053	-0.345
-555.442	461.673	0.059	-0.133
-554.427	96.096	0.356	-0.408
-553.412	-200.000	-0.020	-0.244
-552.398	595.244	-0.161	0.401
-551.383	800.000	0.047	0.202
-550.369	-92.449	-0.267	-0.075
-549.354	-200.000	-0.014	-0.130
-548.339	800.000	0.018	-0.057
-547.325	-11.524	0.393	-0.259
-546.310	-15.714	-0.150	-0.096
-545.296	36.203	-0.075	-0.066
-544.281	50.036	0.204	-0.194
-543.266	62.499	0.093	-0.093
-542.252	-200.000	-0.008	-0.229
-541.237	-200.000	-0.001	-0.031
-540.223	20.112	-0.103	0.083
-539.208	-158.089	-0.173	-0.010
-538.193	61.285	-0.152	-0.151
-537.179	-16.895	0.149	-0.094
-536.164	570.211	0.111	-0.270
-535.150	-24.793	-0.234	0.139
-534.135	800.000	0.025	0.095
-533.121	-35.694	0.217	-0.118
-532.106	-70.132	-0.037	0.014
-531.091	70.010	0.201	0.209
-530.077	800.000	0.025	-0.079
-529.062	196.176	0.060	0.092
-528.048	-25.483	0.147	0.087
-527.033	-37.833	-0.295	-0.158
-526.018	-152.604	-0.176	-0.013
-525.004	800.000	0.028	0.114
-523.989	-135.762	-0.316	0.038
-522.975	391.635	0.075	0.155
-521.960	148.279	-0.180	0.244
-520.945	-200.000	-0.061	0.380
-519.931	-161.769	-0.128	-0.007
-518.916	-117.325	0.029	0.005
-517.902	-69.256	-0.174	0.067
-516.887	123.665	-0.133	-0.168
-515.872	-200.000	0.031	0.150
-514.858	119.780	0.131	0.163
-513.843	7.312	-0.283	0.212
-512.829	800.000	-0.074	0.295
-511.814	249.035	0.090	-0.152
-510.799	282.711	-0.075	-0.134
-509.785	-2.016	0.254	-0.179
-508.770	676.080	0.080	-0.208
-507.756	-200.000	0.011	0.075
-506.741	-200.000	0.011	-0.123
-505.726	-138.139	-0.397	-0.044
-504.712	-17.674	-0.140	0.088
-503.697	-30.202	0.116	0.066
-502.683	-200.000	0.000	0.438
-501.668	-200.000	-0.067	0.415
-500.653	-200.000	0.027	0.275
-499.639	-31.562	0.176	0.099
-498.624	800.000	-0.043	0.185
-497.610	694.864	-0.160	0.421
-496.595	-158.088	0.058	0.003
-495.581	232.923	-0.072	0.118
-494.566	480.619	-0.068	-0.154
-493.551	-200.000	-0.005	-0.101
-492.537	-200.000	-0.013	-0.123
-491.522	-134.558	-0.074	0.009
-490.508	-200.000	-0.042	-0.441
-489.493	753.807	0.105	-0.285
-488.478	-21.093	0.442	0.271
-487.464	129.936	-0.105	0.135
-486.449	-62.647	0.009	0.004
-485.435	800.000	-0.073	-0.211
-484.420	800.000	0.001	-0.004
-483.405	-6.597	-0.317	-0.216
-482.391	39.871	0.220	0.198
-481.376	-123.353	-0.245	0.039
-480.362	-200.000	-0.017	0.269
-479.347	602.827	-0.081	0.202
-478.332	-52.051	-0.213	-0.099
-477.318	-60.331	-0.260	-0.111
-476.303	-200.000	0.003	0.368
-475.289	-11.613	-0.293	0.193
-474.274	-200.000	0.015	-0.337
-473.259	49.835	0.170	0.160
-472.245	-138.636	-0.179	0.020
-471.230	382.583	-0.130	-0.267
-470.216	-200.000	0.015	0.093
-469.201	-163.976	-0.242	-0.011
-468.186	-100.907	0.143	0.035
-467.172	-119.972	0.374	0.064
-466.157	-81.641	-0.255	-0.084
-465.143	109.364	0.181	-0.217
-464.128	-200.000	0.026	-0.310
-463.113	-130.085	-0.440	0.060
-462.099	-48.244	-0.339	0.164
-461.084	-98.477	0.393	0.101
-460.070	64.194	0.231	0.233
-459.055	-200.000	0.036	0.191
-458.040	128.642	0.402	0.513
-457.026	-43.884	-0.114	-0.058
-456.011	47.274	0.165	-0.154
-454.997	-118.741	-0.201	0.035
-453.982	278.116	-0.186	0.332
-452.968	47.794	-0.013	-0.012
-451.953	33.028	0.102	0.089
-450.938	-102.393	-0.317	-0.076
-449.924	-200.000	-0.011	0.162
-448.909	-200.000	-0.026	0.268
-447.895	62.622	0.090	-0.090
-446.880	-200.000	-0.032	-0.253
-445.865	800.000	-0.062	-0.183
-444.851	164.784	0.115	-0.162
-443.836	210.275	-0.135	0.213
-442.822	337.731	-0.078	0.152
-441.807	148.063	0.141	0.190
-440.792	-159.158	-0.116	-0.007
-439.778	220.840	-0.019	-0.031
-438.763	-65.959	0.409	0.163
-437.749	8.251	0.045	0.034
-436.734	-29.993	-0.071	0.041
-435.719	800.000	-0.073	0.205
-434.705	-93.476	0.125	0.035
-433.690	-163.009	-0.141	-0.007
-432.676	37.213	0.232	-0.205
-431.661	-55.881	0.278	-0.124
-430.646	769.177	-0.115	-0.312
-429.632	800.000	0.054	-0.156
-428.617	409.477	0.151	-0.320
-427.603	159.442	-0.210	0.292
-426.588	206.477	-0.230	0.357
-425.573	697.583	-0.119	0.311
-424.559	160.308	0.208	0.289
-423.544	56.977	-0.034	-0.034
-422.530	-200.000	-0.005	0.182
-421.515	-46.673	0.227	-0.111
-420.500	-67.705	-0.701	-0.274
-419.486	-200.000	0.020	-0.202
-418.471	-117.687	-0.174	0.031
-417.457	-8.569	0.251	-0.169
-416.442	118.553	0.047	-0.058
-415.428	800.000	0.035	0.135
-414.413	52.976	0.055	-0.053
-413.398	691.211	0.085	-0.222
-412.384	-122.522	0.040	-0.007
-411.369	119.720	-0.314	0.389
-410.355	-61.690	0.225	0.094
-409.340	193.894	-0.036	-0.054
-408.325	16.617	0.350	-0.277
-407.311	-5.188	-0.189	-0.130
-406.296	29.741	0.183	0.156
-405.282	-137.114	0.570	-0.065
-404.267	522.938	-0.090	-0.212
-403.252	-164.844	-0.275	0.012
-402.238	-189.292	-0.301	-0.004
-401.223	-100.984	0.472	-0.116
-400.209	331.155	-0.020	0.038
-399.194	-108.465	-0.115	0.025
-398.179	-42.457	0.222	0.113
-397.165	-73.461	-0.295	0.107
-396.150	33.220	-0.171	-0.148
-395.136	-200.000	-0.018	-0.186
-394.121	-200.000	0.032	-0.179
-393.106	-200.000	-0.022	0.220
-392.092	20.275	0.215	0.173
-391.077	-200.000	0.005	-0.125
-390.063	800.000	-0.090	-0.321
-389.048	-57.989	-0.414	-0.180
-388.033	-141.772	-0.095	0.010
-387.019	717.767	-0.066	-0.176
-386.004	800.000	0.079	0.217
-384.990	195.515	-0.172	-0.261
-383.975	-168.523	0.086	0.003
-382.960	-200.000	-0.011	0.169
-381.946	-200.000	0.027	0.432
-380.931	46.224	-0.307	0.284
-379.917	-44.790	-0.042	0.021
-378.902	-80.808	0.172	-0.057
-377.888	-52.208	0.181	-0.084
-376.873	44.086	-0.118	0.108
-375.858	432.085	0.057	0.123
-374.844	800.000	-0.069	0.204
-373.829	99.485	0.145	0.168
-372.815	-41.541	-0.312	-0.160
-371.800	-6.013	-0.142	-0.097
-370.785	127.257	0.122	-0.155
-369.771	-17.913	-0.257	-0.161
-368.756	177.179	0.088	-0.127
-367.742	-39.482	0.193	-0.101
-366.727	-14.053	-0.213	0.137
-365.712	-18.121	0.256	0.160
-364.698	61.824	-0.128	-0.127
-363.683	-18.249	0.183	0.114
-362.669	158.419	-0.053	0.073
-361.654	-200.000	-0.017	-0.107
-360.639	800.000	0.034	-0.147
-359.625	554.980	0.069	-0.165
-358.610	21.808	-0.185	0.150
-357.596	13.396	-0.141	0.109
-356.581	97.425	0.072	0.082
-355.566	-138.006	0.095	0.011
-354.552	436.620	0.108	0.235
-353.537	48.348	-0.087	0.081
-352.523	-200.000	-0.045	-0.278
-351.508	-200.000	-0.005	-0.299
-350.493	18.634	0.117	-0.093
-349.479	-109.124	-0.194	0.041
-348.464	168.501	-0.089	-0.127
-347.450	-13.039	-0.023	0.015
-346.435	-153.804	0.204	-0.014
-345.420	800.000	-0.113	0.320
-344.406	400.268	0.125	-0.261
-343.391	97.196	0.228	0.261
-342.377	-66.981	-0.216	-0.085
-341.362	150.032	-0.045	0.060
-340.348	153.202	-0.168	-0.229
-339.333	277.563	0.153	-0.271
-338.318	26.894	-0.160	-0.134
-337.304	-38.252	0.229	-0.121
-336.289	-108.054	-0.209	0.045
-335.275	-200.000	0.065	-0.355
-334.260	-100.516	-0.054	-0.013
-333.245	-107.889	0.350	-0.076
-332.231	100.173	0.146	0.168
-331.216	-84.198	-0.190	-0.060
-330.202	-167.304	-0.040	-0.002
-329.187	-56.971	-0.182	-0.080
-328.172	-60.189	0.202	0.086
-327.158	-157.364	-0.227	-0.014
-326.143	-18.392	-0.218	0.136
-325.129	-72.275	-0.184	-0.068
-324.114	29.735	0.100	-0.085
-323.099	-83.850	0.145	-0.046
-322.085	-38.176	-0.049	0.026
-321.070	-123.744	0.316	-0.050
-320.056	127.842	0.161	0.204
-319.041	-102.002	0.268	-0.064
-318.026	-106.876	-0.046	0.010
-317.012	98.252	0.099	-0.113
-315.997	-200.000	0.000	-0.085
-314.983	-136.711	0.360	-0.041
-313.968	259.531	0.246	0.423
-312.953	-11.945	0.257	0.168
-311.939	246.295	-0.120	-0.202
-310.924	-74.525	0.122	0.044
-309.910	506.162	-0.095	-0.219
-308.895	316.549	-0.130	0.244
-307.880	2.982	-0.234	-0.169
-306.866	-12.409	0.268	0.174
-305.851	800.000	0.054	-0.181
-304.837	-141.321	0.237	0.024
-303.822	-48.956	-0.350	-0.167
-302.807	-27.079	0.042	0.025
-301.793	-200.000	0.011	0.306
-300.778	47.618	-0.231	-0.214
-299.764	-200.000	-0.078	0.342
-298.749	-86.894	0.149	0.045
-297.735	800.000	0.097	-0.367
-296.720	-200.000	0.038	-0.290
-295.705	428.574	-0.114	0.244
-294.691	-95.496	-0.315	0.084
-293.676	800.000	0.056	0.181
-292.662	306.491	0.073	0.135
-291.647	-200.000	-0.044	-0.245
-290.632	674.126	-0.130	-0.337
-289.618	800.000	0.047	-0.142
-288.603	-200.000	-0.035	0.395
-287.589	-200.000	0.019	0.370
-286.574	552.106	-0.202	-0.482
-285.559	-71.307	0.288	0.107
-284.545	-40.040	-0.164	-0.085
-283.530	800.000	-0.124	0.359
-282.516	-200.000	-0.005	0.264
-281.501	143.983	0.160	0.212
-280.486	206.573	0.125	0.194
-279.472	223.484	-0.153	-0.245
-278.457	-30.748	0.744	-0.418
-277.443	5.506	-0.084	-0.062
-276.428	-19.258	0.062	0.038
-275.413	-200.000	0.006	-0.206
-274.399	-34.509	-0.241	-0.131
-273.384	-31.699	-0.425	-0.237
-272.370	800.000	-0.095	-0.413
-271.355	800.000	-0.050	-0.144
-270.340	-7.287	-0.177	0.119
-269.326	-99.872	0.316	0.078
-268.311	118.821	-0.194	-0.238
-267.297	-175.359	-0.240	0.007
-266.282	179.936	0.110	-0.161
-265.267	480.305	-0.074	-0.167
-264.253	-200.000	0.021	0.226
-263.238	-86.312	-0.169	0.051
-262.224	-200.000	-0.067	0.321
-261.209	-148.692	0.371	-0.030
-260.195	259.991	-0.090	0.155
-259.180	-158.850	-0.183	-0.010
-258.165	-200.000	-0.037	-0.505
-257.151	91.999	0.268	0.299
-256.136	-56.706	-0.056	-0.025
-255.122	-27.801	-0.073	0.042
-254.107	357.382	0.078	0.155
-253.092	-98.104	-0.196	-0.050
-252.078	41.828	0.167	-0.150
-251.063	279.474	0.161	0.285
-250.049	81.604	0.163	0.175
-249.034	-168.675	0.070	-0.003
-248.019	441.008	-0.042	-0.092
-247.005	-100.665	0.348	0.085
-245.990	-81.901	0.160	0.052
-244.976	-61.513	0.309	-0.129
-243.961	-125.779	-0.186	0.028
-242.946	800.000	-0.108	-0.301
-241.932	-200.000	-0.004	-0.145
-240.917	-120.780	-0.352	0.059
-239.903	-124.797	-0.034	-0.005
-238.888	-200.000	0.022	-0.245
-237.873	255.638	-0.019	0.033
-236.859	-200.000	-0.002	-0.125
-235.844	-182.473	-0.153	-0.003
-234.830	-77.465	0.016	-0.006
-233.815	-80.378	-0.499	0.165
-232.800	-113.108	0.264	-0.052
-231.786	565.853	0.123	-0.296
-230.771	800.000	0.022	0.093
-229.757	84.659	0.150	0.163
-228.742	58.082	-0.159	0.155
-227.727	62.085	-0.221	-0.219
-226.713	-200.000	0.013	-0.135
-225.698	-132.520	-0.143	0.018
-224.684	-200.000	-0.046	0.233
-223.669	800.000	0.094	0.373
-222.655	33.089	-0.119	0.102
-221.640	317.644	0.019	-0.035
-220.625	-200.000	0.010	0.176
-219.611	-32.617	-0.307	-0.170
-218.596	421.534	0.106	0.225
-217.582	-200.000	0.020	-0.209
-216.567	-145.000	-0.145	0.013
-215.552	-26.786	-0.263	0.152
-214.538	194.123	-0.143	-0.214
-213.523	115.498	-0.177	0.215
-212.509	782.348	0.071	-0.193
-211.494	-31.832	-0.160	0.089
-210.479	-63.084	-0.235	0.096
-209.465	188.238	0.041	-0.060
-208.450	498.605	0.038	0.086
-207.436	-200.000	0.020	0.110
-206.421	-132.708	0.278	-0.035
-205.406	-68.561	-0.388	-0.149
-204.392	800.000	0.054	-0.232
-203.377	-112.911	0.232	-0.046
-202.363	64.988	0.278	-0.278
-201.348	-200.000	-0.016	0.293
-200.333	-91.402	-0.106	-0.030
-199.319	800.000	0.110	-0.306
-198.304	-200.000	-0.035	-0.195
-197.290	57.990	-0.340	0.330
-196.275	178.225	0.094	-0.136
-195.260	62.656	-0.082	0.081
-194.246	406.014	0.041	0.087
-193.231	588.652	-0.008	0.020
-192.217	-86.217	0.518	-0.158
-191.202	59.149	0.153	0.149
-190.187	-200.000	0.091	-0.416
-189.173	-200.000	0.026	-0.235
-188.158	54.892	-0.090	0.086
-187.144	-74.077	-0.572	-0.205
-186.129	248.870	0.126	0.211
-185.114	-107.418	0.055	-0.012
-184.100	-101.251	0.166	-0.040
-183.085	-37.420	-0.166	0.088
-182.071	5.884	0.186	-0.137
-181.056	-92.897	0.269	0.074
-180.042	800.000	0.013	0.046
-179.027	17.524	0.283	-0.222
-178.012	-86.121	-0.323	0.099
-176.998	60.763	-0.121	0.119
-175.983	323.752	-0.135	-0.255
-174.969	-11.755	0.217	-0.141
-173.954	-68.962	-0.323	-0.123
-172.939	2.701	0.322	0.231
-171.925	-200.000	-0.025	-0.115
-170.910	800.000	-0.041	-0.134
-169.896	-109.293	0.183	-0.038
-168.881	390.855	0.076	0.157
-167.866	-200.000	-0.012	-0.201
-166.852	61.270	-0.091	0.089
-165.837	-48.980	0.093	0.044
-164.823	-177.463	0.203	0.005
-163.808	-0.796	-0.159	0.111
-162.793	80.235	0.249	0.265
-161.779	-31.237	0.220	-0.123
-160.764	182.709	0.086	-0.125
-159.750	-112.360	0.292	0.058
-158.735	-47.078	-0.163	0.079
-157.720	-141.084	-0.179	-0.018
-156.706	58.727	-0.170	-0.165
-155.691	68.789	-0.147	-0.150
-154.677	-102.292	0.384	-0.091
-153.662	100.318	0.244	0.280
-152.647	108.006	-0.054	0.063
-151.633	-106.321	0.051	0.011
-150.618	242.547	0.068	-0.112
-149.604	86.936	0.346	0.378
-148.589	-63.678	-0.113	-0.046
-147.574	-200.000	0.067	-0.319
-146.560	-109.248	0.250	0.052
-145.545	306.703	-0.230	0.424
-144.531	-83.740	-0.487	0.154
-143.516	-28.340	0.117	0.067
-142.502	-85.696	-0.090	0.028
-141.487	69.676	-0.164	0.167
-140.472	-141.476	-0.178	0.018
-139.458	365.782	0.034	0.068
-138.443	569.308	0.140	0.337
-137.429	-200.000	-0.052	-0.286
-136.414	754.776	-0.056	0.149
-135.399	800.000	-0.056	-0.175
-134.385	-200.000	-0.020	-0.274
-133.370	165.093	-0.104	-0.145
-132.356	-200.000	0.057	0.280
-131.341	800.000	0.046	-0.156
-130.326	-58.240	-0.091	-0.039
-129.312	-131.179	0.088	-0.012
-128.297	-103.480	0.025	-0.006
-127.283	-112.086	0.269	-0.054
-126.268	13.617	-0.129	-0.099
-125.253	-200.000	0.017	0.272
-124.239	23.136	0.198	0.160
-123.224	-41.085	0.139	-0.071
-122.210	100.687	0.169	0.194
-121.195	401.355	0.085	0.177
-120.180	-110.971	-0.253	-0.051
-119.166	158.577	0.067	-0.092
-118.151	-200.000	-0.016	0.290
-117.137	140.538	-0.043	-0.057
-116.122	-33.035	0.063	-0.034
-115.107	-200.000	-0.005	0.165
-114.093	206.379	0.042	-0.064
-113.078	-42.298	0.068	-0.034
-112.064	-134.137	-0.242	-0.030
-111.049	466.865	0.105	-0.232
-110.034	-150.704	0.103	0.008
-109.020	-104.029	0.068	-0.016
-108.005	549.850	-0.158	-0.374
-106.991	-33.598	-0.098	0.053
-105.976	-100.917	0.157	-0.038
-104.962	-200.000	-0.028	0.235
-103.947	655.351	-0.133	0.336
-102.932	-125.586	-0.326	-0.049
-101.918	-160.549	-0.124	-0.007
-100.903	-200.000	0.012	0.190
-99.889	62.848	0.168	-0.165
-98.874	800.000	-0.017	0.060
-97.859	-39.386	-0.296	0.153
-96.845	-54.668	0.207	-0.092
-95.830	686.064	0.075	-0.194
-94.816	-200.000	-0.004	-0.077
-93.801	-41.200	0.091	0.046
-92.786	800.000	0.101	-0.344
-91.772	-24.286	0.207	-0.122
-90.757	45.891	-0.133	0.122
-89.743	800.000	0.055	0.226
-88.728	800.000	0.095	-0.308
-87.713	-30.619	0.209	0.117
-86.699	-142.229	-0.094	-0.009
-85.684	23.512	-0.277	0.225
-84.670	800.000	0.046	-0.149
-83.655	-200.000	-0.054	0.254
-82.640	-51.570	-0.397	-0.183
-81.626	-200.000	-0.058	-0.294
-80.611	-179.765	-0.257	-0.005
-79.597	800.000	-0.112	-0.323
-78.582	-200.000	0.342	-0.000
-77.567	-200.000	-0.016	0.090
-76.553	194.125	-0.227	-0.339
-75.538	185.869	0.198	0.290
-74.524	800.000	0.053	0.149
-73.509	267.342	-0.120	0.206
-72.494	138.776	0.063	-0.082
-71.480	20.713	0.113	0.090
-70.465	-13.586	-0.147	-0.094
-69.451	131.510	0.085	-0.108
-68.436	130.700	0.175	-0.221
-67.422	95.379	0.037	0.042
-66.407	128.698	0.085	-0.106
-65.392	186.387	-0.083	0.122
-64.378	-70.107	-0.350	-0.131
-63.363	-195.599	-0.080	-0.001
-62.349	-18.634	0.042	0.026
-61.334	20.432	-1.094	-0.871
-60.319	444.641	0.280	0.606
-59.305	-200.000	-0.106	-1.139
-58.290	800.000	0.348	1.015
-57.276	575.884	0.615	1.480
-56.261	-200.000	95.005	551.980
-55.246	500.796	1426.925	3243.179
-54.232	148.615	2635.542	3506.812
-53.217	111.798	2211.717	2629.577
-52.203	44.605	1652.029	1495.454
-51.188	36.145	1381.910	1198.583
-50.173	32.903	1338.534	1141.352
-49.159	55.090	1383.690	1316.458
-48.144	57.228	1401.519	1346.476
-47.130	36.343	1360.424	1180.968
-46.115	32.674	1343.656	1144.145
-45.100	32.568	1338.501	1139.071
-44.086	32.554	1335.983	1136.797
-43.071	32.418	1333.824	1134.098
-42.057	32.410	1331.514	1132.040
-41.042	32.406	1330.257	1130.899
-40.027	32.441	1328.510	1129.579
-39.013	32.576	1326.441	1128.587
-37.998	32.526	1324.592	1126.671
-36.984	32.596	1322.326	1125.114
-35.969	32.545	1320.729	1123.407
-34.954	32.631	1319.357	1122.709
-33.940	32.545	1318.277	1121.231
-32.925	32.638	1316.937	1120.602
-31.911	32.576	1315.483	1118.953
-30.896	32.706	1313.625	1118.097
-29.881	32.644	1312.464	1116.697
-28.867	32.735	1310.645	1115.645
-27.852	32.683	1309.403	1114.238
-26.838	32.747	1307.610	1113.046
-25.823	32.691	1306.596	1111.806
-24.809	32.588	1305.631	1110.333
-23.794	32.653	1303.865	1109.170
-22.779	32.748	1302.116	1108.196
-21.765	32.650	1301.262	1106.852
-20.750	32.572	1299.803	1105.108
-19.736	32.496	1298.676	1103.660
-18.721	32.399	1297.483	1102.034
-17.706	32.567	1296.141	1101.835
-16.692	32.419	1295.584	1100.449
-15.677	32.593	1294.006	1100.086
-14.663	32.479	1293.171	1098.667
-13.648	32.564	1291.675	1097.845
-12.633	32.464	1290.705	1096.397
-11.619	32.507	1289.928	1095.945
-10.604	32.380	1289.352	1094.670
-9.590	32.447	1287.926	1093.808
-8.575	32.572	1286.399	1093.192
-7.560	32.454	1286.596	1092.633
-6.546	32.400	1285.754	1091.558
-5.531	32.553	1284.369	1091.226
-4.517	32.579	1283.200	1090.341
-3.502	32.528	1282.857	1089.711
-2.487	32.522	1281.831	1088.762
-1.473	32.511	1277.992	1085.394
-0.458	31.612	1263.260	1067.714
0.556	27.601	1245.571	1029.704
1.571	23.241	1250.576	1008.961
2.586	21.438	1264.471	1009.685
3.600	20.062	1251.712	991.537
4.615	14.622	1175.720	901.934
5.629	5.684	1097.743	796.763
6.644	1.352	1076.814	759.859
7.659	1.005	1074.421	756.371
8.673	0.993	1073.345	755.488
9.688	0.981	1072.440	754.726
10.702	1.213	1070.464	754.422
11.717	5.768	1076.724	781.513
12.731	13.410	1086.701	827.005
13.746	17.155	1090.413	848.501
14.761	17.601	1090.351	850.602
15.775	16.938	1088.505	845.781
16.790	15.906	1086.413	838.941
17.804	15.054	1085.433	833.868
18.819	14.771	1083.994	831.282
19.834	14.590	1082.780	829.379
20.848	14.218	1082.525	827.260
21.863	14.025	1081.001	825.064
22.877	13.721	1080.881	823.391
23.892	13.856	1079.688	823.079
24.907	13.731	1079.018	821.878
25.921	13.731	1078.451	821.372
26.936	13.860	1077.434	821.160
27.950	13.857	1076.466	820.337
28.965	13.882	1075.506	819.656
29.980	14.091	1073.679	819.219
30.994	13.927	1072.607	817.521
32.009	14.105	1071.340	817.359
33.023	14.011	1070.759	816.384
34.038	14.001	1069.601	815.378
35.053	13.872	1068.646	813.947
36.067	13.958	1068.045	813.839
37.082	13.862	1067.626	812.975
38.096	13.907	1066.566	812.317
39.111	13.854	1065.689	811.317
40.126	13.948	1064.161	810.543
41.140	13.843	1063.124	809.167
42.155	13.761	1062.420	808.162
43.169	13.816	1060.961	807.246
44.184	13.625	1060.201	805.671
45.199	13.754	1059.392	805.610
46.213	13.797	1057.703	804.465
47.228	13.838	1056.774	803.883
48.242	13.850	1055.595	802.973
49.257	13.780	1055.056	802.156
50.271	13.819	1053.984	801.458
51.286	13.969	1052.935	801.315
52.301	13.905	1051.715	800.007
53.315	13.955	1050.883	799.543
54.330	13.955	1049.994	798.793
55.344	13.854	1049.426	797.805
56.359	14.006	1048.268	797.583
57.374	13.878	1047.456	796.282
58.388	13.817	1046.598	795.269
59.403	13.906	1045.501	794.791
60.417	13.727	1045.076	793.542
61.432	13.655	1044.727	792.861
62.447	13.817	1043.550	792.672
63.461	13.756	1042.413	791.448
64.476	13.769	1041.615	790.830
65.490	13.720	1041.102	790.139
66.505	13.729	1040.342	789.537
67.520	13.699	1039.557	788.727
68.534	13.800	1038.718	788.502
69.549	13.914	1037.864	788.325
70.563	13.756	1037.284	787.064
71.578	13.761	1036.176	786.177
72.593	13.826	1035.541	785.935
73.607	13.732	1035.227	785.180
74.622	13.646	1034.512	784.161
75.636	13.658	1033.970	783.738
76.651	13.776	1032.942	783.446
77.666	13.744	1032.399	782.816
78.680	13.636	1032.039	781.964
79.695	13.851	1030.706	781.899
80.709	13.744	1030.640	781.274
81.724	13.894	1029.379	780.952
82.739	13.701	1029.214	779.852
83.753	13.899	1028.181	779.930
84.768	13.940	1027.207	779.317
85.782	14.048	1025.932	778.784
86.797	13.945	1024.961	777.496
87.812	13.850	1024.647	776.746
88.826	13.762	1023.466	775.370
89.841	13.930	1022.402	775.281
90.855	13.871	1021.268	774.076
91.870	14.006	1020.490	774.049
92.884	13.946	1019.896	773.251
93.899	13.945	1018.839	772.373
94.914	14.040	1017.926	772.056
95.928	14.030	1016.974	771.218
96.943	13.997	1016.473	770.617
97.957	13.957	1015.739	769.806
98.972	13.931	1015.148	769.173
99.987	13.983	1014.230	768.647
101.001	13.849	1013.058	767.074
102.016	13.971	1011.992	766.762
103.030	13.980	1011.196	766.133
104.045	13.959	1010.424	765.381
105.060	13.994	1009.655	764.891
106.074	13.905	1008.776	763.749
107.089	13.910	1007.477	762.720
108.103	13.902	1006.643	761.987
109.118	13.940	1005.711	761.387
110.133	13.837	1005.188	760.450
111.147	13.788	1004.624	759.734
112.162	13.881	1003.378	759.152
113.176	13.906	1002.378	758.439
114.191	13.999	1002.228	758.684
115.206	13.953	1001.000	757.479
116.220	13.924	999.932	756.473
117.235	13.957	999.515	756.239
118.249	13.888	998.605	755.170
119.264	13.931	997.780	754.673
120.279	13.839	997.057	753.641
121.293	13.938	996.080	753.287
122.308	13.839	995.467	752.307
123.322	14.020	994.278	752.164
124.337	13.914	993.237	750.829
125.352	13.919	992.173	749.981
126.366	13.983	990.764	749.137
127.381	13.892	989.784	747.921
128.395	13.899	988.829	747.162
129.410	13.959	988.050	746.779
130.424	13.963	987.425	746.258
131.439	13.983	986.212	745.366
132.454	13.946	985.934	744.925
133.468	14.039	984.616	744.280
134.483	14.083	983.596	743.637
135.497	14.058	982.857	742.901
136.512	14.036	982.112	742.173
137.527	14.085	981.066	741.537
138.541	14.070	980.361	740.872
139.556	14.021	980.167	740.439
140.570	14.158	979.034	740.130
141.585	14.133	977.928	739.117
142.600	14.244	977.008	738.850
143.614	14.042	976.401	737.430
144.629	14.159	975.638	737.305
145.643	14.187	974.480	736.490
146.658	14.082	973.700	735.372
147.673	14.171	972.326	734.661
148.687	14.063	972.100	733.948
149.702	14.126	970.740	733.136
150.716	14.112	970.389	732.742
151.731	14.013	969.555	731.614
152.746	14.027	968.867	731.088
153.760	14.115	968.042	730.790
154.775	14.004	968.040	730.235
155.789	14.222	966.771	730.171
156.804	14.225	966.327	729.781
157.819	14.222	965.575	729.137
158.833	14.211	965.133	728.690
159.848	14.240	964.254	728.090
160.862	14.346	962.822	727.409
161.877	14.283	961.844	726.328
162.892	14.341	961.211	726.039
163.906	14.149	960.238	724.402
164.921	14.213	959.525	724.080
165.935	14.097	958.767	722.940
166.950	14.210	957.895	722.709
167.964	14.193	956.999	721.897
168.979	14.310	956.190	721.729
169.994	14.230	955.501	720.797
171.008	14.273	954.522	720.184
172.023	14.411	953.598	720.020
173.037	14.327	953.204	719.296
174.052	14.349	952.449	718.757
175.067	14.243	951.688	717.662
176.081	14.256	951.172	717.264
177.096	14.316	950.556	716.996
178.110	14.343	949.425	716.193
179.125	14.394	949.162	716.151
180.140	14.355	948.536	715.450
181.154	14.300	948.644	715.229
182.169	14.277	948.329	714.832
183.183	14.398	947.586	714.725
184.198	14.398	946.510	713.853
185.213	14.463	945.970	713.661
186.227	14.491	945.200	713.137
187.242	14.465	944.503	712.437
188.256	14.710	943.426	712.605
189.271	14.544	942.825	711.379
190.286	14.556	942.042	710.779
191.300	14.406	941.852	709.931
192.315	14.416	941.190	709.415
193.329	14.195	941.153	708.383
194.344	14.415	939.841	708.266
195.359	14.443	938.901	707.613
196.373	14.591	938.437	707.830
197.388	14.616	938.250	707.733
198.402	14.555	937.688	706.988
199.417	14.726	936.699	706.902
200.432	14.874	936.207	707.097
201.446	14.790	935.748	706.332
202.461	14.735	935.340	705.729
203.475	14.807	934.620	705.425
204.490	14.722	934.184	704.676
205.504	14.670	933.252	703.693
206.519	14.769	932.498	703.478
207.534	14.811	931.550	702.878
208.548	14.824	931.005	702.460
209.563	14.818	930.129	701.712
210.577	14.977	929.250	701.652
211.592	14.895	928.721	700.846
212.607	14.897	928.060	700.292
213.621	14.930	927.450	699.909
214.636	14.962	926.450	699.226
215.650	14.949	925.934	698.722
216.665	14.970	925.562	698.465
217.680	15.032	924.846	698.125
218.694	15.059	923.988	697.526
219.709	14.922	923.961	696.873
220.723	15.006	922.830	696.307
221.738	14.837	921.988	694.910
222.753	14.875	921.540	694.667
223.767	15.025	920.750	694.631
224.782	15.002	920.049	693.946
225.796	15.171	919.404	694.100
226.811	15.220	918.439	693.514
227.826	15.001	918.197	692.360
228.840	15.032	917.455	691.870
229.855	15.134	916.170	691.261
230.869	15.168	915.508	690.840
231.884	15.226	914.798	690.483
232.899	15.126	914.525	689.805
233.913	14.958	913.932	688.602
234.928	15.147	913.210	688.777
235.942	15.118	912.550	688.098
236.957	15.205	911.758	687.796
237.972	15.057	911.863	687.209
238.986	15.225	910.801	687.034
240.001	15.114	910.091	685.984
241.015	15.130	909.594	685.615
242.030	15.148	908.967	685.156
243.045	15.284	907.980	684.907
244.059	15.187	907.683	684.226
245.074	15.330	906.858	684.126
246.088	15.342	906.225	683.636
247.103	15.388	905.473	683.197
248.117	15.417	905.145	683.007
249.132	15.425	904.443	682.448
250.147	15.298	903.863	681.434
251.161	15.470	903.423	681.742
252.176	15.477	902.608	681.096
253.190	15.443	901.659	680.179
254.205	15.586	901.151	680.315
255.220	15.443	900.583	679.248
256.234	15.562	899.952	679.195
257.249	15.695	898.880	678.862
258.263	15.648	898.189	678.091
259.278	15.596	897.840	677.555
260.293	15.684	897.105	677.297
261.307	15.690	896.643	676.913
262.322	15.709	896.083	676.504
263.336	15.732	895.317	675.958
264.351	15.782	894.605	675.565
265.366	15.845	894.058	675.343
266.380	15.826	892.864	674.304
267.395	15.792	892.306	673.690
268.409	15.773	891.486	672.934
269.424	15.870	890.889	672.813
270.439	15.722	890.006	671.494
271.453	15.788	889.677	671.452
272.468	15.802	889.385	671.226
273.482	15.800	888.571	670.545
274.497	15.859	887.735	670.088
275.512	15.780	887.474	669.518
276.526	15.845	886.891	669.277
277.541	15.890	886.311	668.958
278.555	15.915	885.850	668.653
279.570	15.981	885.336	668.465
280.585	16.087	883.939	667.771
281.599	15.991	883.072	666.679
282.614	15.846	883.132	666.092
283.628	15.987	882.426	666.056
284.643	15.970	881.742	665.415
285.657	15.939	881.053	664.712
286.672	16.006	880.754	664.693
287.687	16.079	879.755	664.167
288.701	16.086	879.042	663.598
289.716	15.967	878.785	662.878
290.730	16.078	878.504	663.043
291.745	16.124	877.320	662.270
292.760	16.194	876.702	662.022
293.774	16.166	876.551	661.739
294.789	16.197	875.389	660.924
295.803	16.172	874.765	660.299
296.818	16.224	874.212	660.023
297.833	16.315	873.348	659.668
298.847	16.208	872.750	658.741
299.862	16.236	872.313	658.461
300.876	16.414	871.320	658.348
301.891	16.322	871.120	657.782
302.906	16.428	870.630	657.767
303.920	16.432	870.096	657.320
304.935	16.561	869.318	657.173
305.949	16.441	868.600	656.108
306.964	16.427	868.365	655.818
307.979	16.439	867.551	655.194
308.993	16.577	866.754	655.066
310.008	16.492	866.116	654.197
311.022	16.392	866.048	653.701
312.037	16.316	865.656	653.052
313.052	16.489	864.502	652.795
314.066	16.512	864.046	652.481
315.081	16.453	863.312	651.641
316.095	16.377	862.804	650.906
317.110	16.479	862.299	650.862
318.125	16.406	861.947	650.258
319.139	16.399	861.523	649.853
320.154	16.405	861.047	649.459
321.168	16.694	859.788	649.561
322.183	16.494	859.555	648.559
323.197	16.513	859.161	648.279
324.212	16.581	858.608	648.065
325.227	16.567	857.791	647.337
326.241	16.515	857.730	647.034
327.256	16.660	856.447	646.562
328.270	16.609	856.180	646.111
329.285	16.551	855.752	645.509
330.300	16.800	854.818	645.694
331.314	16.533	854.695	644.530
332.329	16.677	853.976	644.478
333.343	16.794	853.415	644.441
334.358	16.757	853.279	644.143
335.373	16.690	852.882	643.528
336.387	16.577	852.714	642.916
337.402	16.642	852.681	643.082
338.416	16.903	851.600	643.200
339.431	16.970	851.301	643.173
340.446	16.985	850.880	642.853
341.460	16.986	850.446	642.472
342.475	16.945	849.799	641.772
343.489	16.982	849.429	641.576
344.504	17.093	848.699	641.386
345.519	17.056	848.177	640.796
346.533	16.971	848.246	640.469
347.548	16.935	847.765	639.914
348.562	16.933	847.392	639.567
349.577	16.849	846.785	638.739
350.592	16.840	846.141	638.161
351.606	17.107	845.088	638.316
352.621	17.031	844.394	637.448
353.635	17.019	843.658	636.790
354.650	16.968	843.341	636.305
355.665	17.045	842.832	636.154
356.679	17.147	841.640	635.577
357.694	17.048	841.549	635.084
358.708	17.100	840.643	634.537
359.723	17.045	840.568	634.221
360.738	17.338	839.547	634.486
361.752	17.259	839.149	633.833
362.767	17.191	838.786	633.249
363.781	17.235	837.967	632.739
364.796	17.219	837.697	632.421
365.810	17.335	836.935	632.221
366.825	17.321	836.915	632.098
367.840	17.381	836.325	631.821
368.854	17.385	835.593	631.225
369.869	17.421	835.223	631.023
370.883	17.458	834.815	630.795
371.898	17.455	834.290	630.332
372.913	17.478	833.913	630.077
373.927	17.442	833.521	629.593
374.942	17.462	832.876	629.124
375.956	17.480	832.404	628.777
376.971	17.552	832.298	628.907
377.986	17.553	831.823	628.498
379.000	17.362	831.573	627.548
380.015	17.663	830.611	627.877
381.029	17.689	830.127	627.549
382.044	17.749	829.818	627.482
383.059	17.675	829.217	626.699
384.073	17.682	828.287	625.967
385.088	17.655	827.853	625.484
386.102	17.594	827.367	624.836
387.117	17.711	826.679	624.691
388.132	17.735	826.224	624.382
389.146	17.715	825.446	623.664
390.161	17.779	824.827	623.375
391.175	17.830	824.206	623.036
392.190	17.636	824.227	622.289
393.205	17.699	823.820	622.156
394.219	17.787	823.324	622.048
395.234	17.825	822.696	621.658
396.248	17.677	822.533	620.939
397.263	17.636	822.088	620.398
398.278	17.677	821.784	620.265
399.292	17.795	821.216	620.210
400.307	17.785	820.441	619.532
401.321	17.656	820.051	618.717
402.336	17.740	819.668	618.677
403.350	17.956	818.907	618.830
404.365	17.954	818.837	618.715
405.380	17.986	818.221	618.311
406.394	17.959	817.419	617.554
407.409	17.925	817.177	617.192
408.423	17.925	816.868	616.906
409.438	18.113	816.324	617.118
410.453	18.256	815.929	617.279
411.467	18.020	815.497	616.047
412.482	18.157	815.044	616.144
413.496	17.987	815.011	615.451
414.511	18.153	814.325	615.480
415.526	18.128	813.937	615.041
416.540	18.224	813.436	614.953
417.555	18.223	812.874	614.470
418.569	18.128	812.644	613.900
419.584	18.215	812.075	613.727
420.599	18.331	811.477	613.638
421.613	108.963	1288.371	1458.820
422.628	94.147	1357.875	1458.919
