DTS Sentinel unit serial number:	SN413079Multiplexer serial number:	ORYXHardware model number:	OX4-SRSoftware version number:	ORYX F/W v4.00 Oryx Data Collector v3.7.2.0data status	okinstallation	princeton_trtdifferential loss correction	single-endedforward channel	channel 1reverse channel	N/Adate	2019/09/12time	18:54:34forward acquisition time	15.00reverse acquisition time	0.00gamma	496.2192k internal	0.2319k external	0.2319temperature offset calibration	1.0105default loss term (dB/km)	0.3790temperature slope calibration	1.0000multiplexer offset coefficient	1.0000multiplexer slope coefficient	1.0000fibre end	0.00T internal ref (°C)	32.87T ext. ref 1 (°C)	3.01T ext. ref 2 (°C)	27.38length (m)	temperature (°C)	Stokes	anti-Stokes-747.200	36.023	-0.200	0.178
-746.185	287.247	-0.131	0.240
-745.171	-33.555	0.132	-0.074
-744.156	5.981	-0.345	-0.259
-743.142	44.734	-0.341	0.317
-742.127	-89.109	0.379	0.113
-741.112	-58.642	-0.695	0.304
-740.098	74.829	0.301	-0.320
-739.083	-83.099	0.663	0.216
-738.069	800.000	-0.009	0.035
-737.054	42.212	-0.175	0.160
-736.039	-78.390	-0.327	-0.113
-735.025	20.001	0.365	-0.298
-734.010	321.003	-0.391	-0.752
-732.996	122.127	0.245	-0.309
-731.981	-120.963	-0.621	-0.106
-730.966	-86.067	-0.047	0.015
-729.952	-21.041	0.607	-0.376
-728.937	-200.000	-0.102	-0.568
-727.923	322.189	-0.034	0.066
-726.908	-152.645	-0.482	-0.035
-725.894	69.256	0.336	-0.349
-724.879	-24.349	0.360	0.217
-723.864	-92.644	0.703	-0.199
-722.850	114.609	-0.706	-0.869
-721.835	-200.000	0.098	-0.646
-720.821	-11.376	0.385	-0.256
-719.806	163.564	-0.418	-0.594
-718.791	-200.000	0.071	-0.659
-717.777	-78.509	-0.262	-0.091
-716.762	69.858	-0.128	0.133
-715.748	4.366	-0.894	0.662
-714.733	28.621	-0.198	0.170
-713.718	144.097	-0.282	0.381
-712.704	-200.000	-0.641	-0.002
-711.689	-200.000	0.048	-0.338
-710.675	50.698	0.242	0.231
-709.660	-154.350	-0.488	0.033
-708.645	529.174	-0.243	0.579
-707.631	7.100	0.172	-0.129
-706.616	-101.865	-0.470	0.115
-705.602	-168.317	-0.344	-0.013
-704.587	13.875	0.817	-0.641
-703.572	175.019	-0.295	-0.432
-702.558	74.825	-0.087	0.092
-701.543	18.075	0.144	0.116
-700.529	-18.846	-0.791	0.498
-699.514	335.387	0.301	0.589
-698.499	-200.000	-0.036	-0.557
-697.485	216.010	-0.233	-0.374
-696.470	159.883	-0.100	0.141
-695.456	-127.927	-0.532	-0.077
-694.441	800.000	0.021	-0.070
-693.426	155.172	0.913	1.267
-692.412	-74.057	-0.536	-0.196
-691.397	399.828	-0.150	0.317
-690.383	-8.982	0.626	0.423
-689.368	800.000	-0.173	0.497
-688.354	313.860	0.263	0.500
-687.339	46.396	0.173	-0.162
-686.324	-24.303	0.532	-0.320
-685.310	336.187	-0.179	-0.351
-684.295	-51.878	0.805	0.378
-683.281	16.009	-0.208	0.166
-682.266	102.352	-0.346	-0.408
-681.251	10.011	0.061	0.046
-680.237	4.121	-0.364	0.269
-679.222	-87.993	0.351	-0.106
-678.208	800.000	0.041	-0.167
-677.193	34.078	-0.531	0.467
-676.178	-156.469	0.800	-0.050
-675.164	-110.221	0.581	-0.122
-674.149	-200.000	-0.049	0.320
-673.135	-165.925	-0.520	-0.022
-672.120	-105.237	0.510	0.117
-671.105	175.548	-0.102	0.150
-670.091	102.773	0.089	-0.105
-669.076	150.441	-0.259	-0.355
-668.062	-200.000	0.075	0.607
-667.047	-17.600	0.576	-0.365
-666.032	182.366	0.099	-0.147
-665.018	-200.000	-0.084	0.556
-664.003	5.347	-0.259	-0.193
-662.989	87.546	0.207	-0.231
-661.974	-158.686	0.627	-0.036
-660.959	-98.098	-0.532	0.138
-659.945	-200.000	0.079	-0.360
-658.930	49.918	-0.226	-0.215
-657.916	-200.000	0.152	0.760
-656.901	141.471	-0.297	-0.396
-655.886	21.608	-0.576	-0.472
-654.872	52.417	0.532	-0.512
-653.857	68.177	0.642	0.663
-652.843	67.005	-0.947	-0.972
-651.828	217.559	0.223	0.357
-650.814	214.689	0.210	0.336
-649.799	8.526	0.591	0.448
-648.784	173.507	0.381	0.553
-647.770	-116.897	-0.360	0.066
-646.755	-5.402	0.379	-0.262
-645.741	-200.000	0.164	-0.760
-644.726	-56.499	-1.245	0.557
-643.711	-162.706	-0.390	-0.019
-642.697	149.749	0.230	0.313
-641.682	580.915	0.310	-0.766
-640.668	67.076	0.492	-0.505
-639.653	91.295	-0.493	-0.558
-638.638	-143.165	-1.175	-0.114
-637.624	562.498	0.148	-0.361
-636.609	-200.000	0.196	0.924
-635.595	800.000	0.102	0.397
-634.580	800.000	-0.196	-0.710
-633.565	34.569	-0.688	-0.606
-632.551	72.873	0.153	0.160
-631.536	-90.502	0.699	-0.204
-630.522	-104.900	0.075	0.017
-629.507	-200.000	0.151	0.921
-628.492	171.311	0.025	0.037
-627.478	183.820	-0.548	0.816
-626.463	8.785	0.425	0.322
-625.449	318.940	-0.212	0.404
-624.434	-33.876	0.788	-0.437
-623.419	-165.551	0.722	0.032
-622.405	4.510	0.516	0.381
-621.390	28.549	-0.320	-0.272
-620.376	800.000	-0.254	0.864
-619.361	200.139	0.498	0.770
-618.346	351.446	-0.054	-0.107
-617.332	-200.000	0.022	-0.356
-616.317	-1.385	-0.376	-0.267
-615.303	-100.690	1.007	-0.250
-614.288	-189.500	-0.414	0.005
-613.273	363.767	-0.195	0.394
-612.259	-52.110	0.994	0.464
-611.244	103.625	-0.155	-0.183
-610.230	518.870	-0.276	0.649
-609.215	37.966	0.418	0.374
-608.201	-117.333	-0.102	0.019
-607.186	800.000	-0.119	0.364
-606.171	-173.407	-0.525	-0.016
-605.157	-151.689	-0.368	0.027
-604.142	-155.588	0.334	0.022
-603.128	800.000	-0.114	0.351
-602.113	-188.862	0.789	0.010
-601.098	-200.000	0.042	-0.621
-600.084	800.000	0.110	-0.325
-599.069	383.577	-0.198	0.411
-598.055	-43.929	-0.900	0.455
-597.040	800.000	0.086	-0.374
-596.025	-27.140	-1.119	0.656
-595.011	-43.434	0.370	0.188
-593.996	-12.916	0.648	-0.424
-592.982	193.246	0.102	-0.155
-591.967	143.347	-0.232	0.310
-590.952	442.573	-0.307	0.675
-589.938	585.540	0.276	-0.682
-588.923	210.910	0.327	-0.517
-587.909	86.747	-0.441	0.489
-586.894	76.366	-0.405	0.431
-585.879	122.799	-0.338	-0.425
-584.865	10.433	-0.221	0.169
-583.850	-200.000	0.099	-0.544
-582.836	39.457	-0.343	-0.309
-581.821	-21.742	0.608	-0.372
-580.806	5.609	-0.451	-0.335
-579.792	-82.947	0.820	-0.266
-578.777	248.598	-0.374	-0.636
-577.763	-200.000	0.085	0.958
-576.748	-200.000	-0.071	-0.698
-575.733	298.407	0.239	-0.442
-574.719	-200.000	0.049	-0.888
-573.704	-26.840	-0.448	0.263
-572.690	635.482	-0.348	0.888
-571.675	-200.000	0.088	-0.982
-570.661	-158.561	-0.297	0.017
-569.646	-61.120	0.525	0.223
-568.631	305.611	-0.374	-0.699
-567.617	100.183	-0.459	-0.535
-566.602	622.767	-0.322	0.814
-565.588	75.866	-0.352	-0.374
-564.573	-200.000	0.536	0.001
-563.558	747.189	-0.170	-0.459
-562.544	576.586	-0.131	0.322
-561.529	-67.048	0.176	0.070
-560.515	-52.053	0.502	0.234
-559.500	-3.726	-1.070	0.746
-558.485	-162.852	-0.621	-0.030
-557.471	-64.846	-0.236	-0.096
-556.456	-91.300	0.635	0.182
-555.442	674.769	0.247	-0.644
-554.427	135.268	-0.343	-0.448
-553.412	-200.000	-0.066	-0.329
-552.398	219.645	0.238	-0.383
-551.383	-76.503	-0.583	0.206
-550.369	-154.956	-0.650	0.043
-549.354	131.855	-0.071	0.091
-548.339	-93.457	-0.351	-0.098
-547.325	-200.000	0.040	0.445
-546.310	-200.000	-0.069	-0.452
-545.296	-134.520	-0.542	0.067
-544.281	203.636	0.512	0.796
-543.266	-200.000	0.070	-0.562
-542.252	192.218	0.134	-0.203
-541.237	-177.970	-0.127	0.003
-540.223	-200.000	0.059	-0.677
-539.208	-111.634	0.651	0.133
-538.193	441.821	0.048	-0.106
-537.179	-200.000	-0.720	-0.004
-536.164	23.864	0.302	0.250
-535.150	68.043	-0.526	0.540
-534.135	-5.952	-0.454	-0.312
-533.121	-200.000	-0.122	-0.737
-532.106	-58.340	-0.499	-0.218
-531.091	-22.090	-0.429	-0.261
-530.077	330.182	-0.224	-0.432
-529.062	-193.727	0.879	-0.007
-528.048	547.544	-0.213	-0.511
-527.033	207.435	0.646	1.010
-526.018	-90.637	1.070	0.310
-525.004	-8.248	-0.336	0.227
-523.989	-59.125	-0.817	0.353
-522.975	800.000	0.162	-0.685
-521.960	21.344	-0.671	0.547
-520.945	-200.000	0.011	0.489
-519.931	-200.000	0.032	-0.212
-518.916	-9.973	-0.102	-0.068
-517.902	54.460	0.341	-0.329
-516.887	-157.400	0.425	0.026
-515.872	-95.576	-0.349	0.094
-514.858	-32.343	-0.803	-0.449
-513.843	-42.714	-0.723	0.369
-512.829	77.404	-0.253	0.270
-511.814	78.339	0.135	0.144
-510.799	202.358	-0.351	-0.543
-509.785	-106.364	0.274	0.061
-508.770	800.000	-0.009	0.031
-507.756	619.224	0.132	0.332
-506.741	-32.749	0.488	0.272
-505.726	215.704	-0.517	0.822
-504.712	-72.544	-1.310	-0.485
-503.697	26.631	0.457	-0.383
-502.683	439.126	-0.592	-1.295
-501.668	732.069	-0.186	0.498
-500.653	45.824	-0.089	-0.082
-499.639	-200.000	0.203	1.183
-498.624	-182.842	0.427	-0.008
-497.610	264.379	0.401	0.699
-496.595	231.386	-0.098	0.160
-495.581	-86.296	-0.804	0.248
-494.566	-72.476	-0.342	-0.127
-493.551	-39.609	0.794	-0.416
-492.537	-196.551	0.701	0.005
-491.522	-200.000	-0.032	-0.833
-490.508	634.276	-0.232	-0.590
-489.493	-90.740	0.469	-0.136
-488.478	492.068	0.109	0.251
-487.464	-90.381	-0.582	0.169
-486.449	1.310	0.506	0.364
-485.435	249.823	0.291	0.494
-484.420	-96.899	0.624	0.164
-483.405	-72.479	0.275	-0.102
-482.391	83.280	-0.419	0.457
-481.376	-142.189	0.808	0.080
-480.362	-62.660	0.175	-0.073
-479.347	-136.966	0.602	-0.069
-478.332	-152.878	0.154	-0.011
-477.318	125.461	-0.596	-0.753
-476.303	79.377	0.454	0.488
-475.289	-200.000	-0.060	-0.462
-474.274	-72.686	0.271	0.100
-473.259	800.000	0.292	-1.016
-472.245	47.257	0.368	-0.343
-471.230	18.608	0.640	-0.512
-470.216	661.167	-0.223	-0.575
-469.201	55.064	0.235	-0.227
-468.186	15.506	0.631	-0.496
-467.172	-68.436	0.246	-0.096
-466.157	151.661	0.273	0.372
-465.143	-200.000	-0.076	-0.377
-464.128	3.166	-0.274	-0.200
-463.113	-56.633	0.276	0.122
-462.099	-112.794	-0.260	0.052
-461.084	22.507	0.287	-0.235
-460.070	-74.631	-0.084	0.030
-459.055	-124.535	1.064	0.165
-458.040	87.240	0.571	-0.632
-457.026	-53.385	0.096	0.044
-456.011	-87.881	-0.310	-0.093
-454.997	-195.152	-0.410	0.003
-453.982	82.819	0.565	0.614
-452.968	-11.401	-0.766	-0.504
-451.953	-70.417	0.505	-0.191
-450.938	-200.000	-0.055	0.483
-449.924	-71.511	0.683	0.256
-448.909	-200.000	0.189	1.088
-447.895	15.822	-0.207	0.163
-446.880	-200.000	-0.013	-0.121
-445.865	-132.855	-0.582	0.074
-444.851	-200.000	0.062	-0.399
-443.836	-200.000	0.006	0.765
-442.822	102.404	0.416	-0.486
-441.807	-200.000	-0.020	-0.459
-440.792	275.864	-0.446	-0.791
-439.778	800.000	0.132	-0.404
-438.763	29.078	0.406	0.344
-437.749	-82.601	-0.543	0.176
-436.734	-66.776	0.073	-0.029
-435.719	558.971	-0.279	-0.673
-434.705	-115.631	-0.201	-0.038
-433.690	800.000	0.140	0.526
-432.676	112.540	-0.673	0.814
-431.661	-200.000	0.095	-0.711
-430.646	218.234	-0.547	-0.872
-429.632	800.000	-0.320	-0.914
-428.617	-109.481	-0.380	-0.080
-427.603	728.610	-0.093	0.247
-426.588	-40.401	-0.543	0.282
-425.573	-200.000	0.011	0.085
-424.559	-123.582	-0.609	0.097
-423.544	-200.000	0.098	0.827
-422.530	133.151	-0.503	0.649
-421.515	215.104	0.333	-0.527
-420.500	-59.708	0.275	-0.118
-419.486	-141.216	0.858	0.087
-418.471	-111.660	-0.661	0.134
-417.457	-8.213	-0.147	0.099
-416.442	-19.439	-0.330	-0.204
-415.428	-68.883	-0.202	0.078
-414.413	-200.000	0.031	0.498
-413.398	514.737	0.253	-0.589
-412.384	192.288	0.442	-0.666
-411.369	-90.590	0.163	-0.047
-410.355	519.434	-0.082	-0.191
-409.340	349.250	-0.280	0.551
-408.325	267.386	0.089	-0.156
-407.311	-146.813	-0.479	-0.041
-406.296	-84.190	0.419	-0.133
-405.282	800.000	0.322	-1.318
-404.267	-200.000	0.095	0.553
-403.252	-87.988	-0.533	0.160
-402.238	491.629	-0.101	0.231
-401.223	-200.000	0.003	0.503
-400.209	-38.544	-0.741	-0.391
-399.194	126.591	0.286	-0.361
-398.179	-27.469	0.282	0.163
-397.165	276.270	-0.226	-0.400
-396.150	-123.442	0.932	-0.148
-395.136	-77.953	-0.730	0.251
-394.121	-29.625	-0.768	0.438
-393.106	-200.000	0.044	0.658
-392.092	32.398	0.293	-0.253
-391.077	-103.229	-0.379	0.089
-390.063	-120.059	-0.657	-0.112
-389.048	54.830	-0.746	0.718
-388.033	139.877	-0.298	-0.391
-387.019	-67.374	-0.118	-0.046
-386.004	-77.468	-0.424	-0.147
-384.990	-46.486	0.776	0.380
-383.975	21.356	0.664	0.538
-382.960	16.717	0.456	-0.360
-381.946	314.664	-0.405	0.761
-380.931	-27.183	-0.354	0.206
-379.917	-18.907	0.672	-0.417
-378.902	-22.323	-0.519	0.314
-377.888	-22.138	-0.057	0.035
-376.873	240.384	-0.058	0.097
-375.858	-95.087	0.557	-0.150
-374.844	395.108	-0.181	-0.376
-373.829	800.000	0.096	0.307
-372.815	-200.000	-0.056	-0.384
-371.800	-63.714	0.650	-0.266
-370.785	-147.483	-0.556	0.047
-369.771	-200.000	0.029	0.617
-368.756	-200.000	0.016	0.442
-367.742	-52.792	-0.461	0.212
-366.727	350.010	0.347	-0.684
-365.712	495.435	-0.401	-0.919
-364.698	-200.000	0.021	-0.839
-363.683	34.344	-0.255	0.222
-362.669	294.730	-0.189	-0.344
-361.654	-200.000	0.094	-0.567
-360.639	-112.749	-0.388	0.077
-359.625	410.460	-0.264	0.557
-358.610	-200.000	0.101	1.159
-357.596	-200.000	-0.075	-1.616
-356.581	-39.354	0.503	-0.263
-355.566	-89.646	0.527	-0.154
-354.552	800.000	-0.212	-0.745
-353.537	184.187	0.204	0.301
-352.523	800.000	0.386	-1.263
-351.508	400.246	-0.331	-0.692
-350.493	-200.000	-0.014	-0.760
-349.479	52.626	-0.648	-0.617
-348.464	47.965	-0.273	-0.254
-347.450	-200.000	-0.223	0.001
-346.435	45.712	0.513	-0.472
-345.420	-200.000	-0.014	-0.099
-344.406	-23.457	0.507	0.303
-343.391	22.021	0.449	0.365
-342.377	340.177	-0.152	0.295
-341.362	-89.829	-0.296	-0.086
-340.348	324.471	0.226	0.429
-339.333	-174.282	-0.282	0.008
-338.318	179.364	-0.216	-0.314
-337.304	800.000	0.092	0.301
-336.289	31.502	-0.440	-0.376
-335.275	-181.514	0.596	-0.012
-334.260	-200.000	0.006	0.759
-333.245	131.125	0.303	-0.387
-332.231	800.000	0.154	-0.471
-331.216	-200.000	0.189	-0.982
-330.202	-118.101	0.567	0.101
-329.187	-50.039	0.631	0.298
-328.172	800.000	0.125	0.374
-327.158	-200.000	0.081	0.389
-326.143	800.000	-0.218	0.879
-325.129	172.413	-0.458	0.656
-324.114	800.000	0.217	0.622
-323.099	333.235	0.046	0.089
-322.085	-200.000	0.024	0.400
-321.070	262.812	-0.125	0.217
-320.056	-7.380	0.522	0.351
-319.041	-107.907	-1.251	0.271
-318.026	-107.138	0.491	-0.108
-317.012	638.112	-0.321	-0.812
-315.997	141.213	0.411	0.541
-314.983	-137.914	-0.214	-0.024
-313.968	218.203	0.795	1.262
-312.953	-19.650	0.165	-0.101
-311.939	2.748	0.163	-0.118
-310.924	25.980	-0.588	-0.488
-309.910	-44.109	0.315	-0.157
-308.895	800.000	0.209	0.578
-307.880	800.000	0.077	0.255
-306.866	2.137	0.680	0.489
-305.851	-60.446	-0.731	0.309
-304.837	484.443	-0.104	-0.236
-303.822	231.010	-0.337	-0.548
-302.807	97.866	0.201	-0.230
-301.793	-119.587	0.741	-0.128
-300.778	-70.785	0.224	0.084
-299.764	-200.000	-0.186	1.188
-298.749	-42.661	1.075	0.544
-297.735	78.826	0.735	-0.782
-296.720	60.493	0.279	0.274
-295.705	-74.454	0.218	-0.078
-294.691	-42.641	-0.397	0.201
-293.676	-144.857	-0.343	0.031
-292.662	-131.436	-0.302	-0.040
-291.647	-35.690	-0.786	-0.423
-290.632	366.945	-0.243	-0.487
-289.618	191.940	-0.323	-0.484
-288.603	-200.000	0.022	-0.197
-287.589	14.737	-0.640	-0.497
-286.574	-112.031	0.526	-0.105
-285.559	94.497	0.327	-0.369
-284.545	-131.648	-0.644	-0.084
-283.530	-131.740	0.776	-0.101
-282.516	2.150	-0.474	0.340
-281.501	-200.000	0.025	-0.548
-280.486	-129.060	-0.387	0.054
-279.472	108.197	0.585	0.693
-278.457	65.428	-0.145	-0.146
-277.443	-200.000	0.007	0.639
-276.428	31.155	0.255	-0.217
-275.413	403.817	0.056	0.118
-274.399	106.849	0.499	0.588
-273.384	-126.718	0.272	0.040
-272.370	65.695	0.067	0.067
-271.355	-200.000	-0.074	0.878
-270.340	14.258	0.887	-0.687
-269.326	2.100	-0.384	0.276
-268.311	-200.000	-0.063	0.402
-267.297	-113.524	-0.115	-0.022
-266.282	-200.000	0.039	-0.383
-265.267	-200.000	0.125	0.845
-264.253	-25.805	0.456	0.267
-263.238	-164.835	1.274	0.057
-262.224	-200.000	-0.049	-0.452
-261.209	-200.000	-0.117	1.088
-260.195	-200.000	0.079	-0.494
-259.180	-200.000	-0.070	0.327
-258.165	-31.885	-0.733	0.407
-257.151	363.299	-0.201	0.401
-256.136	25.793	-0.245	0.203
-255.122	27.319	-0.342	-0.285
-254.107	-132.979	1.346	0.170
-253.092	-200.000	-0.026	0.217
-252.078	-126.676	-0.682	0.100
-251.063	310.303	0.088	0.164
-250.049	-96.298	-0.015	0.004
-249.034	144.541	-0.705	-0.935
-248.019	-145.241	0.772	0.069
-247.005	-87.894	-0.436	-0.130
-245.990	-200.000	-0.093	-0.460
-244.976	203.277	-0.255	-0.392
-243.961	124.157	0.372	-0.463
-242.946	800.000	0.319	1.243
-241.932	-200.000	0.006	0.240
-240.917	187.740	0.067	-0.099
-239.903	-39.033	-0.402	0.210
-238.888	72.968	-0.602	-0.624
-237.873	-35.831	1.035	-0.556
-236.859	498.530	-0.431	-0.983
-235.844	239.627	0.210	0.346
-234.830	240.661	-0.311	0.515
-233.815	40.814	0.294	0.263
-232.800	-101.896	-0.431	-0.103
-231.786	-10.359	-0.601	-0.395
-230.771	-8.571	0.249	0.166
-229.757	-95.061	-0.227	0.061
-228.742	-119.627	0.481	0.082
-227.727	-105.340	-0.948	-0.214
-226.713	134.171	0.092	-0.118
-225.698	224.079	-0.127	-0.203
-224.684	-200.000	0.037	-0.428
-223.669	-200.000	-0.050	-0.296
-222.655	-71.898	-0.623	-0.230
-221.640	800.000	-0.255	-0.761
-220.625	45.406	0.177	-0.162
-219.611	-86.496	-0.465	0.141
-218.596	9.673	0.602	0.452
-217.582	-200.000	-0.017	-0.220
-216.567	-87.543	-0.404	0.121
-215.552	-64.284	-0.457	-0.185
-214.538	-200.000	-0.122	-0.728
-213.523	-92.375	-0.625	0.174
-212.509	-80.021	0.815	0.271
-211.494	-56.898	0.466	0.204
-210.479	5.722	-0.191	-0.140
-209.465	-71.717	0.329	0.122
-208.450	167.521	-0.199	0.280
-207.436	-136.727	0.667	0.076
-206.421	800.000	0.224	0.740
-205.406	59.350	-0.694	0.677
-204.392	-137.512	-0.129	-0.014
-203.377	800.000	0.117	-0.363
-202.363	-91.254	-1.035	0.293
-201.348	-180.820	0.603	-0.012
-200.333	103.402	0.204	-0.237
-199.319	-166.913	-0.163	-0.007
-198.304	402.762	0.576	1.199
-197.290	-137.665	-0.773	0.086
-196.275	800.000	0.112	0.368
-195.260	-86.708	-0.537	0.163
-194.246	-21.365	0.457	0.276
-193.231	-47.694	0.678	0.325
-192.217	246.868	0.209	-0.349
-191.202	-0.645	-0.367	0.257
-190.187	0.571	0.888	-0.628
-189.173	-200.000	-0.021	0.564
-188.158	204.201	-0.653	-1.001
-187.144	43.791	0.854	-0.774
-186.129	-10.439	0.818	0.536
-185.114	-162.221	0.191	-0.009
-184.100	-200.000	-0.032	-0.974
-183.085	-91.646	0.364	0.102
-182.071	-63.354	-0.769	-0.313
-181.056	-16.401	-0.431	0.270
-180.042	405.298	-0.292	-0.608
-179.027	-113.242	0.909	-0.177
-178.012	-33.192	-0.369	0.202
-176.998	369.259	0.676	1.353
-175.983	-125.373	0.940	-0.142
-174.969	-93.963	0.192	0.052
-173.954	574.055	-0.259	0.624
-172.939	453.666	0.171	0.374
-171.925	12.273	-0.280	-0.213
-170.910	-200.000	0.019	0.282
-169.896	127.575	0.154	-0.194
-168.881	-27.696	-0.383	0.220
-167.866	206.034	-0.348	-0.535
-166.852	77.636	0.343	0.362
-165.837	-113.987	-0.527	0.101
-164.823	-37.207	0.436	0.231
-163.808	-200.000	-0.013	-0.710
-162.793	-200.000	-0.025	0.254
-161.779	-83.056	0.830	-0.264
-160.764	-106.077	-0.762	0.169
-159.750	-51.452	-0.427	0.197
-158.735	-200.000	0.101	0.714
-157.720	-200.000	0.123	1.283
-156.706	214.776	0.389	0.609
-155.691	-195.857	-0.464	0.003
-154.677	-44.569	0.881	0.435
-153.662	-5.379	0.385	0.261
-152.647	8.575	-0.739	-0.550
-151.633	208.440	-0.191	-0.296
-150.618	-112.023	0.329	0.065
-149.604	-200.000	0.010	-0.356
-148.589	800.000	-0.239	-0.854
-147.574	721.524	-0.241	-0.634
-146.560	-20.275	0.577	-0.351
-145.545	-200.000	0.013	0.243
-144.531	-200.000	0.034	0.610
-143.516	-84.730	0.596	-0.185
-142.502	61.771	-0.404	-0.397
-141.487	727.323	-0.147	0.388
-140.472	506.085	0.269	0.615
-139.458	-59.766	-0.640	-0.271
-138.443	51.217	0.672	0.630
-137.429	-19.972	-0.823	-0.502
-136.414	-61.707	-0.212	0.088
-135.399	272.868	0.303	-0.528
-134.385	-117.972	0.151	0.027
-133.370	-200.000	-0.050	-0.466
-132.356	166.784	0.118	0.165
-131.341	-176.246	0.586	0.015
-130.326	-126.153	-1.006	0.149
-129.312	-147.007	-0.215	-0.018
-128.297	-28.920	-0.627	0.356
-127.283	71.931	0.500	-0.514
-126.268	153.676	-0.207	0.279
-125.253	67.206	0.906	-0.912
-124.239	100.408	0.315	-0.361
-123.224	-143.251	-0.010	-0.001
-122.210	81.810	-0.225	-0.241
-121.195	-85.489	0.194	0.060
-120.180	-200.000	-0.208	-1.044
-119.166	-200.000	-0.043	-0.522
-118.151	-5.577	-0.606	0.410
-117.137	85.934	-0.174	-0.189
-116.122	-94.631	-1.032	-0.277
-115.107	397.765	0.130	-0.268
-114.093	-112.401	0.674	0.133
-113.078	-200.000	0.102	0.872
-112.064	-61.740	-0.303	-0.125
-111.049	-18.572	-0.534	-0.329
-110.034	182.017	0.717	-1.041
-109.020	-145.875	0.449	-0.039
-108.005	217.450	-0.285	-0.448
-106.991	-200.000	-0.069	0.357
-105.976	800.000	-0.070	-0.252
-104.962	279.594	0.226	0.398
-103.947	-56.323	-0.434	-0.190
-102.932	43.464	0.179	0.162
-101.918	201.849	-0.405	0.616
-100.903	50.441	0.222	-0.207
-99.889	-200.000	0.007	0.192
-98.874	125.292	0.347	0.431
-97.859	771.079	-0.064	0.173
-96.845	-33.701	0.329	0.179
-95.830	-84.445	0.549	-0.171
-94.816	66.799	-0.184	0.185
-93.801	-5.797	0.264	0.179
-92.786	49.590	-0.134	-0.124
-91.772	-200.000	0.062	0.393
-90.757	-105.031	-0.546	-0.123
-89.743	800.000	0.100	-0.327
-88.728	95.387	0.314	0.353
-87.713	-25.297	-0.391	-0.228
-86.699	367.493	-0.200	-0.398
-85.684	-84.505	0.115	0.036
-84.670	692.542	-0.202	0.521
-83.655	800.000	0.289	-0.915
-82.640	481.083	-0.451	-1.008
-81.626	23.696	-0.221	-0.179
-80.611	213.442	-0.344	0.536
-79.597	67.586	0.595	0.599
-78.582	-25.148	-0.924	-0.539
-77.567	-78.021	-0.862	0.293
-76.553	-144.618	-0.375	0.034
-75.538	-90.641	0.245	-0.070
-74.524	-139.509	-0.461	0.049
-73.509	-200.000	-0.019	0.105
-72.494	-182.125	0.554	-0.010
-71.480	-200.000	-0.106	-0.694
-70.465	-200.000	-0.179	0.848
-69.451	-58.496	1.022	-0.437
-68.436	169.635	-0.155	-0.218
-67.422	-78.672	0.780	-0.262
-66.407	269.351	-0.103	-0.178
-65.392	800.000	0.147	-0.568
-64.378	-134.015	0.365	-0.045
-63.363	149.843	-0.136	-0.181
-62.349	800.000	0.216	-0.620
-61.334	207.403	-0.448	-0.689
-60.319	800.000	-0.104	0.418
-59.305	44.215	0.446	-0.403
-58.290	161.749	0.988	1.362
-57.276	662.974	0.642	1.630
-56.261	-200.000	95.748	581.895
-55.246	657.991	1361.856	3447.924
-54.232	203.148	2521.941	3838.203
-53.217	118.547	2124.040	2581.148
-52.203	44.659	1593.376	1442.241
-51.188	36.407	1334.722	1158.825
-50.173	33.136	1293.345	1103.797
-49.159	57.041	1342.466	1288.251
-48.144	57.564	1359.261	1307.420
-47.130	36.899	1316.926	1146.102
-46.115	33.134	1300.169	1109.433
-45.100	32.699	1295.068	1102.492
-44.086	32.808	1293.028	1101.349
-43.071	32.681	1291.394	1099.173
-42.057	32.816	1288.182	1097.181
-41.042	32.775	1287.822	1096.593
-40.027	33.008	1284.253	1094.858
-39.013	32.618	1284.008	1092.349
-37.998	33.097	1280.925	1092.450
-36.984	33.031	1279.584	1090.883
-35.969	32.879	1278.282	1088.853
-34.954	32.712	1277.213	1086.937
-33.940	32.752	1276.506	1086.519
-32.925	32.841	1274.194	1085.022
-31.911	32.791	1272.298	1083.075
-30.896	32.955	1270.500	1082.444
-29.881	33.245	1269.007	1082.790
-28.867	33.142	1267.665	1081.012
-27.852	33.117	1265.757	1079.200
-26.838	33.189	1264.800	1078.754
-25.823	33.289	1263.530	1078.193
-24.809	32.917	1262.405	1075.072
-23.794	32.923	1261.253	1074.083
-22.779	32.994	1260.393	1073.713
-21.765	33.083	1259.476	1073.394
-20.750	32.952	1257.535	1070.954
-19.736	32.621	1257.114	1068.678
-18.721	32.809	1255.433	1068.272
-17.706	33.042	1253.861	1068.206
-16.692	32.836	1252.945	1066.224
-15.677	32.732	1251.816	1064.634
-14.663	33.098	1250.212	1065.288
-13.648	32.660	1250.500	1063.022
-12.633	32.743	1248.827	1062.026
-11.619	32.716	1247.699	1060.869
-10.604	32.689	1247.547	1060.546
-9.590	32.916	1246.117	1060.564
-8.575	32.725	1245.575	1058.990
-7.560	32.805	1244.584	1058.554
-6.546	32.565	1243.523	1056.262
-5.531	32.502	1243.140	1055.545
-4.517	32.755	1241.562	1055.578
-3.502	32.983	1240.857	1056.212
-2.487	32.914	1239.779	1054.866
-1.473	32.636	1236.104	1050.149
-0.458	31.098	1221.166	1028.940
0.556	28.405	1203.391	990.422
1.571	24.594	1209.168	974.349
2.586	23.697	1222.891	980.374
3.600	23.171	1211.914	968.609
4.615	17.084	1140.452	879.957
5.629	7.448	1064.872	774.719
6.644	3.314	1044.850	740.249
7.659	2.997	1042.842	737.239
8.673	2.944	1040.137	735.011
9.688	2.787	1039.841	733.983
10.702	3.299	1037.998	735.065
11.717	9.197	1046.397	769.257
12.731	18.817	1058.841	824.734
13.746	23.896	1066.060	854.769
14.761	24.669	1066.347	858.635
15.775	24.333	1065.594	856.343
16.790	24.042	1064.432	853.934
17.804	24.005	1063.848	853.215
18.819	24.057	1063.840	853.384
19.834	23.985	1063.518	852.703
20.848	24.161	1062.419	852.587
21.863	24.223	1062.699	853.036
22.877	24.131	1060.521	850.771
23.892	24.104	1060.831	850.818
24.907	23.957	1059.671	849.110
25.921	23.965	1058.402	848.055
26.936	23.964	1057.974	847.630
27.950	23.629	1056.410	844.711
28.965	23.812	1054.473	843.958
29.980	24.046	1052.758	843.617
30.994	24.023	1051.497	842.424
32.009	23.700	1052.094	841.297
33.023	24.301	1049.440	841.939
34.038	23.971	1049.174	840.096
35.053	23.601	1049.367	838.424
36.067	23.959	1047.329	838.411
37.082	23.754	1047.025	837.129
38.096	24.079	1046.205	837.928
39.111	24.167	1044.763	837.113
40.126	23.756	1044.493	834.892
41.140	23.678	1042.900	833.179
42.155	23.458	1041.712	831.125
43.169	23.606	1040.887	831.088
44.184	23.447	1039.480	829.147
45.199	23.600	1038.767	829.217
46.213	23.724	1038.292	829.345
47.228	24.056	1036.904	829.710
48.242	23.945	1036.586	828.866
49.257	24.258	1035.991	829.773
50.271	24.213	1034.774	828.517
51.286	24.255	1034.813	828.669
52.301	24.392	1032.909	827.707
53.315	23.817	1033.982	825.824
54.330	23.739	1032.715	824.374
55.344	24.060	1030.286	823.847
56.359	23.949	1030.741	823.627
57.374	23.716	1029.312	821.335
58.388	23.760	1028.409	820.745
59.403	23.846	1027.933	820.689
60.417	23.561	1027.999	819.352
61.432	23.788	1026.697	819.290
62.447	23.366	1026.788	817.342
63.461	23.639	1024.941	817.057
64.476	23.631	1024.132	816.301
65.490	23.469	1023.276	814.802
66.505	23.819	1022.781	815.946
67.520	23.802	1022.449	815.530
68.534	23.680	1020.402	813.269
69.549	23.450	1020.496	812.214
70.563	23.334	1018.657	810.151
71.578	22.842	1018.574	807.764
72.593	22.713	1017.462	806.219
73.607	22.940	1016.918	806.754
74.622	23.199	1016.505	807.537
75.636	23.044	1016.522	806.772
76.651	23.394	1014.466	806.664
77.666	23.344	1013.877	805.893
78.680	23.360	1012.811	805.049
79.695	23.433	1012.931	805.402
80.709	23.717	1012.322	806.140
81.724	23.383	1011.731	804.083
82.739	23.877	1010.676	805.410
83.753	24.234	1010.964	807.187
84.768	24.812	1009.689	808.709
85.782	24.621	1008.624	806.922
86.797	24.630	1007.127	805.695
87.812	24.235	1007.834	804.407
88.826	24.040	1007.890	803.497
89.841	24.268	1006.082	803.015
90.855	24.488	1006.155	803.992
91.870	24.278	1004.228	801.436
92.884	24.406	1001.819	800.019
93.899	24.491	1001.109	799.761
94.914	24.396	1001.972	799.952
95.928	24.249	1000.808	798.295
96.943	23.701	1000.826	795.785
97.957	24.111	997.722	795.078
98.972	24.124	997.453	794.851
99.987	24.243	996.519	794.564
101.001	24.092	995.429	792.955
102.016	24.100	995.507	792.983
103.030	24.209	993.763	792.006
104.045	24.232	993.073	791.487
105.060	24.047	991.812	789.594
106.074	24.090	991.964	789.834
107.089	23.881	991.422	788.405
108.103	23.996	989.255	787.125
109.118	23.773	988.029	785.092
110.133	23.226	989.073	783.434
111.147	23.283	986.538	781.608
112.162	22.984	986.828	780.446
113.176	23.603	984.923	781.600
114.191	23.694	984.210	781.364
115.206	23.602	983.929	780.669
116.220	23.342	981.810	777.778
117.235	23.258	981.313	776.944
118.249	23.569	979.656	776.927
119.264	23.437	979.094	775.832
120.279	23.200	979.417	774.984
121.293	23.345	977.424	773.973
122.308	22.926	978.028	772.548
123.322	23.297	975.636	772.209
124.337	22.703	975.882	769.746
125.352	23.140	974.328	770.353
126.366	23.073	973.779	769.562
127.381	23.763	973.435	772.219
128.395	24.201	971.311	772.365
129.410	23.886	971.108	770.771
130.424	24.055	970.051	770.594
131.439	23.990	969.788	770.038
132.454	24.197	968.567	769.897
133.468	24.037	968.125	768.786
134.483	23.992	967.749	768.221
135.497	23.818	967.315	767.058
136.512	23.903	966.538	766.741
137.527	24.195	964.207	766.080
138.541	24.159	963.918	765.627
139.556	24.107	963.693	765.157
140.570	24.044	963.582	764.734
141.585	24.466	961.828	765.083
142.600	24.348	961.842	764.519
143.614	24.175	961.658	763.563
144.629	24.582	959.869	763.819
145.643	24.131	959.489	761.521
146.658	24.212	956.395	759.343
147.673	24.000	956.486	758.441
148.687	23.998	955.610	757.671
149.702	23.707	954.400	755.411
150.716	23.857	953.077	754.932
151.731	24.146	952.956	755.996
152.746	24.452	951.177	755.814
153.760	24.107	951.426	754.482
154.775	24.256	951.418	755.042
155.789	24.527	949.485	754.587
156.804	24.363	949.543	753.872
157.819	24.268	948.755	752.779
158.833	24.550	947.518	752.921
159.848	24.727	946.440	752.743
160.862	24.242	947.028	751.099
161.877	24.166	944.829	748.969
162.892	24.115	944.363	748.318
163.906	23.782	943.984	746.552
164.921	24.080	942.130	746.270
165.935	24.101	941.397	745.712
166.950	24.057	940.133	744.460
167.964	24.237	939.574	744.705
168.979	24.226	938.197	743.502
169.994	24.131	937.374	742.387
171.008	24.469	937.478	743.815
172.023	24.171	936.580	741.794
173.037	24.326	936.296	742.151
174.052	24.168	935.365	740.689
175.067	23.963	934.762	739.296
176.081	23.799	933.171	737.288
177.096	23.778	931.792	736.049
178.110	23.822	931.851	736.211
179.125	23.518	931.740	734.800
180.140	23.730	930.853	734.910
181.154	23.834	930.185	734.750
182.169	24.349	930.872	737.355
183.183	24.310	930.706	736.999
184.198	24.298	928.965	735.505
185.213	24.303	928.059	734.743
186.227	24.117	927.957	733.832
187.242	24.591	927.797	735.591
188.256	24.500	926.458	734.090
189.271	24.309	925.819	732.736
190.286	24.248	925.200	731.930
191.300	23.279	923.832	726.809
192.315	23.152	923.359	725.849
193.329	23.229	922.367	725.321
194.344	23.688	922.240	727.037
195.359	23.976	922.116	728.055
196.373	24.306	922.110	729.335
197.388	24.409	922.207	729.768
198.402	24.537	920.818	729.129
199.417	25.074	919.662	730.338
200.432	24.905	919.619	729.548
201.446	24.706	918.595	727.862
202.461	24.944	918.139	728.404
203.475	24.389	916.554	724.829
204.490	24.034	915.275	722.315
205.504	24.068	915.844	722.835
206.519	24.291	916.187	723.948
207.534	24.512	915.101	723.923
208.548	24.415	914.942	723.338
209.563	23.929	914.605	721.039
210.577	24.577	913.211	722.499
211.592	24.735	912.388	722.421
212.607	24.791	912.020	722.293
213.621	24.808	910.929	721.435
214.636	24.618	910.681	720.407
215.650	24.859	909.547	720.418
216.665	24.529	909.465	718.958
217.680	24.835	908.625	719.462
218.694	24.735	907.615	718.198
219.709	24.524	907.224	716.978
220.723	24.605	905.925	716.210
221.738	24.471	904.607	714.569
222.753	24.132	905.016	713.473
223.767	24.615	904.776	715.156
224.782	24.742	904.308	715.228
225.796	24.528	903.603	713.754
226.811	24.476	901.525	711.841
227.826	24.063	901.387	710.020
228.840	23.838	901.795	709.383
229.855	24.112	900.193	709.152
230.869	24.217	898.940	708.520
231.884	23.984	899.231	707.759
232.899	24.311	898.970	708.792
233.913	24.014	898.116	706.876
234.928	24.065	897.907	706.850
235.942	23.714	896.919	704.617
236.957	23.710	895.983	703.803
237.972	23.700	895.667	703.454
238.986	23.678	895.683	703.318
240.001	23.913	893.896	702.779
241.015	23.956	893.676	702.714
242.030	23.990	893.663	702.777
243.045	24.208	892.718	702.831
244.059	24.387	891.548	702.554
245.074	24.267	891.193	701.740
246.088	24.250	891.561	701.900
247.103	24.729	890.832	703.148
248.117	24.892	891.230	704.039
249.132	25.475	890.033	705.322
250.147	25.480	890.625	705.749
251.161	25.408	889.290	704.347
252.176	25.525	888.807	704.359
253.190	25.219	889.105	703.333
254.205	25.669	887.417	703.696
255.220	25.297	887.206	702.011
256.234	25.354	886.738	701.802
257.249	25.029	886.432	700.227
258.263	25.307	884.794	699.956
259.278	25.014	885.182	699.058
260.293	25.304	884.964	699.957
261.307	25.070	883.080	697.492
262.322	25.220	883.169	698.085
263.336	24.922	881.952	695.903
264.351	24.818	880.462	694.261
265.366	24.684	880.542	693.743
266.380	24.776	881.499	694.796
267.395	24.947	880.231	694.397
268.409	24.800	879.136	692.902
269.424	25.190	877.748	693.255
270.439	25.166	877.456	692.871
271.453	24.941	877.191	691.729
272.468	25.147	876.199	691.682
273.482	25.318	876.451	692.478
274.497	24.868	875.191	689.690
275.512	25.048	874.291	689.611
276.526	24.965	874.457	689.362
277.541	25.398	872.812	689.666
278.555	25.444	873.343	690.201
279.570	25.405	872.486	689.313
280.585	25.613	871.232	689.058
281.599	25.459	870.502	687.831
282.614	24.882	869.633	684.876
283.628	24.889	869.201	684.501
284.643	24.881	868.687	684.007
285.657	24.800	868.217	683.265
286.672	24.897	868.245	683.599
287.687	24.884	866.789	682.343
288.701	24.907	867.304	682.773
289.716	25.076	865.766	682.145
290.730	25.164	864.956	681.781
291.745	24.685	865.575	680.386
292.760	25.085	864.284	680.835
293.774	25.720	864.434	683.301
294.789	25.430	864.272	682.014
295.803	25.557	862.536	681.064
296.818	25.602	861.729	680.537
297.833	25.282	861.573	679.144
298.847	24.913	861.509	677.635
299.862	25.323	861.101	678.807
300.876	25.467	860.447	678.774
301.891	25.557	859.668	678.437
302.906	25.505	858.813	677.510
303.920	25.791	859.168	678.808
304.935	25.878	858.020	678.166
305.949	25.393	858.256	676.465
306.964	25.096	857.410	674.625
307.979	25.472	856.539	675.290
308.993	25.486	855.853	674.744
310.008	25.637	854.547	674.220
311.022	25.493	854.634	673.689
312.037	25.376	853.824	672.551
313.052	25.307	853.265	671.795
314.066	24.926	852.092	669.386
315.081	24.821	852.231	669.045
316.095	25.132	850.886	669.089
317.110	25.090	850.514	668.584
318.125	24.851	849.887	667.140
319.139	24.143	849.983	664.516
320.154	24.596	849.009	665.381
321.168	24.620	848.366	664.908
322.183	25.142	848.074	666.561
323.197	25.004	847.513	665.551
324.212	25.081	847.238	665.562
325.227	24.830	846.850	664.264
326.241	24.882	845.483	663.329
327.256	25.189	845.106	664.110
328.270	24.597	845.370	662.063
329.285	24.448	843.690	660.141
330.300	24.688	843.147	660.544
331.314	24.869	842.378	660.551
332.329	25.200	842.642	661.921
333.343	25.490	842.920	663.152
334.358	25.398	841.456	661.600
335.373	25.321	841.235	661.086
336.387	25.461	841.228	661.536
337.402	25.494	842.049	662.245
338.416	25.839	841.315	662.880
339.431	26.013	840.225	662.602
340.446	25.956	840.358	662.438
341.460	25.799	841.478	662.685
342.475	25.912	840.692	662.422
343.489	25.987	839.706	661.861
344.504	26.258	839.187	662.389
345.519	26.136	838.906	661.660
346.533	26.267	837.880	661.274
347.548	26.115	836.774	659.784
348.562	25.715	837.666	658.967
349.577	25.831	836.253	658.221
350.592	25.726	835.490	657.177
351.606	25.407	834.723	655.352
352.621	25.374	834.407	654.929
353.635	25.446	833.139	654.135
354.650	25.531	832.360	653.774
355.665	25.352	831.886	652.696
356.679	25.593	831.354	653.095
357.694	25.496	830.936	652.356
358.708	25.187	830.944	651.184
359.723	25.141	829.771	650.039
360.738	25.290	828.973	649.896
361.752	25.605	828.107	650.299
362.767	25.822	828.349	651.216
363.781	26.378	827.394	652.415
364.796	26.327	827.096	651.938
365.810	26.077	827.675	651.435
366.825	26.056	826.846	650.650
367.840	25.993	826.068	649.751
368.854	25.893	824.804	648.339
369.869	25.934	824.413	648.124
370.883	25.695	823.458	646.456
371.898	26.087	823.921	648.172
372.913	25.987	824.272	648.030
373.927	25.802	823.008	646.316
374.942	25.920	822.213	646.058
375.956	26.027	822.057	646.262
376.971	25.854	821.758	645.348
377.986	25.960	821.656	645.593
379.000	25.993	822.027	645.943
380.015	26.154	820.448	645.223
381.029	25.955	819.683	643.852
382.044	26.348	819.158	644.784
383.059	26.245	818.967	644.210
384.073	26.435	817.718	643.849
385.088	25.640	817.463	640.761
386.102	25.719	816.055	639.879
387.117	25.471	815.573	638.563
388.132	25.229	815.518	637.605
389.146	25.297	814.459	636.963
390.161	25.821	814.560	638.842
391.175	26.241	814.403	640.153
392.190	26.017	813.539	638.622
393.205	25.434	812.392	635.606
394.219	24.656	810.797	631.552
395.234	24.882	810.194	631.825
396.248	25.350	811.119	634.144
397.263	25.743	810.801	635.227
398.278	25.665	810.480	634.644
399.292	25.169	810.012	632.472
400.307	25.090	808.225	630.743
401.321	25.393	807.932	631.525
402.336	25.331	808.638	631.802
403.350	25.913	808.276	633.509
404.365	25.954	808.721	633.947
405.380	26.395	808.624	635.363
406.394	26.355	808.060	634.725
407.409	26.621	807.309	635.011
408.423	26.857	806.599	635.224
409.438	27.191	805.968	635.840
410.453	26.642	805.007	633.105
411.467	26.581	805.063	632.880
412.482	26.400	805.253	632.342
413.496	26.613	804.420	632.376
414.511	26.588	804.109	631.988
415.526	26.660	802.937	631.261
416.540	26.497	803.609	631.166
417.555	26.358	803.018	630.160
418.569	26.562	802.611	630.494
419.584	26.738	801.749	630.376
420.599	27.019	800.635	630.420
421.613	159.783	1370.792	1791.820
422.628	138.689	1453.859	1791.890
