DTS Sentinel unit serial number:	SN413079Multiplexer serial number:	ORYXHardware model number:	OX4-SRSoftware version number:	ORYX F/W v4.00 Oryx Data Collector v3.7.2.0data status	okinstallation	princeton_trtdifferential loss correction	single-endedforward channel	channel 1reverse channel	N/Adate	2019/09/12time	21:58:35forward acquisition time	60.00reverse acquisition time	0.00gamma	496.2192k internal	0.2327k external	0.2327temperature offset calibration	1.0154default loss term (dB/km)	0.3790temperature slope calibration	1.0000multiplexer offset coefficient	1.0000multiplexer slope coefficient	1.0000fibre end	0.00T internal ref (°C)	30.09T ext. ref 1 (°C)	3.73T ext. ref 2 (°C)	24.66length (m)	temperature (°C)	Stokes	anti-Stokes-747.200	85.065	-0.144	-0.159
-746.185	341.311	0.297	0.585
-745.171	-200.000	-0.101	-0.520
-744.156	295.928	0.239	0.441
-743.142	21.202	-0.160	0.131
-742.127	25.611	-0.306	0.257
-741.112	20.461	-0.089	-0.072
-740.098	-58.621	-0.514	0.225
-739.083	76.537	-0.299	0.319
-738.069	798.601	0.076	0.211
-737.054	-63.720	-0.212	-0.088
-736.039	139.295	-0.145	0.193
-735.025	-30.328	0.116	0.067
-734.010	786.662	0.063	-0.173
-732.996	-54.528	-0.213	-0.097
-731.981	-26.530	0.140	-0.083
-730.966	84.049	0.097	-0.107
-729.952	508.134	-0.064	-0.149
-728.937	73.382	-0.228	-0.240
-727.923	135.447	-0.004	0.006
-726.908	115.273	-0.107	-0.131
-725.894	664.484	-0.139	-0.361
-724.879	-1.864	-0.233	-0.165
-723.864	-91.567	-0.341	0.098
-722.850	40.892	0.113	-0.103
-721.835	-147.505	-0.147	-0.012
-720.821	-124.753	-0.072	0.011
-719.806	-200.000	0.048	0.300
-718.791	23.611	0.312	0.259
-717.777	33.020	0.111	-0.097
-716.762	-59.145	-0.275	-0.119
-715.748	800.000	0.040	0.146
-714.733	-156.157	-0.313	0.020
-713.718	-200.000	-0.025	0.116
-712.704	-73.066	-0.234	0.086
-711.689	58.053	-0.152	-0.149
-710.675	44.289	-0.346	-0.320
-709.660	-200.000	0.014	-0.189
-708.645	208.828	-0.149	-0.235
-707.631	683.216	0.077	0.203
-706.616	400.922	-0.105	0.222
-705.602	195.599	-0.064	-0.097
-704.587	7.185	0.172	-0.129
-703.572	572.305	-0.027	0.065
-702.558	215.044	0.249	0.398
-701.543	-200.000	0.020	-0.242
-700.529	-100.519	0.171	-0.043
-699.514	-48.443	0.232	-0.113
-698.499	-60.605	0.324	-0.139
-697.485	-98.590	-0.170	0.044
-696.470	-200.000	0.009	-0.336
-695.456	-184.346	0.207	-0.003
-694.441	800.000	-0.088	-0.331
-693.426	-200.000	-0.068	-0.326
-692.412	800.000	0.017	-0.055
-691.397	9.421	0.116	-0.088
-690.383	-107.129	-0.266	-0.059
-689.368	48.766	-0.275	0.259
-688.354	-56.625	-0.059	0.026
-687.339	-55.026	0.279	-0.127
-686.324	74.216	0.110	-0.116
-685.310	268.755	-0.031	0.056
-684.295	237.836	-0.185	-0.309
-683.281	800.000	0.056	-0.176
-682.266	-87.433	-0.261	0.079
-681.251	279.096	0.077	-0.138
-680.237	-126.873	-0.147	0.022
-679.222	-63.126	0.214	-0.089
-678.208	609.866	-0.062	0.155
-677.193	-127.479	-0.564	0.082
-676.178	-145.531	0.232	-0.021
-675.164	-200.000	0.006	-0.107
-674.149	800.000	0.049	-0.145
-673.135	427.378	-0.090	0.196
-672.120	-130.946	-0.285	0.038
-671.105	-200.000	0.053	0.284
-670.091	-33.484	-0.150	0.083
-669.076	64.099	-0.221	-0.223
-668.062	-110.887	-0.246	-0.051
-667.047	-75.378	-0.420	0.151
-666.032	800.000	0.024	-0.091
-665.018	-42.719	0.170	0.087
-664.003	-36.943	0.168	-0.090
-662.989	-123.434	0.156	0.025
-661.974	239.441	-0.140	-0.235
-660.959	800.000	0.045	-0.129
-659.945	97.360	0.110	-0.127
-658.930	299.549	0.201	-0.372
-657.916	-128.521	0.174	-0.025
-656.901	-28.123	-0.239	0.139
-655.886	-148.394	-0.142	0.012
-654.872	-200.000	0.022	-0.213
-653.857	178.859	-0.209	0.307
-652.843	-32.376	0.159	0.089
-651.828	-200.000	-0.058	-0.000
-650.814	187.640	-0.161	-0.241
-649.799	-4.309	-0.195	-0.135
-648.784	169.400	-0.026	0.037
-647.770	-200.000	-0.021	-0.455
-646.755	-80.492	-0.301	0.101
-645.741	16.522	-0.279	0.222
-644.726	-28.299	-0.227	-0.132
-643.711	-25.574	0.374	0.222
-642.697	-4.684	-0.157	0.109
-641.682	-14.800	0.035	-0.022
-640.668	189.377	0.188	0.282
-639.653	-92.720	0.236	-0.066
-638.638	136.393	0.030	-0.039
-637.624	39.698	0.214	0.192
-636.609	800.000	-0.093	0.289
-635.595	-57.151	-0.070	-0.031
-634.580	257.178	0.094	-0.163
-633.565	282.066	-0.194	-0.350
-632.551	182.617	-0.201	-0.298
-631.536	-200.000	-0.004	0.100
-630.522	-200.000	-0.045	0.265
-629.507	-33.117	-0.032	0.018
-628.492	218.292	-0.188	0.301
-627.478	800.000	-0.014	0.046
-626.463	-113.587	-0.255	-0.050
-625.449	-200.000	-0.013	0.072
-624.434	-38.794	0.241	0.128
-623.419	800.000	-0.098	-0.417
-622.405	-75.787	0.308	-0.110
-621.390	-85.322	0.231	0.072
-620.376	-13.930	-0.173	0.112
-619.361	-4.592	-0.250	0.173
-618.346	-107.111	0.250	0.055
-617.332	-200.000	-0.044	-0.375
-616.317	-87.147	-0.072	0.022
-615.303	662.215	0.101	0.261
-614.288	57.567	0.205	0.201
-613.273	-144.098	-0.090	-0.008
-612.259	-200.000	0.014	-0.231
-611.244	47.971	-0.468	-0.438
-610.230	-36.787	-0.224	-0.121
-609.215	94.240	-0.167	-0.190
-608.201	800.000	-0.132	-0.412
-607.186	-70.783	-0.298	-0.113
-606.171	156.651	0.228	-0.316
-605.157	71.202	0.138	0.144
-604.142	-87.392	-0.363	-0.110
-603.128	-0.149	-0.148	0.106
-602.113	-85.582	-0.287	-0.090
-601.098	-126.066	0.130	-0.019
-600.084	-50.513	0.173	0.082
-599.069	-54.395	0.315	-0.143
-598.055	-62.729	0.158	0.066
-597.040	319.815	0.030	-0.058
-596.025	-9.572	0.107	-0.072
-595.011	-200.000	0.042	0.336
-593.996	10.451	-0.363	0.277
-592.982	-86.951	-0.054	-0.016
-591.967	-65.046	0.306	-0.124
-590.952	-85.960	0.115	0.036
-589.938	800.000	-0.056	0.171
-588.923	-163.656	0.012	0.001
-587.909	-84.340	0.180	-0.057
-586.894	800.000	0.050	-0.197
-585.879	-110.257	0.263	-0.055
-584.865	59.834	0.158	-0.156
-583.850	178.583	0.078	0.114
-582.836	95.499	0.070	0.080
-581.821	67.523	-0.052	0.053
-580.806	433.247	-0.031	-0.067
-579.792	-200.000	-0.004	-0.048
-578.777	-86.179	-0.156	0.048
-577.763	800.000	-0.086	0.312
-576.748	25.759	0.138	-0.115
-575.733	-59.609	0.057	-0.025
-574.719	368.851	0.114	-0.231
-573.704	-65.561	-0.152	-0.061
-572.690	-200.000	0.021	-0.617
-571.675	618.171	0.079	-0.198
-570.661	-200.000	-0.005	-0.049
-569.646	-121.476	-0.127	-0.021
-568.631	-123.593	-0.079	0.013
-567.617	-200.000	0.011	0.508
-566.602	-200.000	-0.040	-0.186
-565.588	174.096	0.103	-0.149
-564.573	-20.831	0.283	0.174
-563.558	86.847	-0.118	-0.131
-562.544	215.962	-0.126	0.200
-561.529	158.584	-0.109	0.151
-560.515	323.591	-0.109	0.208
-559.500	-200.000	-0.016	-0.142
-558.485	0.340	0.147	-0.105
-557.471	-200.000	0.018	-0.140
-556.456	800.000	-0.036	-0.136
-555.442	-47.975	0.362	0.175
-554.427	-200.000	0.010	-0.208
-553.412	800.000	-0.110	0.359
-552.398	-200.000	0.045	-0.383
-551.383	-188.287	0.328	0.004
-550.369	-6.193	-0.114	-0.078
-549.354	744.556	0.070	-0.189
-548.339	-88.791	-0.274	-0.081
-547.325	-152.256	0.207	0.015
-546.310	296.806	-0.148	0.272
-545.296	-166.527	0.092	0.004
-544.281	437.059	-0.015	-0.033
-543.266	-200.000	0.013	0.078
-542.252	133.337	-0.044	0.057
-541.237	50.735	0.270	0.256
-540.223	-99.744	-0.286	0.072
-539.208	174.395	0.220	-0.318
-538.193	303.594	0.126	0.234
-537.179	39.306	-0.189	-0.169
-536.164	-200.000	-0.005	0.341
-535.150	800.000	0.037	0.116
-534.135	-173.185	-0.438	-0.013
-533.121	-200.000	-0.003	0.041
-532.106	800.000	0.003	-0.011
-531.091	-178.091	0.125	0.003
-530.077	222.594	0.086	0.139
-529.062	-24.856	0.091	-0.054
-528.048	-200.000	-0.011	-0.135
-527.033	669.857	-0.109	0.283
-526.018	800.000	0.058	0.218
-525.004	69.583	-0.160	-0.165
-523.989	-18.935	-0.091	-0.057
-522.975	-110.538	0.201	-0.042
-521.960	414.099	0.033	-0.070
-520.945	-62.744	-0.585	0.243
-519.931	-75.952	0.341	0.120
-518.916	-107.049	-0.100	-0.022
-517.902	-44.850	-0.131	-0.065
-516.887	86.577	-0.100	-0.111
-515.872	29.171	-0.288	-0.244
-514.858	-89.373	-0.045	-0.013
-513.843	60.432	0.212	-0.209
-512.829	82.690	-0.219	0.237
-511.814	76.971	-0.239	0.253
-510.799	-189.288	0.037	0.000
-509.785	13.117	0.202	0.156
-508.770	-45.112	0.072	0.036
-507.756	755.476	-0.068	0.183
-506.741	36.173	0.092	-0.081
-505.726	-61.624	-0.081	0.034
-504.712	247.327	-0.073	0.123
-503.697	800.000	0.015	0.056
-502.683	676.710	-0.124	0.322
-501.668	-61.225	0.234	0.098
-500.653	16.777	-0.166	0.131
-499.639	26.087	-0.204	0.170
-498.624	-97.438	0.053	0.014
-497.610	800.000	0.011	0.038
-496.595	42.874	-0.046	-0.042
-495.581	800.000	-0.053	-0.185
-494.566	179.997	0.102	-0.150
-493.551	-172.291	0.410	-0.013
-492.537	-49.745	-0.219	-0.104
-491.522	-74.236	-0.390	0.141
-490.508	243.941	-0.062	-0.104
-489.493	-175.447	-0.157	0.004
-488.478	-200.000	0.028	0.279
-487.464	-62.168	0.342	0.142
-486.449	158.829	0.081	0.113
-485.435	-59.716	-0.340	0.145
-484.420	265.199	0.118	-0.206
-483.405	400.815	-0.066	-0.139
-482.391	-149.080	-0.208	-0.017
-481.376	-106.401	0.175	-0.039
-480.362	-148.890	0.245	-0.020
-479.347	226.331	0.201	-0.326
-478.332	800.000	-0.030	0.110
-477.318	-9.505	-0.181	-0.120
-476.303	148.278	-0.161	0.217
-475.289	800.000	0.115	-0.466
-474.274	-188.903	0.049	-0.001
-473.259	-200.000	0.037	-0.182
-472.245	157.036	-0.230	-0.317
-471.230	198.383	0.364	-0.555
-470.216	4.243	0.098	0.072
-469.201	-200.000	0.000	-0.032
-468.186	-171.340	-0.218	0.007
-467.172	-72.669	0.266	0.098
-466.157	161.382	-0.212	-0.296
-465.143	-28.686	-0.191	0.109
-464.128	-200.000	0.038	0.217
-463.113	-200.000	-0.004	0.251
-462.099	800.000	0.086	0.249
-461.084	51.782	0.178	-0.169
-460.070	457.433	-0.016	0.035
-459.055	8.103	0.324	0.242
-458.040	-200.000	0.013	0.072
-457.026	-86.392	0.092	-0.028
-456.011	-95.568	-0.305	0.081
-454.997	800.000	-0.067	0.203
-453.982	-43.289	-0.067	0.034
-452.968	-50.469	0.173	0.082
-451.953	-74.204	0.172	0.062
-450.938	56.025	-0.015	-0.014
-449.924	-115.513	0.206	0.039
-448.909	-52.503	-0.197	-0.091
-447.895	800.000	-0.047	-0.184
-446.880	-73.522	-0.172	0.062
-445.865	-26.080	-0.141	0.082
-444.851	-98.435	-0.137	0.035
-443.836	50.987	-0.105	0.099
-442.822	37.018	-0.283	-0.250
-441.807	-60.684	0.313	-0.132
-440.792	800.000	-0.028	-0.107
-439.778	-147.652	0.041	-0.003
-438.763	-55.428	0.047	0.021
-437.749	-200.000	-0.026	0.169
-436.734	-88.569	0.245	-0.073
-435.719	800.000	-0.042	-0.135
-434.705	42.364	0.190	0.172
-433.690	-117.425	-0.234	-0.042
-432.676	-200.000	-0.014	-0.078
-431.661	475.082	-0.071	-0.159
-430.646	-45.380	-0.285	0.141
-429.632	-104.373	-0.242	-0.056
-428.617	-151.318	0.136	0.010
-427.603	-7.528	0.234	0.158
-426.588	-39.150	-0.048	0.025
-425.573	-200.000	0.006	0.048
-424.559	25.937	-0.111	-0.092
-423.544	-200.000	-0.019	0.088
-422.530	-4.510	-0.076	-0.052
-421.515	154.051	-0.206	0.281
-420.500	343.238	-0.044	-0.086
-419.486	27.555	0.153	0.128
-418.471	-49.456	-0.167	-0.079
-417.457	-200.000	-0.007	-0.519
-416.442	-19.527	-0.182	0.112
-415.428	408.133	0.104	0.219
-414.413	397.274	0.173	0.359
-413.398	658.731	-0.076	-0.195
-412.384	-200.000	0.030	-0.333
-411.369	-4.566	0.191	0.131
-410.355	97.053	0.038	0.044
-409.340	800.000	-0.060	0.173
-408.325	-85.940	0.481	0.148
-407.311	-171.574	-0.063	0.002
-406.296	-200.000	0.015	0.222
-405.282	3.640	0.331	0.240
-404.267	72.162	-0.258	-0.268
-403.252	800.000	-0.038	0.117
-402.238	-49.451	0.280	0.133
-401.223	45.267	-0.058	0.053
-400.209	205.102	0.145	0.224
-399.194	-112.621	0.219	-0.043
-398.179	197.380	-0.146	-0.221
-397.165	432.757	0.104	-0.225
-396.150	-160.058	0.316	-0.017
-395.136	800.000	0.122	-0.449
-394.121	-158.148	-0.198	0.012
-393.106	-13.070	0.062	-0.040
-392.092	800.000	0.130	-0.382
-391.077	105.507	0.232	-0.272
-390.063	-105.341	0.526	0.119
-389.048	134.938	-0.319	-0.412
-388.033	-200.000	0.018	0.256
-387.019	220.768	-0.145	-0.231
-386.004	162.197	0.022	0.030
-384.990	35.403	0.149	-0.130
-383.975	-64.071	-0.279	0.113
-382.960	161.495	-0.113	-0.157
-381.946	-13.291	0.101	0.065
-380.931	-69.145	-0.092	-0.035
-379.917	-200.000	-0.002	-0.096
-378.902	800.000	-0.108	-0.333
-377.888	26.614	-0.295	-0.245
-376.873	-42.767	-0.097	0.049
-375.858	-138.160	-0.155	-0.017
-374.844	-155.801	-0.091	-0.006
-373.829	800.000	0.019	0.077
-372.815	418.414	-0.020	-0.043
-371.800	10.315	-0.171	0.129
-370.785	-40.251	0.373	0.193
-369.771	-129.222	0.148	-0.021
-368.756	202.487	0.171	0.262
-367.742	50.145	-0.207	-0.194
-366.727	-105.742	0.299	-0.067
-365.712	-111.963	0.360	-0.072
-364.698	-38.273	0.045	-0.024
-363.683	101.047	0.236	0.273
-362.669	-91.122	0.175	-0.050
-361.654	-129.900	0.390	-0.053
-360.639	664.354	0.129	-0.332
-359.625	14.075	-0.297	-0.230
-358.610	-62.985	0.147	0.060
-357.596	-200.000	-0.005	0.090
-356.581	116.918	-0.127	0.154
-355.566	50.450	0.314	0.295
-354.552	60.710	0.351	0.345
-353.537	-200.000	0.023	-0.147
-352.523	-111.600	-0.267	0.054
-351.508	360.158	0.074	0.147
-350.493	50.741	-0.102	-0.096
-349.479	800.000	0.068	0.224
-348.464	-200.000	-0.020	-0.245
-347.450	-93.372	-0.178	-0.049
-346.435	41.106	-0.192	-0.172
-345.420	601.894	-0.031	0.077
-344.406	800.000	0.084	-0.271
-343.391	800.000	-0.111	-0.350
-342.377	-200.000	-0.004	0.442
-341.362	-200.000	-0.002	-0.403
-340.348	-52.487	0.206	-0.095
-339.333	-13.365	0.021	-0.013
-338.318	-101.209	0.192	-0.047
-337.304	26.653	-0.269	-0.224
-336.289	119.165	0.140	0.172
-335.275	800.000	-0.085	-0.298
-334.260	-130.165	-0.320	-0.043
-333.245	120.077	0.363	0.446
-332.231	-15.033	0.148	-0.094
-331.216	414.134	0.070	0.148
-330.202	79.952	-0.027	0.029
-329.187	291.232	0.128	0.231
-328.172	101.872	-0.168	0.194
-327.158	-131.345	-0.444	0.058
-326.143	419.028	-0.124	-0.263
-325.129	206.950	-0.060	-0.092
-324.114	-33.406	-0.282	-0.155
-323.099	-83.669	-0.195	0.062
-322.085	-200.000	0.037	-0.209
-321.070	652.613	-0.108	-0.275
-320.056	80.344	0.185	-0.197
-319.041	64.465	-0.148	0.148
-318.026	800.000	0.054	-0.172
-317.012	-31.746	-0.186	0.104
-315.997	185.773	-0.067	0.099
-314.983	381.965	0.059	0.121
-313.968	298.156	0.049	-0.090
-312.953	-200.000	-0.027	0.314
-311.939	-167.459	-0.239	0.010
-310.924	800.000	0.022	-0.061
-309.910	-84.494	0.061	-0.019
-308.895	14.416	-0.088	0.068
-307.880	246.205	-0.088	0.147
-306.866	-105.036	0.293	-0.066
-305.851	-27.363	0.402	-0.232
-304.837	-200.000	-0.035	-0.302
-303.822	-121.503	0.203	0.033
-302.807	54.897	-0.150	0.144
-301.793	-39.458	0.241	-0.125
-300.778	-70.030	-0.270	-0.102
-299.764	366.148	0.153	-0.305
-298.749	-200.000	-0.003	-0.016
-297.735	-87.071	-0.150	0.045
-296.720	800.000	-0.137	0.400
-295.705	-34.568	0.231	0.125
-294.691	12.564	-0.222	-0.170
-293.676	-40.097	0.269	0.139
-292.662	-98.037	-0.475	0.121
-291.647	-50.092	-0.147	-0.069
-290.632	-200.000	0.001	0.338
-289.618	-24.646	-0.219	0.129
-288.603	-200.000	0.004	-0.115
-287.589	800.000	0.048	0.179
-286.574	34.774	-0.063	0.055
-285.559	532.594	0.068	-0.159
-284.545	800.000	0.022	0.079
-283.530	-122.396	-0.184	0.030
-282.516	63.008	0.094	-0.093
-281.501	784.916	-0.093	0.253
-280.486	800.000	-0.027	0.115
-279.472	11.690	0.329	0.250
-278.457	800.000	0.091	0.254
-277.443	193.481	-0.034	0.051
-276.428	31.447	-0.236	0.200
-275.413	-144.892	-0.274	-0.025
-274.399	149.693	-0.075	0.101
-273.384	87.860	0.116	0.127
-272.370	-200.000	0.084	0.392
-271.355	746.762	0.052	0.139
-270.340	-28.155	0.335	0.192
-269.326	-74.051	-0.184	-0.066
-268.311	-8.394	0.154	-0.103
-267.297	-141.654	0.198	0.020
-266.282	39.199	-0.140	-0.124
-265.267	4.315	-0.196	0.142
-264.253	609.068	-0.070	0.174
-263.238	90.546	-0.245	-0.271
-262.224	-31.020	0.231	-0.129
-261.209	-66.334	-0.056	0.022
-260.195	-200.000	0.021	0.173
-259.180	-200.000	0.051	0.448
-258.165	-84.869	-0.235	0.073
-257.151	134.315	-0.057	-0.074
-256.136	79.871	0.028	-0.029
-255.122	-200.000	-0.002	0.070
-254.107	779.615	0.067	0.181
-253.092	30.569	-0.364	-0.308
-252.078	-62.686	-0.106	0.043
-251.063	54.681	0.126	-0.120
-250.049	-200.000	-0.004	0.188
-249.034	130.448	-0.097	-0.123
-248.019	-55.314	-0.195	0.087
-247.005	305.036	0.013	-0.023
-245.990	-83.337	-0.015	-0.005
-244.976	-200.000	-0.002	-0.212
-243.961	-101.555	0.465	-0.112
-242.946	-76.085	-0.174	-0.061
-241.932	-83.901	0.112	0.035
-240.917	800.000	0.056	0.240
-239.903	80.807	-0.073	0.077
-238.888	-98.935	-0.260	0.065
-237.873	800.000	-0.033	0.137
-236.859	-154.249	-0.425	0.028
-235.844	-62.173	0.124	-0.051
-234.830	280.886	-0.083	-0.146
-233.815	266.811	-0.071	-0.122
-232.800	99.437	0.125	0.143
-231.786	-61.426	0.221	0.092
-230.771	-71.426	-0.127	0.047
-229.757	434.488	0.030	0.064
-228.742	50.587	0.137	-0.128
-227.727	-193.611	0.267	-0.002
-226.713	423.185	0.086	0.182
-225.698	29.647	-0.202	0.170
-224.684	606.598	-0.166	0.410
-223.669	276.239	-0.108	0.189
-222.655	30.842	-0.297	0.251
-221.640	283.789	0.014	-0.026
-220.625	-200.000	-0.004	-0.557
-219.611	-200.000	-0.013	-0.430
-218.596	800.000	0.086	0.291
-217.582	22.668	-0.017	-0.014
-216.567	256.670	0.214	0.364
-215.552	-37.242	-0.293	0.155
-214.538	8.388	0.062	0.046
-213.523	34.145	0.334	0.288
-212.509	160.373	0.057	-0.079
-211.494	-107.022	0.193	-0.042
-210.479	6.649	-0.131	-0.096
-209.465	-200.000	-0.005	-0.055
-208.450	15.070	0.271	-0.210
-207.436	-200.000	-0.074	0.338
-206.421	800.000	-0.046	0.154
-205.406	-200.000	0.023	-0.122
-204.392	-200.000	0.010	-0.172
-203.377	97.623	0.219	-0.249
-202.363	800.000	-0.069	0.198
-201.348	42.754	0.102	-0.092
-200.333	-200.000	-0.005	0.085
-199.319	-26.552	0.261	-0.151
-198.304	-60.462	0.119	-0.050
-197.290	-82.509	0.440	-0.141
-196.275	800.000	0.139	-0.381
-195.260	-76.433	-0.156	-0.054
-194.246	-103.698	0.595	-0.138
-193.231	128.834	-0.093	0.118
-192.217	-105.597	-0.248	-0.056
-191.202	184.266	0.192	-0.280
-190.187	-10.164	-0.112	0.074
-189.173	-91.254	-0.387	0.109
-188.158	121.279	0.151	-0.186
-187.144	800.000	0.048	0.148
-186.129	1.548	-0.072	-0.051
-185.114	73.606	0.070	-0.072
-184.100	52.805	-0.089	0.084
-183.085	-7.311	-0.210	0.141
-182.071	771.102	0.055	-0.147
-181.056	800.000	-0.102	-0.335
-180.042	106.351	-0.044	0.051
-179.027	25.421	0.089	-0.073
-178.012	-200.000	-0.049	0.259
-176.998	800.000	0.021	-0.061
-175.983	447.713	0.145	-0.315
-174.969	-74.793	-0.124	-0.044
-173.954	-113.180	-0.041	-0.008
-172.939	-29.925	-0.145	0.081
-171.925	-96.099	0.251	-0.066
-170.910	-200.000	0.020	0.275
-169.896	-85.750	0.189	0.058
-168.881	-200.000	0.022	0.211
-167.866	36.441	-0.190	-0.166
-166.852	800.000	0.084	-0.243
-165.837	-200.000	0.006	-0.048
-164.823	800.000	0.078	-0.243
-163.808	58.433	0.171	-0.166
-162.793	-200.000	0.021	-0.214
-161.779	-200.000	-0.054	0.424
-160.764	13.665	0.144	-0.110
-159.750	-105.417	0.040	0.009
-158.735	717.417	-0.114	-0.298
-157.720	377.131	-0.103	-0.207
-156.706	452.531	0.091	0.198
-155.691	299.500	0.096	-0.174
-154.677	-42.169	0.377	0.190
-153.662	60.392	-0.054	0.053
-152.647	-44.764	-0.387	0.190
-151.633	800.000	-0.090	0.291
-150.618	-136.914	0.142	0.016
-149.604	-200.000	-0.040	0.220
-148.589	113.427	0.163	0.195
-147.574	-73.270	0.221	-0.080
-146.560	-200.000	-0.039	-0.200
-145.545	-200.000	0.021	0.117
-144.531	800.000	-0.058	-0.206
-143.516	-135.392	0.170	0.020
-142.502	493.900	-0.110	0.248
-141.487	-200.000	0.002	-0.208
-140.472	73.915	-0.121	-0.125
-139.458	-200.000	0.023	0.130
-138.443	-200.000	0.037	-0.289
-137.429	-62.010	-0.196	-0.081
-136.414	190.988	-0.229	-0.339
-135.399	-84.757	0.332	-0.103
-134.385	-149.164	0.143	0.011
-133.370	-80.649	0.355	-0.116
-132.356	-200.000	-0.006	-0.179
-131.341	143.640	0.068	-0.089
-130.326	70.296	-0.142	0.145
-129.312	-200.000	0.001	0.191
-128.297	-33.831	0.293	-0.159
-127.283	20.057	-0.210	0.167
-126.268	800.000	-0.050	-0.198
-125.253	-200.000	0.008	0.090
-124.239	-150.242	0.192	-0.015
-123.224	40.809	-0.071	0.063
-122.210	-101.712	-0.084	-0.020
-121.195	-145.145	-0.032	-0.003
-120.180	-11.120	-0.105	0.068
-119.166	-200.000	-0.064	0.329
-118.151	800.000	0.070	0.267
-117.137	-200.000	-0.033	-0.317
-116.122	-59.109	0.085	0.036
-115.107	765.398	-0.047	-0.126
-114.093	-98.675	0.370	-0.093
-113.078	-200.000	-0.007	0.199
-112.064	-200.000	0.037	-0.220
-111.049	-200.000	-0.091	-0.403
-110.034	38.850	0.195	-0.171
-109.020	-47.900	0.187	0.089
-108.005	-54.690	-0.039	0.017
-106.991	112.322	0.213	0.253
-105.976	141.676	0.173	0.226
-104.962	-102.583	-0.150	-0.035
-103.947	-41.917	0.035	-0.018
-102.932	-58.773	-0.189	-0.080
-101.918	209.466	0.127	0.196
-100.903	615.605	0.075	-0.184
-99.889	33.308	-0.061	0.052
-98.874	-126.369	0.347	0.051
-97.859	-86.130	-0.025	0.008
-96.845	-12.272	-0.244	0.157
-95.830	64.003	-0.218	0.216
-94.816	118.341	-0.103	0.125
-93.801	-79.038	-0.347	0.116
-92.786	268.927	0.115	0.198
-91.772	-200.000	0.030	0.197
-90.757	800.000	-0.060	-0.167
-89.743	54.425	0.180	-0.170
-88.728	-140.893	0.485	-0.049
-87.713	49.074	0.028	-0.026
-86.699	-38.170	-0.257	-0.134
-85.684	142.714	0.198	0.259
-84.670	317.224	-0.068	0.126
-83.655	111.675	-0.142	-0.169
-82.640	-33.233	-0.059	-0.032
-81.626	-200.000	-0.038	0.240
-80.611	-36.044	0.343	-0.182
-79.597	64.772	0.098	0.097
-78.582	197.155	0.116	-0.173
-77.567	-39.799	0.285	0.146
-76.553	-200.000	0.006	-0.420
-75.538	276.220	-0.158	-0.276
-74.524	217.526	-0.147	0.231
-73.509	57.490	-0.083	0.080
-72.494	-200.000	0.012	-0.075
-71.480	215.798	0.068	-0.106
-70.465	-200.000	0.013	-0.082
-69.451	-200.000	0.063	-0.315
-68.436	-69.499	-0.258	-0.097
-67.422	186.741	0.158	-0.231
-66.407	239.349	-0.032	0.052
-65.392	-200.000	0.032	0.221
-64.378	342.650	-0.065	0.124
-63.363	230.367	0.118	0.190
-62.349	800.000	-0.057	-0.205
-61.334	87.060	-0.847	-0.919
-60.319	80.836	0.568	0.602
-59.305	-200.000	-0.127	-1.220
-58.290	194.155	0.738	1.097
-57.276	800.000	0.486	1.495
-56.261	-200.000	105.991	586.311
-55.246	531.013	1456.873	3380.445
-54.232	185.080	2639.034	3842.981
-53.217	113.392	2141.152	2550.535
-52.203	41.643	1592.488	1415.698
-51.188	33.724	1330.796	1135.851
-50.173	30.552	1289.469	1082.107
-49.159	53.649	1342.219	1264.204
-48.144	54.445	1358.024	1283.768
-47.130	33.570	1314.067	1120.485
-46.115	30.342	1295.959	1086.153
-45.100	30.125	1291.368	1080.992
-44.086	30.019	1289.040	1078.384
-43.071	29.986	1286.336	1075.889
-42.057	29.945	1284.662	1074.209
-41.042	29.991	1283.383	1073.361
-40.027	29.974	1281.900	1071.983
-39.013	29.940	1279.958	1070.116
-37.998	30.076	1277.577	1068.869
-36.984	30.098	1276.094	1067.714
-35.969	30.093	1274.262	1066.107
-34.954	30.131	1272.479	1064.791
-33.940	30.175	1271.148	1063.892
-32.925	30.137	1270.529	1063.112
-31.911	30.113	1268.995	1061.649
-30.896	30.158	1267.274	1060.424
-29.881	30.287	1265.805	1059.887
-28.867	30.202	1264.656	1058.404
-27.852	30.183	1262.998	1056.864
-26.838	30.196	1261.856	1055.940
-25.823	30.128	1260.431	1054.317
-24.809	30.058	1259.400	1053.018
-23.794	30.224	1257.633	1052.440
-22.779	30.174	1256.586	1051.238
-21.765	30.172	1254.941	1049.810
-20.750	30.169	1253.995	1048.957
-19.736	30.157	1252.364	1047.482
-18.721	30.128	1251.328	1046.412
-17.706	30.021	1250.484	1045.064
-16.692	30.129	1248.935	1044.336
-15.677	30.020	1248.140	1043.016
-14.663	30.088	1247.109	1042.496
-13.648	29.976	1246.351	1041.190
-12.633	30.018	1245.070	1040.313
-11.619	30.066	1244.140	1039.763
-10.604	29.990	1243.300	1038.594
-9.590	30.062	1242.250	1038.080
-8.575	30.003	1241.045	1036.700
-7.560	30.106	1240.118	1036.462
-6.546	29.973	1239.583	1035.231
-5.531	29.965	1238.941	1034.608
-4.517	30.024	1237.946	1034.065
-3.502	30.035	1237.399	1033.629
-2.487	30.044	1236.821	1033.156
-1.473	30.092	1231.758	1029.151
-0.458	28.443	1216.962	1007.691
0.556	26.675	1199.345	970.063
1.571	22.657	1204.184	952.241
2.586	21.464	1218.182	956.705
3.600	21.145	1206.361	945.613
4.615	16.150	1135.730	864.627
5.629	7.821	1062.726	768.872
6.644	4.030	1043.885	737.151
7.659	3.770	1041.046	733.849
8.673	3.533	1039.621	731.656
9.688	3.598	1038.478	731.092
10.702	4.009	1037.049	731.966
11.717	9.312	1043.739	761.803
12.731	17.806	1056.083	811.303
13.746	22.928	1061.686	839.955
14.761	23.691	1062.766	844.365
15.775	23.202	1061.183	840.711
16.790	22.443	1059.795	835.934
17.804	21.918	1058.725	832.529
18.819	21.803	1057.985	831.328
19.834	22.061	1056.946	831.657
20.848	22.084	1056.780	831.562
21.863	21.863	1056.303	830.067
22.877	21.665	1055.506	828.432
23.892	21.718	1054.569	827.876
24.907	21.510	1053.918	826.309
25.921	21.479	1052.696	825.129
26.936	21.494	1051.529	824.214
27.950	21.433	1049.933	822.602
28.965	21.587	1048.495	822.124
29.980	21.658	1047.382	821.513
30.994	21.954	1046.337	822.010
32.009	21.779	1045.965	820.822
33.023	21.795	1044.842	819.942
34.038	21.756	1043.602	818.720
35.053	21.587	1042.615	817.083
36.067	21.502	1041.756	815.941
37.082	21.685	1041.020	816.145
38.096	21.750	1040.410	815.896
39.111	21.671	1040.107	815.220
40.126	21.570	1038.285	813.248
41.140	21.206	1036.846	810.362
42.155	21.041	1035.400	808.395
43.169	20.930	1034.298	806.950
44.184	20.993	1033.452	806.511
45.199	20.899	1032.818	805.510
46.213	21.251	1031.809	806.276
47.228	21.640	1031.303	807.604
48.242	21.661	1030.724	807.173
49.257	21.655	1029.940	806.461
50.271	21.788	1029.260	806.472
51.286	21.925	1028.720	806.603
52.301	21.811	1027.433	805.000
53.315	21.816	1026.061	803.878
54.330	21.616	1025.065	802.109
55.344	21.375	1024.435	800.445
56.359	21.313	1023.136	799.076
57.374	21.299	1022.372	798.342
58.388	21.151	1021.633	797.020
59.403	21.116	1020.352	795.791
60.417	20.975	1020.160	794.927
61.432	21.020	1019.355	794.435
62.447	20.835	1018.504	792.857
63.461	20.875	1017.584	792.255
64.476	20.670	1016.919	790.735
65.490	20.663	1015.799	789.761
66.505	20.813	1015.627	790.238
67.520	20.971	1014.647	790.123
68.534	20.814	1013.857	788.727
69.549	20.700	1013.041	787.506
70.563	20.473	1012.422	785.931
71.578	20.248	1011.401	784.051
72.593	20.241	1010.034	782.891
73.607	20.259	1009.786	782.708
74.622	20.401	1009.249	782.863
75.636	20.425	1008.627	782.421
76.651	20.515	1007.629	781.980
77.666	20.615	1007.258	782.074
78.680	20.474	1006.609	780.869
79.695	20.661	1005.902	781.090
80.709	20.715	1005.444	780.907
81.724	20.874	1004.726	780.994
82.739	20.928	1004.782	781.210
83.753	21.517	1004.619	783.651
84.768	22.132	1003.143	785.179
85.782	22.294	1002.882	785.631
86.797	22.104	1001.989	784.012
87.812	21.775	1000.754	781.510
88.826	21.851	999.918	781.130
89.841	22.024	999.044	781.146
90.855	21.995	998.085	780.199
91.870	22.195	997.328	780.425
92.884	22.047	996.581	779.114
93.899	21.959	995.312	777.663
94.914	22.094	994.827	777.815
95.928	21.908	994.314	776.521
96.943	21.749	992.992	774.718
97.957	21.784	991.614	773.729
98.972	21.822	991.168	773.479
99.987	21.913	990.468	773.266
101.001	21.786	989.621	771.977
102.016	21.665	988.558	770.548
103.030	22.006	987.541	771.182
104.045	21.935	986.868	770.277
105.060	21.574	986.317	768.198
106.074	21.344	985.098	766.173
107.089	21.185	983.957	764.519
108.103	20.898	982.675	762.200
109.118	20.820	981.391	760.798
110.133	20.751	980.418	759.674
111.147	20.590	979.364	758.089
112.162	20.791	978.641	758.337
113.176	21.055	978.366	759.207
114.191	21.031	977.768	758.570
115.206	20.852	977.504	757.520
116.220	20.826	976.403	756.486
117.235	20.865	975.517	755.904
118.249	20.727	974.219	754.232
119.264	20.537	973.710	752.951
120.279	20.520	972.902	752.184
121.293	20.464	971.871	751.078
122.308	20.338	970.996	749.789
123.322	20.401	969.518	748.856
124.337	20.305	968.785	747.810
125.352	20.247	967.908	746.814
126.366	20.445	966.815	746.758
127.381	20.515	966.081	746.424
128.395	20.637	965.120	746.143
129.410	20.587	964.671	745.512
130.424	20.819	964.036	745.952
131.439	20.953	963.170	745.789
132.454	21.028	962.730	745.702
133.468	21.065	961.731	745.020
134.483	21.004	961.019	744.143
135.497	21.175	959.883	743.923
136.512	21.137	959.182	743.153
137.527	20.980	958.663	742.021
138.541	21.176	957.531	741.911
139.556	21.144	957.097	741.370
140.570	21.321	956.884	741.895
141.585	21.741	956.206	743.081
142.600	21.794	955.094	742.377
143.614	21.783	955.026	742.213
144.629	22.021	954.189	742.503
145.643	21.872	952.747	740.685
146.658	21.579	951.692	738.566
147.673	21.510	949.888	736.807
148.687	21.242	949.384	735.224
149.702	21.228	947.991	734.023
150.716	20.989	947.540	732.605
151.731	21.119	946.975	732.647
152.746	21.198	946.258	732.359
153.760	21.423	945.639	732.759
154.775	21.436	945.289	732.477
155.789	21.490	944.431	731.972
156.804	21.414	943.961	731.226
157.819	21.640	943.062	731.409
158.833	21.822	942.539	731.697
159.848	21.942	941.899	731.638
160.862	21.669	940.559	729.395
161.877	21.254	938.854	726.284
162.892	20.979	937.690	724.178
163.906	20.930	936.506	722.996
164.921	21.034	935.802	722.818
165.935	21.177	935.320	722.976
166.950	21.261	934.713	722.788
167.964	21.161	933.863	721.653
168.979	21.071	932.601	720.241
169.994	21.059	931.659	719.402
171.008	21.397	930.854	720.111
172.023	21.607	930.331	720.506
173.037	21.861	930.330	721.485
174.052	21.492	929.229	719.050
175.067	21.180	928.217	716.924
176.081	20.721	927.501	714.425
177.096	20.728	926.955	713.971
178.110	20.761	926.716	713.856
179.125	20.943	925.852	713.876
180.140	21.136	925.409	714.260
181.154	21.416	925.294	715.252
182.169	21.617	925.227	715.960
183.183	21.525	924.617	715.046
184.198	21.548	923.498	714.213
185.213	21.432	922.914	713.225
186.227	21.644	922.314	713.562
187.242	21.855	921.686	713.874
188.256	22.004	921.067	713.937
189.271	21.881	920.398	712.853
190.286	21.498	919.178	710.292
191.300	20.926	918.048	707.035
192.315	20.718	917.426	705.650
193.329	20.857	917.064	705.874
194.344	21.086	916.448	706.264
195.359	21.217	915.929	706.330
196.373	21.289	916.020	706.631
197.388	21.590	915.825	707.633
198.402	21.919	915.299	708.496
199.417	22.031	915.105	708.734
200.432	22.261	914.446	709.087
201.446	22.354	913.939	709.006
202.461	22.224	913.588	708.147
203.475	22.026	912.644	706.558
204.490	21.842	910.788	704.320
205.504	21.528	910.717	702.941
206.519	21.559	909.887	702.362
207.534	21.561	909.036	701.649
208.548	21.670	908.287	701.445
209.563	21.680	907.917	701.141
210.577	21.652	907.377	700.549
211.592	22.070	906.574	701.535
212.607	22.307	906.122	702.069
213.621	21.985	905.754	700.439
214.636	21.964	904.905	699.638
215.650	21.989	903.852	698.858
216.665	21.964	903.367	698.322
217.680	22.075	903.453	698.771
218.694	22.189	902.625	698.521
219.709	22.047	901.865	697.308
220.723	22.120	900.852	696.753
221.738	21.701	900.628	694.857
222.753	21.887	899.505	694.662
223.767	21.944	899.744	695.012
224.782	22.239	899.029	695.567
225.796	22.453	898.279	695.772
226.811	22.141	897.713	694.037
227.826	21.698	896.751	691.485
228.840	21.662	895.627	690.417
229.855	21.779	894.923	690.273
230.869	21.694	894.280	689.379
231.884	21.582	893.770	688.487
232.899	21.527	892.457	687.197
233.913	21.358	892.412	686.437
234.928	21.303	891.560	685.505
235.942	21.227	890.711	684.497
236.957	21.150	890.421	683.910
237.972	21.327	889.734	684.015
238.986	21.294	889.309	683.497
240.001	21.207	888.814	682.716
241.015	21.381	888.319	682.956
242.030	21.631	887.772	683.451
243.045	21.726	887.409	683.482
244.059	21.657	886.746	682.644
245.074	21.811	886.446	682.952
246.088	21.919	885.807	682.819
247.103	22.236	885.222	683.539
248.117	22.420	885.440	684.362
249.132	22.852	885.173	685.775
250.147	23.191	884.694	686.658
251.161	23.272	883.900	686.293
252.176	23.190	883.624	685.700
253.190	23.183	883.229	685.306
254.205	23.236	882.780	685.103
255.220	23.016	882.039	683.617
256.234	22.933	881.023	682.448
257.249	22.952	880.628	682.155
258.263	22.876	879.644	681.041
259.278	22.940	878.971	680.707
260.293	23.052	878.538	680.740
261.307	23.043	878.142	680.341
262.322	23.239	877.453	680.499
263.336	23.265	876.530	679.821
264.351	22.886	876.320	678.145
265.366	23.040	875.434	677.989
266.380	23.089	875.015	677.792
267.395	23.036	874.244	676.932
268.409	22.893	873.162	675.489
269.424	22.948	872.305	674.976
270.439	22.907	871.406	674.063
271.453	22.647	870.947	672.657
272.468	22.641	870.654	672.349
273.482	22.625	869.888	671.637
274.497	22.736	869.078	671.375
275.512	22.682	868.809	670.902
276.526	22.615	868.844	670.614
277.541	23.015	867.917	671.360
278.555	23.005	867.791	671.165
279.570	23.145	867.573	671.466
280.585	23.342	866.089	671.007
281.599	23.028	865.393	669.219
282.614	22.583	864.532	666.809
283.628	22.610	863.828	666.311
284.643	22.779	862.974	666.230
285.657	22.625	862.626	665.323
286.672	22.702	862.033	665.095
287.687	22.834	861.414	665.059
288.701	22.835	861.025	664.701
289.716	22.845	860.242	664.075
290.730	22.942	860.112	664.281
291.745	22.823	859.489	663.293
292.760	22.973	859.293	663.649
293.774	23.201	858.784	664.052
294.789	23.266	857.997	663.630
295.803	22.917	856.809	661.343
296.818	22.738	856.317	660.238
297.833	22.613	855.339	658.957
298.847	22.948	854.784	659.723
299.862	22.880	854.655	659.310
300.876	22.963	854.367	659.340
301.891	23.420	853.716	660.483
302.906	23.406	853.651	660.322
303.920	23.593	853.381	660.750
304.935	23.824	852.512	660.876
305.949	23.414	851.895	658.817
306.964	23.282	850.717	657.359
307.979	23.122	850.515	656.551
308.993	23.267	850.246	656.822
310.008	23.358	849.440	656.479
311.022	23.163	848.982	655.344
312.037	23.047	848.451	654.446
313.052	22.829	847.453	652.815
314.066	22.584	846.465	651.088
315.081	22.573	846.346	650.900
316.095	22.646	845.545	650.496
317.110	22.675	844.917	650.064
318.125	22.467	844.445	648.876
319.139	22.308	844.031	647.915
320.154	22.273	843.763	647.523
321.168	22.639	842.837	648.098
322.183	22.813	842.543	648.454
323.197	22.708	842.126	647.690
324.212	22.766	841.120	647.074
325.227	22.770	840.491	646.548
326.241	22.581	840.251	645.613
327.256	22.592	839.419	644.958
328.270	22.565	838.945	644.438
329.285	22.580	838.323	643.956
330.300	22.546	837.258	642.959
331.314	22.620	837.378	643.264
332.329	22.941	836.835	643.961
333.343	22.999	836.787	644.075
334.358	23.111	836.431	644.154
335.373	23.142	835.905	643.806
336.387	23.218	835.734	643.890
337.402	23.301	835.920	644.280
338.416	23.644	835.541	645.176
339.431	23.668	835.660	645.301
340.446	23.881	834.975	645.488
341.460	23.707	834.918	644.755
342.475	23.958	834.620	645.376
343.489	24.098	834.268	645.554
344.504	24.148	833.451	645.047
345.519	24.191	833.367	645.082
346.533	24.016	832.450	643.681
347.548	23.780	831.494	642.032
348.562	23.214	830.958	639.516
349.577	23.180	830.048	638.637
350.592	23.088	829.417	637.763
351.606	23.059	828.675	637.035
352.621	23.120	827.673	636.426
353.635	23.198	827.681	636.658
354.650	23.245	826.808	636.097
355.665	23.140	826.513	635.436
356.679	23.568	825.521	636.153
357.694	23.442	824.878	635.151
358.708	23.416	824.155	634.444
359.723	23.426	823.769	634.126
360.738	23.467	823.156	633.745
361.752	23.543	822.825	633.704
362.767	23.839	822.468	634.433
363.781	24.024	822.316	634.917
364.796	24.102	822.001	634.898
365.810	24.291	821.635	635.231
366.825	24.212	821.744	634.977
367.840	24.182	820.675	633.988
368.854	23.890	819.855	632.260
369.869	23.843	819.339	631.641
370.883	24.030	818.968	631.963
371.898	24.091	818.484	631.751
372.913	24.142	818.520	631.902
373.927	23.923	817.846	630.550
374.942	23.993	817.226	630.264
375.956	24.263	816.852	630.874
376.971	24.272	816.649	630.696
377.986	24.477	816.372	631.149
379.000	24.271	815.887	629.991
380.015	24.298	815.404	629.657
381.029	24.338	814.298	628.888
382.044	24.446	814.248	629.176
383.059	24.480	813.636	628.767
384.073	24.237	812.761	627.178
385.088	23.817	812.169	625.190
386.102	23.653	810.848	623.544
387.117	23.626	810.852	623.395
388.132	23.680	809.579	622.552
389.146	23.662	809.601	622.449
390.161	24.053	809.573	623.744
391.175	24.352	808.580	623.970
392.190	24.025	808.147	622.435
393.205	23.718	807.610	620.893
394.219	23.469	807.259	619.700
395.234	23.421	806.660	619.017
396.248	23.560	805.980	618.925
397.263	23.534	805.508	618.416
398.278	23.383	804.783	617.279
399.292	23.151	804.726	616.374
400.307	23.196	803.891	615.837
401.321	23.370	803.490	616.079
402.336	23.567	803.324	616.583
403.350	23.734	803.295	617.087
404.365	24.300	803.110	618.854
405.380	24.347	802.850	618.761
406.394	24.481	802.643	619.012
407.409	24.630	802.108	619.062
408.423	24.694	801.891	619.063
409.438	24.745	801.270	618.702
410.453	24.728	801.137	618.487
411.467	24.788	800.407	618.076
412.482	24.840	799.931	617.834
413.496	25.029	799.608	618.183
414.511	24.854	799.339	617.317
415.526	24.750	798.828	616.509
416.540	24.569	798.217	615.357
417.555	24.476	797.861	614.708
418.569	24.663	797.790	615.243
419.584	24.802	796.577	614.731
420.599	24.730	796.366	614.266
421.613	163.794	1370.908	1796.665
422.628	142.173	1454.625	1796.785
