DTS Sentinel unit serial number:	SN413079Multiplexer serial number:	ORYXHardware model number:	OX4-SRSoftware version number:	ORYX F/W v4.00 Oryx Data Collector v3.7.2.0data status	okinstallation	princeton_trtdifferential loss correction	single-endedforward channel	channel 1reverse channel	N/Adate	2019/09/12time	08:16:11forward acquisition time	60.00reverse acquisition time	0.00gamma	496.2192k internal	0.2313k external	0.2313temperature offset calibration	1.0041default loss term (dB/km)	0.3790temperature slope calibration	1.0000multiplexer offset coefficient	1.0000multiplexer slope coefficient	1.0000fibre end	0.00T internal ref (°C)	33.37T ext. ref 1 (°C)	1.67T ext. ref 2 (°C)	30.07length (m)	temperature (°C)	Stokes	anti-Stokes-747.200	800.000	-0.144	0.466
-746.185	-137.288	0.279	0.032
-745.171	-73.035	-0.082	-0.030
-744.156	88.844	-0.201	-0.227
-743.142	345.560	0.178	-0.355
-742.127	-200.000	0.009	0.326
-741.112	-136.215	0.233	0.028
-740.098	120.719	0.197	0.248
-739.083	-134.651	0.221	0.027
-738.069	-197.034	-0.226	-0.001
-737.054	-64.606	0.114	-0.047
-736.039	151.434	0.150	-0.207
-735.025	-69.972	0.211	0.081
-734.010	-123.940	-0.189	-0.030
-732.996	240.653	-0.193	-0.326
-731.981	151.966	0.094	0.130
-730.966	-10.511	0.101	0.068
-729.952	-200.000	-0.000	-0.248
-728.937	-75.218	-0.226	0.082
-727.923	-96.717	-0.259	0.069
-726.908	103.028	-0.053	-0.063
-725.894	324.546	0.069	0.134
-724.879	115.270	0.019	-0.023
-723.864	-64.495	-0.315	0.130
-722.850	587.273	-0.021	-0.053
-721.835	172.041	-0.139	0.203
-720.821	66.362	-0.270	0.278
-719.806	-6.150	0.192	0.133
-718.791	-200.000	0.020	0.115
-717.777	-6.167	0.230	0.159
-716.762	-200.000	0.024	-0.322
-715.748	292.063	-0.202	-0.374
-714.733	-113.093	-0.270	0.054
-713.718	-157.994	-0.191	0.011
-712.704	86.894	-0.305	0.341
-711.689	103.902	-0.153	-0.183
-710.675	380.545	0.125	-0.260
-709.660	41.453	0.100	0.091
-708.645	-16.142	0.245	-0.158
-707.631	-103.682	0.301	0.071
-706.616	154.326	-0.043	-0.060
-705.602	-153.300	0.132	0.009
-704.587	-200.000	-0.004	-0.145
-703.572	457.026	-0.062	-0.139
-702.558	292.483	0.100	-0.185
-701.543	123.812	0.253	0.322
-700.529	800.000	0.082	0.260
-699.514	-90.505	0.284	0.083
-698.499	-4.663	0.137	0.096
-697.485	-88.926	-0.171	-0.051
-696.470	800.000	0.033	-0.112
-695.456	384.229	0.021	0.044
-694.441	444.232	-0.057	0.128
-693.426	800.000	0.046	-0.187
-692.412	44.293	0.014	-0.013
-691.397	-200.000	0.024	-0.116
-690.383	41.410	-0.242	0.221
-689.368	175.148	0.100	0.147
-688.354	26.344	0.204	0.172
-687.339	13.569	0.119	-0.093
-686.324	15.332	0.130	-0.103
-685.310	27.280	-0.267	0.227
-684.295	-200.000	0.009	-0.133
-683.281	-94.968	-0.078	-0.021
-682.266	62.165	0.034	-0.034
-681.251	-200.000	0.015	-0.268
-680.237	-20.538	0.146	-0.091
-679.222	800.000	-0.080	0.249
-678.208	-47.349	0.058	-0.029
-677.193	240.141	-0.159	-0.268
-676.178	800.000	-0.084	-0.245
-675.164	-200.000	-0.023	-0.394
-674.149	-200.000	-0.008	-0.043
-673.135	170.128	0.204	-0.295
-672.120	108.541	-0.184	0.222
-671.105	-200.000	-0.002	0.220
-670.091	310.957	-0.077	-0.146
-669.076	-48.306	0.143	-0.070
-668.062	800.000	-0.070	0.251
-667.047	-114.191	-0.248	0.049
-666.032	-200.000	0.033	-0.287
-665.018	19.247	-0.254	-0.206
-664.003	189.092	0.179	-0.271
-662.989	-105.089	0.257	-0.060
-661.974	800.000	0.095	0.289
-660.959	1.604	-0.247	0.179
-659.945	-158.742	-0.210	0.012
-658.930	-23.311	-0.120	-0.073
-657.916	-200.000	0.029	-0.168
-656.901	150.873	0.080	-0.110
-655.886	-9.121	-0.253	0.171
-654.872	-120.390	0.070	-0.012
-653.857	584.371	-0.050	-0.125
-652.843	-200.000	0.008	0.234
-651.828	-111.009	-0.269	0.056
-650.814	85.880	-0.210	-0.233
-649.799	800.000	0.028	-0.100
-648.784	86.137	0.094	0.104
-647.770	79.929	0.180	-0.195
-646.755	308.097	-0.086	0.161
-645.741	65.580	-0.087	-0.089
-644.726	800.000	-0.085	-0.253
-643.711	152.388	-0.026	0.036
-642.697	432.032	0.066	0.146
-641.682	381.985	0.199	-0.414
-640.668	3.711	0.441	0.325
-639.653	255.295	-0.112	0.194
-638.638	-200.000	-0.005	-0.267
-637.624	527.762	0.127	-0.302
-636.609	-34.322	0.054	-0.030
-635.595	152.695	0.117	-0.162
-634.580	-22.316	0.176	-0.107
-633.565	-23.560	0.303	0.183
-632.551	-33.967	0.331	-0.184
-631.536	-200.000	0.010	-0.189
-630.522	-61.067	-0.181	-0.077
-629.507	800.000	0.033	0.132
-628.492	485.563	-0.077	-0.178
-627.478	-102.839	-0.274	-0.066
-626.463	-200.000	-0.023	0.283
-625.449	-90.919	-0.381	-0.111
-624.434	-131.184	0.093	-0.012
-623.419	91.176	0.235	0.266
-622.405	800.000	-0.047	0.156
-621.390	-67.594	-0.225	0.089
-620.376	-19.449	-0.570	0.357
-619.361	-200.000	-0.019	0.244
-618.346	-106.114	0.301	0.068
-617.332	468.463	0.196	-0.443
-616.317	103.894	-0.166	0.197
-615.303	235.090	0.053	-0.088
-614.288	-105.060	0.082	-0.019
-613.273	-61.610	0.143	0.061
-612.259	-85.466	-0.055	-0.017
-611.244	-113.262	-0.109	0.022
-610.230	-97.537	-0.185	0.048
-609.215	-161.287	0.263	-0.014
-608.201	-115.534	-0.192	0.036
-607.186	-200.000	-0.007	0.091
-606.171	22.877	-0.118	-0.097
-605.157	-200.000	-0.039	0.281
-604.142	20.777	0.095	-0.077
-603.128	196.208	0.090	0.138
-602.113	-85.830	-0.093	0.029
-601.098	62.408	0.069	0.070
-600.084	-200.000	0.018	0.104
-599.069	-199.112	-0.270	-0.001
-598.055	45.598	0.208	0.194
-597.040	-181.060	0.398	0.008
-596.025	-82.573	0.387	-0.126
-595.011	-200.000	0.035	-0.297
-593.996	563.557	0.108	0.263
-592.982	-5.614	0.258	0.178
-591.967	-200.000	-0.000	0.192
-590.952	615.130	0.170	0.429
-589.938	800.000	-0.130	-0.399
-588.923	-152.223	-0.212	0.015
-587.909	-143.069	0.169	-0.016
-586.894	800.000	0.070	0.252
-585.879	101.674	-0.107	-0.125
-584.865	-29.183	-0.223	0.129
-583.850	0.195	0.194	0.140
-582.836	-200.000	-0.036	-0.275
-581.821	-114.724	0.177	-0.034
-580.806	800.000	0.025	0.082
-579.792	246.479	-0.193	-0.328
-578.777	-200.000	-0.057	-0.374
-577.763	-200.000	0.026	-0.152
-576.748	-81.733	-0.286	-0.095
-575.733	168.505	-0.114	-0.164
-574.719	-53.008	-0.149	-0.069
-573.704	280.552	-0.037	0.066
-572.690	75.842	0.160	-0.170
-571.675	224.246	0.185	-0.302
-570.661	-198.805	0.343	-0.002
-569.646	-79.231	-0.071	-0.024
-568.631	-200.000	0.077	0.344
-567.617	-3.361	0.097	-0.068
-566.602	-58.390	-0.303	-0.133
-565.588	800.000	0.110	-0.477
-564.573	-3.688	-0.439	-0.307
-563.558	-98.238	-0.193	0.050
-562.544	-107.919	-0.094	0.021
-561.529	-200.000	0.049	0.274
-560.515	-200.000	-0.070	-0.339
-559.500	-89.815	0.278	-0.082
-558.485	319.438	0.103	-0.197
-557.471	110.638	-0.165	-0.199
-556.456	159.984	-0.260	-0.365
-555.442	90.602	-0.102	0.115
-554.427	78.375	-0.246	-0.264
-553.412	-200.000	-0.031	0.178
-552.398	-27.349	-0.028	0.016
-551.383	-74.406	-0.215	0.078
-550.369	-32.460	0.283	0.159
-549.354	3.219	-0.080	-0.059
-548.339	-68.641	0.158	0.061
-547.325	800.000	0.037	0.123
-546.310	7.841	-0.138	0.104
-545.296	-104.673	-0.119	0.028
-544.281	-4.049	-0.224	-0.157
-543.266	194.815	0.296	-0.452
-542.252	-81.337	0.299	0.099
-541.237	38.663	-0.195	0.175
-540.223	332.820	0.049	0.095
-539.208	294.782	0.122	-0.225
-538.193	423.921	-0.117	-0.252
-537.179	239.852	-0.047	0.078
-536.164	50.694	0.142	0.135
-535.150	800.000	0.064	0.203
-534.135	148.610	0.083	0.113
-533.121	800.000	0.030	0.094
-532.106	800.000	0.046	-0.134
-531.091	-97.389	0.069	-0.018
-530.077	-200.000	0.027	-0.127
-529.062	142.657	-0.167	-0.224
-528.048	138.713	-0.070	-0.092
-527.033	145.033	-0.157	-0.212
-526.018	-200.000	-0.011	-0.126
-525.004	63.625	0.263	0.265
-523.989	-67.810	0.225	0.088
-522.975	250.074	-0.076	0.130
-521.960	-16.322	0.349	0.223
-520.945	-147.268	0.165	0.014
-519.931	16.287	0.284	0.225
-518.916	371.639	-0.047	0.096
-517.902	1.892	0.231	0.167
-516.887	206.563	-0.066	0.104
-515.872	202.109	-0.248	-0.385
-514.858	263.062	-0.059	0.103
-513.843	457.450	-0.196	0.437
-512.829	21.150	0.197	0.161
-511.814	-159.782	-0.091	-0.005
-510.799	169.767	-0.171	-0.245
-509.785	-3.839	0.185	0.129
-508.770	485.840	-0.041	-0.093
-507.756	-168.991	-0.201	-0.008
-506.741	-113.218	0.040	-0.008
-505.726	-56.744	0.374	0.166
-504.712	-95.926	-0.627	-0.168
-503.697	7.615	0.104	-0.078
-502.683	702.881	0.093	-0.246
-501.668	354.086	-0.127	-0.254
-500.653	-137.791	-0.021	0.002
-499.639	-119.527	0.160	0.028
-498.624	-149.669	0.047	-0.004
-497.610	164.263	-0.091	-0.128
-496.595	194.907	-0.144	0.219
-495.581	136.600	-0.083	-0.109
-494.566	54.428	-0.170	-0.164
-493.551	-200.000	-0.010	0.063
-492.537	800.000	0.036	-0.128
-491.522	450.937	-0.069	0.152
-490.508	205.830	0.069	0.108
-489.493	-9.502	0.073	0.049
-488.478	388.252	-0.064	0.134
-487.464	-200.000	0.004	0.069
-486.449	-92.413	0.338	0.095
-485.435	46.175	0.074	-0.069
-484.420	-137.892	-0.087	0.010
-483.405	411.987	0.076	0.162
-482.391	-110.648	-0.274	-0.057
-481.376	83.861	-0.004	-0.004
-480.362	-122.176	-0.360	-0.059
-479.347	58.847	-0.116	-0.114
-478.332	-59.327	-0.244	-0.106
-477.318	-200.000	0.007	-0.185
-476.303	800.000	0.057	-0.159
-475.289	-21.629	0.281	-0.172
-474.274	229.779	-0.070	-0.115
-473.259	800.000	0.071	0.237
-472.245	-95.195	0.187	0.050
-471.230	170.935	0.061	0.088
-470.216	-120.772	-0.300	0.051
-469.201	476.035	0.060	0.137
-468.186	35.529	0.073	0.065
-467.172	80.042	0.068	-0.073
-466.157	800.000	-0.031	0.114
-465.143	171.780	0.233	-0.335
-464.128	-101.346	-0.176	0.043
-463.113	-80.858	-0.212	0.071
-462.099	-200.000	-0.033	-0.321
-461.084	-62.406	-0.256	-0.107
-460.070	-200.000	-0.031	-0.168
-459.055	-200.000	-0.038	-0.350
-458.040	-126.302	0.117	0.018
-457.026	7.900	0.085	-0.064
-456.011	-22.834	-0.088	0.053
-454.997	279.260	-0.100	0.179
-453.982	-45.679	0.276	-0.137
-452.968	-116.478	0.062	0.011
-451.953	634.531	-0.056	0.142
-450.938	-153.267	-0.469	0.033
-449.924	-145.231	-0.141	-0.013
-448.909	-48.792	0.177	-0.085
-447.895	-145.726	-0.148	0.013
-446.880	537.549	-0.040	0.096
-445.865	-200.000	-0.048	-0.230
-444.851	-200.000	-0.013	0.113
-443.836	-200.000	0.035	0.254
-442.822	198.985	-0.154	0.236
-441.807	-64.984	-0.209	0.084
-440.792	-93.613	-0.136	-0.038
-439.778	385.335	0.115	-0.239
-438.763	-62.570	0.210	-0.087
-437.749	42.631	0.134	0.122
-436.734	-159.564	0.229	-0.013
-435.719	-85.563	0.030	-0.009
-434.705	-200.000	-0.060	0.296
-433.690	-84.071	0.275	0.088
-432.676	8.141	0.200	0.150
-431.661	-200.000	-0.027	0.322
-430.646	800.000	0.062	-0.246
-429.632	-133.771	-0.212	-0.026
-428.617	-172.683	0.207	-0.007
-427.603	-117.317	-0.269	0.049
-426.588	-200.000	0.003	0.146
-425.573	233.044	0.101	-0.167
-424.559	298.654	-0.099	0.182
-423.544	602.964	-0.045	-0.112
-422.530	-200.000	0.030	-0.174
-421.515	-200.000	0.045	-0.278
-420.500	-189.060	0.150	0.002
-419.486	160.063	0.152	0.211
-418.471	607.405	0.045	0.112
-417.457	43.274	-0.137	-0.126
-416.442	-34.160	0.143	-0.079
-415.428	-4.166	-0.275	0.190
-414.413	-84.743	-0.075	0.024
-413.398	171.240	-0.204	-0.293
-412.384	-81.986	-0.078	-0.026
-411.369	-150.010	-0.202	0.016
-410.355	-68.847	0.264	-0.102
-409.340	800.000	-0.112	-0.483
-408.325	-43.050	-0.117	0.059
-407.311	-138.934	-0.356	-0.039
-406.296	1.771	0.135	0.097
-405.282	800.000	0.137	-0.497
-404.267	-79.535	0.301	0.102
-403.252	348.532	-0.075	0.149
-402.238	-98.037	0.241	0.062
-401.223	94.576	-0.093	0.106
-400.209	-135.534	0.242	0.029
-399.194	26.136	-0.189	0.158
-398.179	800.000	-0.059	0.170
-397.165	-47.578	-0.211	-0.102
-396.150	8.617	0.122	-0.092
-395.136	56.528	-0.139	0.135
-394.121	62.379	0.091	0.091
-393.106	173.294	-0.044	0.064
-392.092	622.899	-0.053	0.134
-391.077	584.337	-0.138	0.340
-390.063	-148.414	-0.085	-0.007
-389.048	-7.019	-0.264	0.179
-388.033	-94.024	-0.172	0.047
-387.019	-163.195	0.145	0.007
-386.004	-79.346	0.127	0.043
-384.990	291.218	0.135	0.246
-383.975	92.302	-0.082	-0.093
-382.960	3.086	-0.298	-0.217
-381.946	670.922	0.105	0.273
-380.931	-83.540	0.110	-0.035
-379.917	-51.733	0.213	-0.099
-378.902	-200.000	0.003	-0.262
-377.888	286.217	-0.105	0.189
-376.873	298.703	0.024	0.044
-375.858	-5.378	-0.118	0.081
-374.844	620.591	0.055	-0.137
-373.829	-90.422	0.225	-0.065
-372.815	-98.621	-0.261	0.067
-371.800	800.000	0.032	0.087
-370.785	800.000	-0.087	-0.240
-369.771	-91.744	-0.113	0.032
-368.756	-101.027	0.190	-0.046
-367.742	-108.921	-0.273	0.058
-366.727	-200.000	0.020	0.479
-365.712	800.000	0.024	0.069
-364.698	127.859	0.086	-0.110
-363.683	-43.562	0.191	-0.096
-362.669	80.175	0.200	-0.215
-361.654	56.467	0.228	0.222
-360.639	-200.000	-0.036	-0.199
-359.625	33.539	-0.140	-0.122
-358.610	27.085	-0.255	0.214
-357.596	185.009	-0.137	-0.202
-356.581	91.567	0.133	-0.149
-355.566	-61.127	0.192	0.081
-354.552	702.961	0.031	-0.082
-353.537	272.033	-0.051	0.089
-352.523	58.612	-0.163	-0.160
-351.508	10.143	-0.222	-0.169
-350.493	47.310	0.074	-0.069
-349.479	-14.790	0.099	0.064
-348.464	-130.561	-0.066	0.009
-347.450	24.897	-0.117	0.097
-346.435	-200.000	-0.015	0.367
-345.420	-24.343	0.117	-0.070
-344.406	-97.922	0.356	0.092
-343.391	800.000	-0.055	0.225
-342.377	800.000	0.006	-0.023
-341.362	-200.000	0.051	-0.244
-340.348	-200.000	-0.013	0.172
-339.333	-34.596	0.153	-0.084
-338.318	-200.000	0.051	0.302
-337.304	-200.000	0.017	0.193
-336.289	-200.000	-0.028	-0.131
-335.275	-77.760	-0.022	0.007
-334.260	-200.000	0.015	0.194
-333.245	787.568	-0.089	0.243
-332.231	249.990	0.108	-0.184
-331.216	128.817	-0.139	0.177
-330.202	-200.000	0.045	0.267
-329.187	-56.820	-0.223	0.098
-328.172	-168.390	0.267	0.010
-327.158	-164.823	-0.135	-0.006
-326.143	30.132	-0.256	0.218
-325.129	113.896	0.155	0.188
-324.114	744.716	-0.095	0.256
-323.099	-200.000	-0.006	0.236
-322.085	-153.345	-0.038	0.003
-321.070	-89.690	0.243	0.071
-320.056	4.040	-0.192	-0.140
-319.041	-104.638	-0.061	0.014
-318.026	131.183	-0.068	0.087
-317.012	177.401	0.098	-0.143
-315.997	-174.347	-0.278	-0.008
-314.983	108.745	0.250	-0.298
-313.968	800.000	0.071	0.284
-312.953	-37.675	-0.100	0.053
-311.939	25.719	0.194	0.161
-310.924	800.000	-0.061	0.198
-309.910	-137.141	-0.206	0.023
-308.895	800.000	-0.049	-0.187
-307.880	1.373	0.321	-0.230
-306.866	90.191	-0.132	0.147
-305.851	81.048	0.189	0.203
-304.837	344.947	-0.068	-0.134
-303.822	-19.754	0.077	0.047
-302.807	7.384	-0.338	0.251
-301.793	-78.595	0.073	0.025
-300.778	-95.145	0.129	-0.035
-299.764	46.366	-0.159	-0.147
-298.749	-90.753	-0.203	-0.058
-297.735	800.000	-0.067	0.221
-296.720	-200.000	0.028	-0.223
-295.705	-200.000	-0.040	-0.213
-294.691	-200.000	-0.007	0.035
-293.676	333.806	-0.103	0.199
-292.662	-34.697	-0.108	-0.059
-291.647	800.000	-0.045	0.177
-290.632	-200.000	0.004	-0.140
-289.618	-91.154	0.242	0.069
-288.603	-57.614	0.192	-0.084
-287.589	358.295	-0.088	0.175
-286.574	-2.188	0.123	-0.086
-285.559	-161.424	0.393	-0.020
-284.545	-200.000	0.018	-0.251
-283.530	-142.663	0.395	0.038
-282.516	800.000	-0.058	-0.228
-281.501	-154.452	0.300	-0.020
-280.486	-40.992	-0.085	0.044
-279.472	-83.079	0.246	-0.079
-278.457	13.251	0.211	-0.163
-277.443	296.471	0.062	-0.114
-276.428	-162.758	-0.357	0.017
-275.413	65.820	-0.046	-0.046
-274.399	-200.000	-0.041	-0.217
-273.384	-200.000	0.009	0.041
-272.370	47.973	0.172	0.160
-271.355	-24.820	0.118	0.070
-270.340	371.280	0.094	0.190
-269.326	800.000	-0.054	-0.162
-268.311	-39.509	-0.155	0.081
-267.297	34.046	0.218	0.189
-266.282	-102.658	-0.189	-0.045
-265.267	800.000	-0.063	-0.231
-264.253	-72.868	-0.326	0.119
-263.238	-129.298	0.141	0.020
-262.224	-115.713	-0.317	-0.059
-261.209	85.137	-0.150	-0.164
-260.195	800.000	0.031	-0.093
-259.180	800.000	-0.068	0.236
-258.165	-200.000	-0.033	0.256
-257.151	137.026	0.031	0.041
-256.136	800.000	0.060	0.185
-255.122	-108.222	-0.219	-0.047
-254.107	179.750	-0.138	-0.202
-253.092	190.651	-0.205	-0.307
-252.078	65.133	-0.131	0.132
-251.063	321.062	-0.045	0.086
-250.049	46.545	0.138	0.128
-249.034	-93.090	0.195	-0.054
-248.019	-155.874	-0.051	-0.003
-247.005	13.946	-0.184	0.142
-245.990	87.118	-0.065	0.072
-244.976	175.805	-0.039	-0.057
-243.961	-53.689	-0.037	-0.017
-242.946	281.847	0.118	0.210
-241.932	-113.163	-0.222	-0.043
-240.917	-146.190	0.219	0.019
-239.903	225.892	-0.195	0.314
-238.888	66.288	-0.102	0.103
-237.873	40.038	-0.032	0.029
-236.859	102.414	0.107	-0.124
-235.844	800.000	-0.109	-0.318
-234.830	-84.626	0.081	-0.026
-233.815	800.000	0.040	0.115
-232.800	490.008	-0.156	-0.354
-231.786	121.829	-0.124	-0.154
-230.771	-33.739	-0.323	-0.177
-229.757	113.204	0.236	-0.284
-228.742	-110.378	0.213	-0.044
-227.727	252.191	-0.103	-0.175
-226.713	-200.000	-0.013	-0.106
-225.698	349.388	0.112	0.220
-224.684	163.765	0.148	-0.207
-223.669	-108.084	-0.058	-0.012
-222.655	-114.988	0.185	0.035
-221.640	-61.353	-0.231	-0.097
-220.625	131.594	0.145	-0.185
-219.611	800.000	-0.061	0.194
-218.596	2.286	0.206	0.148
-217.582	-200.000	0.005	0.201
-216.567	-110.720	0.254	-0.052
-215.552	-25.166	0.370	0.218
-214.538	281.286	-0.149	0.265
-213.523	-18.642	-0.095	-0.059
-212.509	-81.439	-0.301	0.099
-211.494	63.424	-0.132	0.131
-210.479	-35.873	0.296	-0.159
-209.465	52.864	-0.226	-0.215
-208.450	-162.577	0.246	0.012
-207.436	-200.000	-0.045	0.245
-206.421	-200.000	-0.021	0.240
-205.406	185.481	0.111	-0.163
-204.392	-51.302	0.219	0.102
-203.377	800.000	-0.065	0.263
-202.363	499.926	-0.033	-0.075
-201.348	-54.944	0.108	0.049
-200.333	-88.970	0.183	-0.054
-199.319	-26.010	-0.244	0.143
-198.304	-64.411	0.176	-0.071
-197.290	679.198	0.143	0.368
-196.275	-118.925	-0.032	0.006
-195.260	148.256	0.095	-0.128
-194.246	-189.133	0.251	0.003
-193.231	-200.000	0.042	-0.323
-192.217	175.841	-0.147	-0.212
-191.202	-27.756	-0.114	-0.066
-190.187	-200.000	-0.058	-0.265
-189.173	-200.000	0.012	0.104
-188.158	36.579	0.241	-0.211
-187.144	800.000	-0.016	0.055
-186.129	564.693	0.061	0.146
-185.114	-139.105	-0.161	0.017
-184.100	800.000	0.115	0.329
-183.085	-177.254	0.222	-0.005
-182.071	-50.512	-0.218	0.102
-181.056	683.884	0.076	-0.195
-180.042	-200.000	0.045	0.227
-179.027	-92.348	-0.346	0.097
-178.012	-56.346	0.318	-0.140
-176.998	403.398	0.057	-0.118
-175.983	754.347	-0.014	0.038
-174.969	594.298	0.176	0.431
-173.954	4.042	-0.129	0.094
-172.939	-128.069	0.229	0.033
-171.925	-200.000	-0.009	0.057
-170.910	219.854	-0.228	-0.362
-169.896	85.172	-0.005	-0.005
-168.881	217.080	-0.129	0.203
-167.866	-112.292	0.116	0.023
-166.852	8.528	-0.023	-0.017
-165.837	-55.428	0.445	0.198
-164.823	800.000	-0.080	-0.257
-163.808	96.178	-0.024	-0.028
-162.793	182.731	-0.186	-0.272
-161.779	-200.000	-0.034	0.245
-160.764	-51.096	0.058	0.027
-159.750	-93.476	-0.211	0.058
-158.735	16.349	0.183	-0.143
-157.720	239.980	-0.138	0.227
-156.706	-1.320	-0.265	-0.186
-155.691	56.403	-0.302	-0.291
-154.677	-200.000	-0.027	-0.180
-153.662	-200.000	0.028	-0.241
-152.647	762.108	-0.068	-0.182
-151.633	143.779	0.050	-0.066
-150.618	-98.239	0.314	0.080
-149.604	-200.000	-0.034	0.149
-148.589	-25.464	0.078	-0.046
-147.574	800.000	0.014	-0.060
-146.560	-86.527	-0.300	-0.091
-145.545	204.717	0.173	0.266
-144.531	185.794	0.025	-0.038
-143.516	800.000	-0.142	-0.458
-142.502	354.077	0.095	-0.187
-141.487	-95.562	-0.230	0.061
-140.472	-37.669	0.064	-0.034
-139.458	-97.681	-0.077	0.020
-138.443	-1.198	-0.189	0.132
-137.429	800.000	-0.037	-0.122
-136.414	397.523	-0.116	-0.240
-135.399	390.512	-0.057	0.116
-134.385	272.146	0.167	0.292
-133.370	-61.822	-0.172	-0.071
-132.356	154.849	0.294	-0.400
-131.341	800.000	-0.090	-0.278
-130.326	55.404	0.290	0.278
-129.312	-98.238	0.044	0.011
-128.297	-75.723	-0.187	-0.066
-127.283	800.000	0.022	0.070
-126.268	431.505	-0.080	0.172
-125.253	189.555	-0.030	0.044
-124.239	-8.711	-0.120	-0.079
-123.224	55.333	0.059	0.057
-122.210	-40.006	-0.396	0.205
-121.195	-200.000	-0.027	-0.274
-120.180	-114.303	0.280	0.053
-119.166	321.491	-0.065	-0.122
-118.151	-25.709	-0.198	0.115
-117.137	-200.000	-0.005	0.224
-116.122	-162.714	0.377	0.018
-115.107	-40.119	0.262	0.135
-114.093	134.356	-0.059	-0.075
-113.078	22.191	0.102	0.082
-112.064	-73.506	-0.156	-0.056
-111.049	-161.535	-0.403	-0.020
-110.034	-14.477	0.102	0.065
-109.020	177.207	0.147	-0.211
-108.005	61.210	0.163	-0.160
-106.991	-26.981	-0.048	0.028
-105.976	-43.436	0.194	0.097
-104.962	41.510	0.142	-0.127
-103.947	-200.000	-0.058	0.271
-102.932	-148.436	-0.478	0.039
-101.918	-137.829	0.177	-0.020
-100.903	800.000	0.006	0.019
-99.889	-37.884	-0.020	0.011
-98.874	-200.000	-0.006	-0.335
-97.859	-109.777	0.181	0.038
-96.845	33.448	0.095	-0.081
-95.830	80.659	-0.001	-0.001
-94.816	-200.000	0.040	0.000
-93.801	-60.147	-0.040	0.017
-92.786	-200.000	0.012	-0.126
-91.772	-138.781	-0.204	0.022
-90.757	800.000	-0.059	0.163
-89.743	-78.457	-0.186	0.063
-88.728	-200.000	0.007	-0.034
-87.713	800.000	0.096	-0.371
-86.699	-145.938	0.307	-0.027
-85.684	-73.259	0.302	0.109
-84.670	-200.000	-0.001	0.063
-83.655	-57.134	-0.185	0.081
-82.640	28.073	0.230	-0.191
-81.626	-14.561	0.192	-0.122
-80.611	-200.000	-0.036	0.158
-79.597	-200.000	0.019	0.112
-78.582	-68.180	0.279	-0.107
-77.567	476.343	-0.031	-0.069
-76.553	-94.605	-0.091	-0.024
-75.538	-94.232	0.056	0.015
-74.524	800.000	0.029	0.111
-73.509	-200.000	-0.005	0.077
-72.494	44.974	0.271	-0.247
-71.480	-49.094	0.255	-0.120
-70.465	7.845	0.259	-0.192
-69.451	-107.351	-0.246	0.053
-68.436	704.565	-0.042	-0.109
-67.422	16.599	0.115	0.090
-66.407	-200.000	-0.066	0.518
-65.392	84.995	-0.110	-0.120
-64.378	800.000	0.124	0.403
-63.363	800.000	0.049	0.174
-62.349	-168.636	0.127	-0.005
-61.334	-10.854	-0.849	-0.554
-60.319	332.866	0.337	0.642
-59.305	-200.000	-0.033	-0.818
-58.290	413.443	0.548	1.151
-57.276	186.620	1.072	1.575
-56.261	-200.000	99.141	600.850
-55.246	535.949	1419.644	3325.988
-54.232	149.279	2617.458	3497.831
-53.217	113.278	2171.941	2601.486
-52.203	45.171	1621.456	1475.506
-51.188	36.753	1357.807	1184.312
-50.173	33.537	1315.417	1128.193
-49.159	56.575	1364.704	1310.503
-48.144	59.736	1381.980	1346.139
-47.130	37.215	1336.782	1168.574
-46.115	33.466	1319.463	1131.058
-45.100	33.242	1314.900	1125.768
-44.086	33.297	1312.196	1123.735
-43.071	33.163	1310.554	1121.489
-42.057	33.164	1308.482	1119.677
-41.042	33.253	1306.717	1118.652
-40.027	33.297	1304.882	1117.296
-39.013	33.237	1303.278	1115.521
-37.998	33.288	1301.183	1113.989
-36.984	33.333	1299.461	1112.734
-35.969	33.349	1298.053	1111.579
-34.954	33.419	1296.156	1110.316
-33.940	33.423	1294.775	1109.112
-32.925	33.412	1293.210	1107.665
-31.911	33.443	1291.602	1106.427
-30.896	33.420	1290.542	1105.341
-29.881	33.395	1289.182	1103.984
-28.867	33.500	1287.479	1103.091
-27.852	33.495	1285.943	1101.705
-26.838	33.570	1284.398	1100.772
-25.823	33.576	1283.008	1099.573
-24.809	33.469	1281.784	1097.859
-23.794	33.528	1280.305	1096.890
-22.779	33.449	1279.103	1095.362
-21.765	33.490	1278.131	1094.720
-20.750	33.332	1277.033	1092.827
-19.736	33.338	1275.546	1091.545
-18.721	33.306	1274.553	1090.469
-17.706	33.401	1273.175	1089.793
-16.692	33.332	1272.200	1088.515
-15.677	33.222	1271.310	1087.078
-14.663	33.320	1270.067	1086.535
-13.648	33.403	1268.857	1085.934
-12.633	33.399	1267.496	1084.706
-11.619	33.208	1266.957	1083.108
-10.604	33.306	1265.997	1082.804
-9.590	33.433	1264.968	1082.606
-8.575	33.309	1264.273	1081.260
-7.560	33.293	1263.692	1080.628
-6.546	33.254	1262.850	1079.647
-5.531	33.343	1261.494	1078.952
-4.517	33.155	1261.077	1077.478
-3.502	33.368	1259.471	1077.274
-2.487	33.362	1258.889	1076.702
-1.473	33.264	1255.767	1073.431
-0.458	32.199	1240.905	1054.711
0.556	28.881	1223.528	1018.905
1.571	25.384	1229.949	1004.636
2.586	24.598	1245.378	1012.695
3.600	23.624	1234.055	997.929
4.615	16.823	1159.247	901.304
5.629	6.381	1080.385	787.900
6.644	2.079	1059.929	751.763
7.659	1.676	1056.996	747.640
8.673	1.506	1056.009	746.041
9.688	1.441	1054.842	744.829
10.702	1.755	1053.363	745.258
11.717	8.099	1062.902	783.186
12.731	18.686	1077.131	846.056
13.746	24.035	1084.241	878.033
14.761	24.928	1085.409	883.306
15.775	25.044	1084.611	883.150
16.790	24.872	1083.700	881.485
17.804	24.605	1083.642	880.042
18.819	24.847	1082.923	880.574
19.834	24.935	1082.458	880.548
20.848	25.052	1081.977	880.655
21.863	24.904	1081.805	879.712
22.877	24.949	1080.695	878.952
23.892	24.766	1080.327	877.676
24.907	24.940	1079.600	877.862
25.921	24.907	1078.092	876.395
26.936	24.935	1076.987	875.558
27.950	24.974	1075.315	874.310
28.965	24.612	1073.857	871.284
29.980	24.863	1071.836	870.785
30.994	25.100	1071.190	871.339
32.009	25.010	1070.366	870.155
33.023	24.675	1069.438	867.696
34.038	24.992	1068.254	868.192
35.053	25.012	1067.553	867.644
36.067	25.077	1066.576	867.087
37.082	25.067	1066.432	866.847
38.096	25.176	1065.377	866.441
39.111	25.224	1065.077	866.352
40.126	25.133	1063.513	864.565
41.140	24.735	1061.838	861.207
42.155	24.578	1060.188	859.038
43.169	24.605	1059.146	858.249
44.184	24.718	1057.955	857.748
45.199	24.568	1057.322	856.439
46.213	24.620	1056.821	856.206
47.228	24.744	1056.103	856.144
48.242	24.704	1055.366	855.280
49.257	24.870	1054.626	855.400
50.271	25.050	1053.454	855.233
51.286	25.074	1052.784	854.727
52.301	25.038	1052.120	853.940
53.315	24.961	1051.245	852.787
54.330	24.870	1050.400	851.592
55.344	24.920	1049.593	851.100
56.359	24.872	1048.395	849.828
57.374	24.690	1047.493	848.159
58.388	24.721	1047.015	847.844
59.403	24.505	1046.196	846.082
60.417	24.469	1045.047	844.905
61.432	24.510	1044.661	844.714
62.447	24.847	1043.517	845.304
63.461	24.583	1043.178	843.711
64.476	24.620	1042.232	843.047
65.490	24.563	1041.194	841.859
66.505	24.616	1040.579	841.539
67.520	24.708	1039.720	841.205
68.534	24.479	1038.471	839.044
69.549	24.140	1037.385	836.497
70.563	24.202	1036.704	836.167
71.578	24.244	1035.739	835.513
72.593	24.036	1034.869	833.759
73.607	24.174	1034.458	834.002
74.622	24.483	1034.005	835.009
75.636	24.483	1033.402	834.448
76.651	24.298	1032.341	832.654
77.666	24.271	1031.936	832.125
78.680	24.405	1030.987	831.913
79.695	24.370	1030.546	831.321
80.709	24.447	1029.785	830.989
81.724	24.494	1029.088	830.573
82.739	24.523	1028.513	830.172
83.753	25.003	1027.573	831.569
84.768	25.147	1026.881	831.603
85.782	25.338	1025.906	831.624
86.797	25.268	1024.889	830.403
87.812	25.034	1024.306	828.773
88.826	25.249	1023.215	828.813
89.841	25.161	1022.945	828.114
90.855	25.242	1021.444	827.196
91.870	25.078	1021.004	826.012
92.884	25.087	1019.306	824.606
93.899	25.173	1018.177	824.015
94.914	25.233	1017.265	823.479
95.928	25.043	1016.444	821.874
96.943	24.905	1014.805	819.843
97.957	24.672	1014.036	818.082
98.972	24.302	1013.455	815.847
99.987	24.696	1012.586	816.878
101.001	24.957	1011.546	817.158
102.016	24.931	1010.870	816.421
103.030	24.871	1009.689	815.122
104.045	24.770	1008.786	813.860
105.060	24.568	1007.908	812.159
106.074	24.698	1007.353	812.234
107.089	25.057	1006.625	813.204
108.103	25.013	1005.322	811.881
109.118	24.697	1004.243	809.505
110.133	24.695	1003.410	808.754
111.147	24.448	1002.201	806.593
112.162	24.441	1000.752	805.323
113.176	24.628	1000.798	806.130
114.191	24.654	999.499	805.130
115.206	24.256	998.523	802.485
116.220	24.218	997.966	801.793
117.235	24.289	997.205	801.431
118.249	24.401	996.169	801.029
119.264	24.258	995.378	799.680
120.279	24.237	994.976	799.195
121.293	24.299	994.169	798.751
122.308	24.401	993.382	798.505
123.322	24.341	992.254	797.258
124.337	24.090	991.128	795.162
125.352	23.669	989.416	791.844
126.366	23.592	988.672	790.836
127.381	24.373	988.582	794.171
128.395	24.808	988.311	795.819
129.410	24.890	987.368	795.353
130.424	25.089	985.702	794.822
131.439	24.875	985.372	793.538
132.454	24.879	984.623	792.883
133.468	24.770	983.904	791.749
134.483	24.903	983.158	791.669
135.497	25.175	982.511	792.277
136.512	25.131	980.920	790.732
137.527	25.159	980.678	790.589
138.541	25.214	979.784	790.044
139.556	25.188	979.185	789.373
140.570	25.153	978.423	788.539
141.585	25.259	977.105	787.868
142.600	25.295	976.164	787.198
143.614	25.259	975.925	786.781
144.629	25.534	975.013	787.177
145.643	25.281	973.471	784.756
146.658	25.076	972.371	782.905
147.673	25.069	971.157	781.828
148.687	25.005	969.849	780.430
149.702	24.967	969.122	779.609
150.716	24.810	968.763	778.568
151.731	24.999	967.852	778.586
152.746	25.182	967.560	779.078
153.760	25.270	966.464	778.511
154.775	25.457	965.828	778.739
155.789	25.361	964.802	777.428
156.804	25.355	963.840	776.556
157.819	25.389	963.344	776.236
158.833	25.580	962.507	776.318
159.848	25.572	961.401	775.323
160.862	25.357	960.254	773.404
161.877	25.232	959.662	772.318
162.892	25.324	958.307	771.554
163.906	25.234	956.916	769.984
164.921	25.253	956.531	769.686
165.935	25.333	955.470	769.109
166.950	25.267	955.163	768.508
167.964	25.369	953.763	767.749
168.979	25.073	952.899	765.721
169.994	25.153	951.799	765.113
171.008	25.376	951.100	765.433
172.023	25.422	950.260	764.883
173.037	25.281	948.880	763.106
174.052	25.076	948.403	761.787
175.067	25.054	947.664	761.030
176.081	25.179	947.424	761.300
177.096	25.014	946.785	760.022
178.110	24.896	945.519	758.437
179.125	24.678	944.707	756.797
180.140	24.690	944.870	756.910
181.154	24.891	944.055	757.039
182.169	25.071	944.488	758.083
183.183	25.343	944.122	758.870
184.198	25.307	942.379	757.251
185.213	25.212	941.846	756.357
186.227	25.317	941.346	756.330
187.242	25.366	940.526	755.811
188.256	25.317	940.117	755.208
189.271	25.515	939.128	755.178
190.286	25.029	938.111	752.256
191.300	24.462	936.557	748.564
192.315	23.807	934.632	744.220
193.329	23.645	934.647	743.487
194.344	24.464	935.544	747.564
195.359	25.032	935.291	749.675
196.373	25.295	934.419	750.007
197.388	25.265	933.804	749.321
198.402	25.116	933.597	748.468
199.417	25.079	933.062	747.817
200.432	24.874	931.752	745.848
201.446	24.709	931.147	744.612
202.461	24.869	930.608	744.781
203.475	23.974	928.221	739.087
204.490	23.213	927.242	735.084
205.504	24.156	927.578	739.201
206.519	24.719	927.590	741.479
207.534	24.813	927.149	741.451
208.548	25.225	927.073	743.030
209.563	24.978	925.918	741.019
210.577	25.128	925.316	741.092
211.592	25.500	925.126	742.409
212.607	25.531	923.967	741.544
213.621	25.393	923.522	740.551
214.636	25.313	923.183	739.883
215.650	25.279	922.093	738.804
216.665	25.415	921.379	738.727
217.680	25.229	921.095	737.667
218.694	24.905	919.721	735.173
219.709	24.895	918.890	734.401
220.723	25.118	918.588	735.010
221.738	25.209	917.981	734.834
222.753	25.223	917.170	734.175
223.767	25.366	917.285	734.787
224.782	25.465	916.698	734.659
225.796	25.470	916.296	734.289
226.811	24.880	914.390	730.292
227.826	24.063	913.431	726.128
228.840	24.366	912.949	726.917
229.855	24.527	911.982	726.740
230.869	24.218	910.770	724.451
231.884	24.509	911.075	725.816
232.899	25.214	911.505	728.960
233.913	25.168	910.520	727.919
234.928	25.119	910.136	727.349
235.942	25.017	909.546	726.399
236.957	24.723	908.440	724.260
237.972	24.694	908.119	723.823
238.986	24.872	907.191	723.739
240.001	24.833	906.697	723.126
241.015	24.934	906.342	723.186
242.030	25.105	905.805	723.383
243.045	25.289	905.302	723.658
244.059	25.368	904.703	723.434
245.074	25.113	903.802	721.624
246.088	24.786	902.972	719.583
247.103	25.290	902.418	721.104
248.117	25.838	902.313	723.155
249.132	25.921	902.495	723.569
250.147	25.922	902.072	723.172
251.161	26.091	901.531	723.350
252.176	26.052	900.713	722.474
253.190	26.207	900.194	722.613
254.205	26.260	900.243	722.800
255.220	26.111	899.169	721.279
256.234	25.984	898.060	719.822
257.249	26.064	897.151	719.347
258.263	26.185	896.449	719.204
259.278	26.131	895.980	718.547
260.293	26.110	895.746	718.214
261.307	26.044	895.302	717.530
262.322	25.926	894.203	716.117
263.336	25.112	891.707	710.827
264.351	24.072	890.452	705.648
265.366	24.320	890.234	706.392
266.380	25.261	890.931	710.612
267.395	25.753	890.253	711.954
268.409	25.569	889.909	710.889
269.424	25.842	889.336	711.446
270.439	25.894	888.507	710.926
271.453	25.991	888.239	711.029
272.468	26.082	887.977	711.115
273.482	26.117	887.635	710.918
274.497	25.762	885.992	708.144
275.512	25.347	885.543	706.091
276.526	25.759	885.547	707.651
277.541	26.113	884.562	708.190
278.555	25.704	884.081	706.139
279.570	25.586	883.291	704.983
280.585	25.854	882.997	705.733
281.599	25.714	881.950	704.289
282.614	25.034	880.516	700.424
283.628	25.115	880.007	700.274
284.643	25.469	879.931	701.535
285.657	25.148	878.708	699.243
286.672	24.796	878.012	697.256
287.687	25.408	878.103	699.653
288.701	25.509	877.336	699.370
289.716	25.233	876.486	697.560
290.730	25.172	875.760	696.684
291.745	24.816	875.168	694.770
292.760	25.184	874.872	695.901
293.774	26.102	875.554	699.945
294.789	26.415	875.091	700.724
295.803	26.487	874.486	700.457
296.818	26.403	874.084	699.748
297.833	26.156	872.529	697.485
298.847	25.996	872.069	696.439
299.862	26.213	871.763	696.969
300.876	26.502	871.331	697.678
301.891	26.323	870.805	696.504
302.906	26.011	869.656	694.324
303.920	26.120	869.777	694.780
304.935	26.404	869.647	695.707
305.949	26.476	868.293	694.839
306.964	25.999	868.252	692.912
307.979	26.191	867.846	693.262
308.993	26.592	867.240	694.256
310.008	26.583	866.728	693.751
311.022	26.410	865.846	692.323
312.037	26.168	865.190	690.808
313.052	25.940	863.965	688.898
314.066	24.897	862.675	683.829
315.081	24.711	861.957	682.489
316.095	25.530	862.505	685.989
317.110	25.987	862.110	687.356
318.125	25.219	860.503	683.090
319.139	24.120	859.446	678.008
320.154	24.159	858.939	677.696
321.168	25.280	859.059	681.995
322.183	25.835	859.200	684.154
323.197	25.992	859.069	684.586
324.212	26.207	858.309	684.734
325.227	26.122	858.097	684.181
326.241	26.052	857.412	683.311
327.256	26.036	856.449	682.424
328.270	25.894	855.631	681.174
329.285	25.579	855.133	679.528
330.300	25.545	854.208	678.603
331.314	25.785	854.008	679.291
332.329	26.189	853.822	680.605
333.343	26.343	853.550	680.907
334.358	26.210	853.183	680.055
335.373	26.501	852.753	680.745
336.387	26.477	853.128	680.895
337.402	26.705	852.675	681.332
338.416	26.615	852.497	680.791
339.431	26.792	851.781	680.823
340.446	26.829	851.686	680.825
341.460	26.809	851.002	680.145
342.475	26.566	850.288	678.602
343.489	26.689	850.226	678.954
344.504	27.032	849.589	679.670
345.519	27.150	849.262	679.786
346.533	27.273	848.656	679.701
347.548	27.243	848.457	679.369
348.562	27.059	847.948	678.216
349.577	26.990	847.243	677.336
350.592	26.931	846.966	676.834
351.606	27.071	845.776	676.344
352.621	26.916	844.926	675.028
353.635	27.007	843.967	674.540
354.650	26.200	842.943	670.665
355.665	25.169	841.580	665.697
356.679	25.637	841.330	667.178
357.694	26.103	840.779	668.407
358.708	26.160	840.036	667.967
359.723	26.524	840.066	669.280
360.738	26.659	840.121	669.766
361.752	26.808	839.385	669.668
362.767	27.184	839.207	670.854
363.781	27.316	838.929	671.061
364.796	27.419	838.629	671.141
365.810	27.601	837.925	671.186
366.825	27.420	837.532	670.147
367.840	27.066	836.873	668.260
368.854	26.783	835.692	666.218
369.869	26.774	835.529	665.994
370.883	26.879	834.810	665.748
371.898	26.753	834.323	664.839
372.913	26.943	834.294	665.454
373.927	26.943	833.670	664.896
374.942	27.112	833.506	665.327
375.956	27.295	832.701	665.293
376.971	27.197	832.685	664.865
377.986	27.599	831.911	665.654
379.000	27.440	831.649	664.806
380.015	27.390	830.831	663.910
381.029	27.267	830.813	663.390
382.044	27.454	830.218	663.537
383.059	27.542	828.955	662.791
384.073	27.463	828.885	662.387
385.088	27.285	828.666	661.506
386.102	27.295	827.469	660.529
387.117	27.219	826.485	659.408
388.132	26.663	826.129	657.052
389.146	26.262	824.941	654.595
390.161	26.764	824.819	656.258
391.175	27.136	824.726	657.473
392.190	26.873	823.433	655.435
393.205	25.322	821.410	648.171
394.219	23.856	819.790	641.547
395.234	24.013	819.613	641.920
396.248	25.537	820.913	648.381
397.263	26.995	821.666	654.179
398.278	26.738	821.563	653.112
399.292	26.672	820.583	652.037
400.307	26.774	820.209	652.048
401.321	26.708	819.960	651.555
402.336	27.275	819.736	653.359
403.350	27.456	819.770	653.978
404.365	27.940	819.428	655.384
405.380	28.183	819.154	655.976
406.394	28.229	818.540	655.593
407.409	28.065	818.293	654.749
408.423	27.984	818.198	654.324
409.438	27.947	817.719	653.753
410.453	28.241	817.204	654.334
411.467	28.089	816.585	653.238
412.482	28.053	816.267	652.797
413.496	28.332	815.836	653.389
414.511	28.184	815.592	652.608
415.526	28.062	815.070	651.698
416.540	27.835	814.262	650.187
417.555	27.673	813.583	649.010
418.569	27.833	813.307	649.300
419.584	27.839	812.606	648.706
420.599	27.631	812.143	647.539
421.613	107.680	1285.620	1449.807
422.628	93.037	1354.607	1449.919
