DTS Sentinel unit serial number:	SN413079Multiplexer serial number:	ORYXHardware model number:	OX4-SRSoftware version number:	ORYX F/W v4.00 Oryx Data Collector v3.7.2.0data status	okinstallation	princeton_trtdifferential loss correction	single-endedforward channel	channel 1reverse channel	N/Adate	2019/09/14time	22:42:35forward acquisition time	60.00reverse acquisition time	0.00gamma	496.2192k internal	0.2319k external	0.2319temperature offset calibration	1.0003default loss term (dB/km)	0.3790temperature slope calibration	1.0000multiplexer offset coefficient	1.0000multiplexer slope coefficient	1.0000fibre end	0.00T internal ref (°C)	32.50T ext. ref 1 (°C)	4.67T ext. ref 2 (°C)	27.52length (m)	temperature (°C)	Stokes	anti-Stokes-747.200	-16.755	-0.175	-0.112
-746.185	-114.577	-0.235	-0.046
-745.171	259.789	0.140	-0.245
-744.156	800.000	0.042	0.121
-743.142	-200.000	0.002	-0.026
-742.127	-200.000	0.025	0.130
-741.112	-56.836	0.352	0.157
-740.098	14.209	-0.162	-0.128
-739.083	-68.101	-0.254	0.100
-738.069	164.877	-0.336	0.479
-737.054	163.333	-0.201	0.286
-736.039	400.897	-0.119	0.252
-735.025	131.536	-0.060	0.078
-734.010	-195.677	-0.222	0.002
-732.996	-23.111	-0.312	-0.190
-731.981	13.360	0.207	-0.162
-730.966	800.000	-0.077	-0.254
-729.952	800.000	-0.074	0.313
-728.937	800.000	-0.076	-0.217
-727.923	-39.818	-0.161	-0.085
-726.908	-6.641	-0.209	0.144
-725.894	680.114	-0.049	-0.130
-724.879	-200.000	0.007	-0.238
-723.864	29.007	-0.050	0.043
-722.850	215.676	0.163	0.261
-721.835	800.000	-0.029	-0.122
-720.821	-157.375	-0.246	0.015
-719.806	-42.521	0.148	0.076
-718.791	-122.321	-0.104	0.017
-717.777	-21.382	-0.079	-0.049
-716.762	-200.000	-0.003	-0.178
-715.748	166.819	-0.129	-0.184
-714.733	-90.347	-0.083	0.024
-713.718	6.119	-0.204	0.153
-712.704	-25.083	0.064	-0.038
-711.689	-137.405	-0.200	-0.023
-710.675	-200.000	-0.024	0.121
-709.660	-64.226	-0.145	-0.060
-708.645	114.832	-0.140	0.172
-707.631	137.443	-0.123	0.163
-706.616	27.210	0.128	-0.109
-705.602	-36.418	-0.101	-0.055
-704.587	-200.000	0.033	-0.167
-703.572	53.546	-0.111	-0.107
-702.558	-53.785	-0.238	-0.110
-701.543	65.830	-0.150	-0.153
-700.529	800.000	-0.096	-0.356
-699.514	-88.890	-0.158	0.047
-698.499	666.043	-0.112	0.292
-697.485	800.000	-0.057	0.186
-696.470	6.359	-0.095	0.071
-695.456	-200.000	-0.044	0.372
-694.441	-200.000	0.005	0.234
-693.426	-4.785	-0.169	-0.118
-692.412	-37.389	-0.197	0.106
-691.397	-5.087	-0.408	-0.284
-690.383	-200.000	-0.019	-0.192
-689.368	724.667	0.119	-0.321
-688.354	137.585	0.107	-0.142
-687.339	113.462	-0.090	-0.110
-686.324	293.851	0.082	0.151
-685.310	143.473	-0.152	-0.204
-684.295	800.000	-0.105	0.387
-683.281	408.711	-0.109	0.233
-682.266	148.528	0.039	-0.053
-681.251	-200.000	-0.032	0.236
-680.237	70.934	-0.100	-0.105
-679.222	756.398	-0.078	0.214
-678.208	-200.000	0.006	0.207
-677.193	800.000	-0.007	-0.028
-676.178	172.217	0.092	0.134
-675.164	-200.000	0.038	-0.257
-674.149	20.228	0.222	-0.181
-673.135	-167.957	-0.372	0.015
-672.120	545.769	0.167	-0.402
-671.105	-200.000	0.009	-0.200
-670.091	-200.000	0.015	-0.391
-669.076	-32.849	0.235	-0.131
-668.062	-86.384	0.226	-0.070
-667.047	-20.650	-0.213	0.132
-666.032	-83.411	0.284	-0.092
-665.018	128.975	-0.130	0.167
-664.003	-26.128	0.188	0.112
-662.989	-92.883	-0.274	0.077
-661.974	-200.000	0.014	-0.173
-660.959	374.612	0.017	0.034
-659.945	-22.504	0.364	-0.222
-658.930	-200.000	0.024	-0.325
-657.916	19.420	0.260	0.210
-656.901	168.721	-0.121	-0.173
-655.886	-200.000	0.063	-0.310
-654.872	-64.735	-0.221	-0.090
-653.857	-200.000	0.060	0.283
-652.843	-48.296	-0.197	-0.096
-651.828	-200.000	-0.007	0.055
-650.814	-37.812	0.156	-0.084
-649.799	-200.000	0.005	0.070
-648.784	13.922	0.135	-0.106
-647.770	-200.000	-0.022	-0.230
-646.755	-200.000	-0.071	-0.370
-645.741	314.010	0.025	-0.047
-644.726	260.678	-0.012	-0.021
-643.711	-130.441	0.336	-0.046
-642.697	-200.000	-0.003	-0.021
-641.682	-70.692	-0.311	-0.119
-640.668	172.682	-0.136	0.197
-639.653	214.010	-0.157	0.250
-638.638	-60.617	-0.145	0.062
-637.624	238.478	0.149	0.249
-636.609	52.344	-0.104	0.100
-635.595	-200.000	0.021	-0.136
-634.580	-74.036	-0.186	0.068
-633.565	133.849	0.167	-0.218
-632.551	-35.707	0.273	-0.149
-631.536	236.748	0.030	-0.050
-630.522	232.884	-0.146	0.242
-629.507	-200.000	0.011	0.096
-628.492	583.228	-0.083	-0.206
-627.478	565.760	0.150	-0.366
-626.463	-156.763	0.213	-0.013
-625.449	-200.000	-0.029	-0.131
-624.434	316.367	0.077	-0.146
-623.419	-120.967	0.150	0.025
-622.405	-110.867	0.251	0.052
-621.390	-47.539	0.106	0.052
-620.376	-200.000	0.032	0.306
-619.361	-119.920	-0.021	-0.004
-618.346	-104.858	0.095	0.022
-617.332	-161.645	0.095	-0.005
-616.317	88.024	0.134	0.150
-615.303	800.000	0.095	-0.339
-614.288	415.645	0.176	-0.378
-613.273	46.943	0.279	0.261
-612.259	-131.365	-0.130	0.017
-611.244	-200.000	0.024	-0.199
-610.230	-149.629	-0.397	0.031
-609.215	-145.154	-0.130	0.012
-608.201	-157.708	-0.240	0.014
-607.186	746.637	0.057	-0.156
-606.171	-73.314	-0.342	0.126
-605.157	22.578	0.223	0.184
-604.142	613.899	0.107	-0.269
-603.128	28.173	-0.059	0.051
-602.113	-183.861	0.070	0.001
-601.098	-200.000	0.001	-0.073
-600.084	800.000	-0.009	0.030
-599.069	-0.231	-0.228	-0.163
-598.055	-52.645	-0.169	-0.078
-597.040	-200.000	-0.026	0.305
-596.025	201.782	-0.135	0.210
-595.011	-200.000	-0.020	-0.279
-593.996	-200.000	-0.079	-0.361
-592.982	-200.000	0.014	-0.131
-591.967	98.541	-0.232	-0.269
-590.952	30.816	-0.378	-0.326
-589.938	800.000	0.045	-0.138
-588.923	-85.903	-0.421	-0.131
-587.909	800.000	0.118	0.364
-586.894	-7.317	0.081	0.055
-585.879	-106.412	-0.130	-0.029
-584.865	29.807	-0.251	-0.215
-583.850	-78.541	0.092	0.032
-582.836	-120.181	-0.274	-0.047
-581.821	-13.674	0.230	0.149
-580.806	143.203	-0.196	0.262
-579.792	440.776	-0.029	0.064
-578.777	800.000	-0.045	-0.159
-577.763	251.455	0.206	-0.352
-576.748	-200.000	-0.018	-0.169
-575.733	800.000	0.165	0.532
-574.719	800.000	-0.046	-0.193
-573.704	-13.587	-0.139	0.091
-572.690	-200.000	-0.017	-0.130
-571.675	82.185	0.123	-0.134
-570.661	-200.000	0.019	0.138
-569.646	800.000	-0.113	0.390
-568.631	103.234	0.274	-0.323
-567.617	97.742	0.213	0.246
-566.602	-129.659	-0.354	-0.049
-565.588	2.770	0.159	0.116
-564.573	-200.000	-0.070	0.311
-563.558	39.664	-0.191	0.172
-562.544	104.643	-0.151	0.179
-561.529	523.128	-0.040	-0.094
-560.515	-200.000	0.006	0.228
-559.500	55.312	0.042	0.040
-558.485	1.140	-0.318	0.230
-557.471	-200.000	0.012	-0.364
-556.456	695.842	-0.073	0.192
-555.442	-63.524	-0.524	0.216
-554.427	-181.214	0.269	0.005
-553.412	422.228	-0.119	0.257
-552.398	27.147	-0.231	0.195
-551.383	62.205	0.083	0.083
-550.369	-105.844	-0.224	0.051
-549.354	80.303	-0.092	-0.100
-548.339	-89.159	0.285	0.084
-547.325	-200.000	0.018	-0.388
-546.310	-200.000	-0.032	-0.184
-545.296	800.000	0.028	-0.087
-544.281	403.595	-0.227	-0.479
-543.266	129.338	0.287	-0.368
-542.252	800.000	-0.053	-0.161
-541.237	-174.041	0.101	-0.003
-540.223	-87.311	-0.216	-0.066
-539.208	-200.000	0.008	-0.164
-538.193	444.597	0.031	-0.069
-537.179	-200.000	0.003	-0.072
-536.164	131.382	0.072	-0.093
-535.150	800.000	-0.023	-0.093
-534.135	175.695	-0.117	-0.170
-533.121	-200.000	-0.038	-0.193
-532.106	-14.610	-0.125	-0.081
-531.091	37.994	0.242	0.216
-530.077	800.000	-0.034	0.138
-529.062	88.922	-0.136	0.152
-528.048	-200.000	-0.033	0.166
-527.033	-200.000	-0.021	-0.193
-526.018	236.642	-0.065	-0.107
-525.004	-141.019	-0.152	0.016
-523.989	-70.495	-0.176	-0.067
-522.975	512.080	0.024	0.057
-521.960	143.144	0.124	-0.166
-520.945	-40.386	0.161	-0.084
-519.931	-52.160	-0.266	0.124
-518.916	-200.000	0.001	-0.183
-517.902	271.958	0.151	-0.266
-516.887	-132.837	-0.277	0.035
-515.872	-125.666	-0.387	-0.059
-514.858	-63.112	0.317	0.131
-513.843	-200.000	0.345	-0.001
-512.829	-172.150	-0.520	-0.017
-511.814	-200.000	-0.070	0.383
-510.799	-141.252	0.236	0.024
-509.785	-5.986	0.077	-0.053
-508.770	238.962	0.257	-0.429
-507.756	-27.931	0.088	0.051
-506.741	-37.826	-0.318	-0.170
-505.726	800.000	0.078	-0.294
-504.712	-165.990	0.233	-0.010
-503.697	-31.004	0.295	0.167
-502.683	182.961	0.071	-0.105
-501.668	-147.686	-0.093	-0.008
-500.653	-115.978	0.204	-0.038
-499.639	-200.000	-0.030	0.261
-498.624	38.932	-0.380	0.341
-497.610	-200.000	0.003	0.209
-496.595	113.319	0.161	-0.196
-495.581	-200.000	-0.040	-0.178
-494.566	783.009	0.129	0.353
-493.551	-200.000	-0.049	-0.298
-492.537	142.139	-0.146	-0.194
-491.522	69.245	-0.111	0.114
-490.508	-146.262	0.172	0.015
-489.493	-142.286	0.221	0.022
-488.478	-103.712	0.034	0.008
-487.464	33.902	-0.217	0.189
-486.449	304.342	0.044	0.082
-485.435	-149.954	0.323	0.025
-484.420	-200.000	-0.008	-0.085
-483.405	-38.233	-0.115	0.061
-482.391	291.010	0.052	0.095
-481.376	-32.875	0.272	0.152
-480.362	-91.371	0.037	0.011
-479.347	800.000	0.063	-0.228
-478.332	-200.000	-0.021	0.174
-477.318	33.453	0.040	0.035
-476.303	97.547	-0.150	0.173
-475.289	-46.520	0.216	-0.106
-474.274	-99.174	-0.150	0.038
-473.259	140.944	-0.122	-0.161
-472.245	-104.520	-0.032	-0.007
-471.230	5.966	0.066	0.049
-470.216	800.000	0.055	-0.191
-469.201	-200.000	-0.017	-0.166
-468.186	-39.438	-0.187	-0.098
-467.172	0.115	-0.229	-0.163
-466.157	-10.774	0.076	-0.050
-465.143	-200.000	0.045	-0.210
-464.128	-20.814	-0.096	-0.059
-463.113	800.000	-0.047	-0.158
-462.099	-200.000	-0.045	0.244
-461.084	-134.852	-0.162	-0.020
-460.070	151.035	-0.095	0.129
-459.055	-200.000	0.075	-0.331
-458.040	254.908	-0.206	0.354
-457.026	-46.000	0.083	0.041
-456.011	401.318	-0.071	0.149
-454.997	-115.510	0.141	-0.027
-453.982	15.415	0.106	0.083
-452.968	-200.000	0.030	0.210
-451.953	274.714	-0.202	-0.358
-450.938	-185.148	-0.390	-0.006
-449.924	-76.987	-0.236	0.083
-448.909	361.268	0.192	-0.385
-447.895	117.330	0.014	0.018
-446.880	-125.374	0.180	-0.027
-445.865	-200.000	0.042	0.205
-444.851	-53.873	-0.313	0.143
-443.836	-13.449	0.250	0.162
-442.822	-200.000	0.020	0.174
-441.807	309.750	-0.095	-0.178
-440.792	131.633	0.081	-0.104
-439.778	143.731	0.114	-0.152
-438.763	30.464	-0.038	0.033
-437.749	-2.769	0.167	0.117
-436.734	52.090	0.205	-0.196
-435.719	-200.000	0.010	-0.057
-434.705	-200.000	-0.011	0.214
-433.690	353.881	0.146	0.290
-432.676	800.000	0.068	0.236
-431.661	-152.108	0.141	-0.010
-430.646	278.877	-0.087	0.155
-429.632	-200.000	-0.023	-0.332
-428.617	350.788	-0.062	0.122
-427.603	527.701	0.061	0.145
-426.588	800.000	-0.083	-0.248
-425.573	-200.000	0.026	0.193
-424.559	-58.727	0.331	-0.143
-423.544	44.226	0.171	-0.157
-422.530	-200.000	0.013	0.169
-421.515	510.077	-0.022	0.051
-420.500	77.409	0.141	0.149
-419.486	25.859	-0.053	0.044
-418.471	295.680	-0.041	0.076
-417.457	-62.654	0.281	-0.116
-416.442	56.218	0.217	-0.211
-415.428	98.099	-0.044	0.050
-414.413	800.000	-0.024	-0.086
-413.398	433.282	0.037	0.081
-412.384	-100.384	0.195	-0.048
-411.369	-130.241	-0.250	-0.034
-410.355	-176.569	-0.249	0.006
-409.340	-76.006	0.391	0.138
-408.325	43.953	0.142	0.130
-407.311	800.000	-0.017	-0.060
-406.296	800.000	0.056	0.197
-405.282	-200.000	0.020	-0.331
-404.267	-79.362	0.400	-0.135
-403.252	-200.000	0.018	-0.094
-402.238	-113.619	-0.200	-0.039
-401.223	-200.000	0.077	0.471
-400.209	8.736	-0.188	0.142
-399.194	464.545	0.106	0.237
-398.179	335.522	-0.087	0.167
-397.165	153.828	0.083	0.114
-396.150	800.000	0.033	0.090
-395.136	515.327	-0.057	-0.133
-394.121	-178.627	-0.077	-0.002
-393.106	168.704	-0.069	-0.098
-392.092	-141.238	-0.055	-0.006
-391.077	48.185	-0.256	-0.239
-390.063	-200.000	0.004	0.112
-389.048	291.093	0.123	0.223
-388.033	-79.455	0.276	-0.093
-387.019	-30.203	-0.095	-0.054
-386.004	-200.000	0.004	0.052
-384.990	13.729	0.232	-0.180
-383.975	-41.785	0.405	0.207
-382.960	-85.891	-0.103	0.032
-381.946	-98.354	-0.196	0.050
-380.931	202.482	-0.069	0.106
-379.917	323.766	0.054	-0.103
-378.902	-152.361	0.225	-0.016
-377.888	-152.045	-0.170	-0.012
-376.873	96.511	-0.126	-0.144
-375.858	269.929	0.029	0.051
-374.844	294.115	0.058	-0.106
-373.829	-153.204	0.253	-0.018
-372.815	-200.000	-0.090	0.521
-371.800	59.183	-0.123	0.121
-370.785	-52.891	0.147	-0.067
-369.771	-130.856	0.252	-0.034
-368.756	68.015	0.126	0.128
-367.742	43.392	-0.197	-0.180
-366.727	60.958	0.135	-0.134
-365.712	-56.664	0.139	-0.061
-364.698	-200.000	0.027	0.268
-363.683	-157.816	-0.110	-0.007
-362.669	-22.859	0.320	-0.193
-361.654	242.375	-0.056	0.094
-360.639	-172.991	-0.251	0.008
-359.625	800.000	-0.015	0.058
-358.610	-32.831	0.100	-0.055
-357.596	26.591	0.177	-0.148
-356.581	-100.221	-0.164	0.041
-355.566	60.372	-0.101	-0.100
-354.552	127.828	-0.140	0.178
-353.537	-157.049	-0.154	-0.009
-352.523	429.700	-0.146	-0.314
-351.508	476.202	-0.057	0.128
-350.493	-200.000	0.067	-0.535
-349.479	183.481	-0.151	-0.223
-348.464	-167.190	-0.125	0.005
-347.450	-136.612	0.091	-0.011
-346.435	163.027	0.078	-0.109
-345.420	800.000	0.042	-0.166
-344.406	-148.338	-0.194	0.016
-343.391	-200.000	0.019	0.238
-342.377	800.000	-0.052	-0.222
-341.362	-200.000	-0.066	0.297
-340.348	-124.527	0.113	0.018
-339.333	-200.000	0.016	0.079
-338.318	-103.316	0.110	-0.026
-337.304	-37.581	-0.397	-0.210
-336.289	233.391	-0.020	0.032
-335.275	-200.000	0.002	-0.217
-334.260	-108.866	0.130	0.028
-333.245	114.810	0.190	0.230
-332.231	71.895	-0.125	0.130
-331.216	-150.242	0.475	-0.037
-330.202	-107.584	-0.207	-0.045
-329.187	-148.173	-0.235	-0.019
-328.172	-104.295	-0.295	0.068
-327.158	402.296	-0.030	0.062
-326.143	-9.338	0.046	-0.031
-325.129	-78.142	0.259	-0.089
-324.114	-54.974	-0.413	-0.185
-323.099	-82.373	0.174	0.056
-322.085	45.327	0.170	0.156
-321.070	-200.000	-0.007	0.163
-320.056	-200.000	0.018	0.210
-319.041	11.110	-0.133	0.101
-318.026	-200.000	-0.019	-0.091
-317.012	-47.007	0.313	-0.152
-315.997	-200.000	-0.040	-0.228
-314.983	-200.000	0.003	0.223
-313.968	0.613	-0.051	0.036
-312.953	800.000	0.013	0.038
-311.939	7.235	-0.180	-0.134
-310.924	-200.000	0.057	0.322
-309.910	54.201	-0.184	0.176
-308.895	114.023	0.299	0.361
-307.880	-58.508	0.136	-0.059
-306.866	-87.792	0.183	0.055
-305.851	163.246	-0.016	-0.022
-304.837	-90.053	-0.136	0.039
-303.822	-173.691	0.225	0.007
-302.807	-200.000	-0.038	0.168
-301.793	91.839	-0.116	-0.130
-300.778	800.000	-0.085	0.297
-299.764	-71.431	-0.079	-0.029
-298.749	584.493	-0.031	0.075
-297.735	196.444	0.189	0.286
-296.720	275.712	0.169	0.299
-295.705	243.053	-0.071	0.118
-294.691	-200.000	0.126	-0.592
-293.676	354.392	-0.085	-0.167
-292.662	-13.898	-0.102	-0.065
-291.647	-99.981	0.096	0.024
-290.632	-200.000	-0.012	-0.229
-289.618	-47.681	0.294	-0.142
-288.603	460.363	0.140	0.310
-287.589	682.479	-0.051	0.133
-286.574	-127.598	0.151	-0.022
-285.559	77.762	-0.172	0.182
-284.545	-90.816	-0.085	0.024
-283.530	-110.830	0.058	-0.012
-282.516	197.168	-0.160	0.243
-281.501	800.000	0.124	-0.390
-280.486	32.146	-0.205	-0.176
-279.472	-200.000	0.042	-0.313
-278.457	-55.156	0.108	0.048
-277.443	53.690	0.256	0.245
-276.428	-98.318	-0.069	0.018
-275.413	233.982	0.175	0.287
-274.399	1.291	0.116	0.083
-273.384	-21.612	0.334	0.202
-272.370	800.000	0.094	0.362
-271.355	-62.318	-0.301	-0.125
-270.340	-114.450	0.163	0.031
-269.326	151.621	0.104	0.141
-268.311	-37.870	0.174	0.092
-267.297	-10.274	-0.204	0.135
-266.282	-123.914	-0.280	0.044
-265.267	-84.802	0.379	0.118
-264.253	58.376	-0.031	-0.030
-263.238	11.820	0.142	0.108
-262.224	-51.219	-0.109	-0.051
-261.209	-74.880	-0.139	0.049
-260.195	3.430	-0.326	0.236
-259.180	-31.613	-0.218	0.122
-258.165	-200.000	-0.013	0.081
-257.151	-130.629	-0.104	-0.014
-256.136	371.707	-0.053	-0.106
-255.122	194.837	0.171	-0.258
-254.107	41.736	0.160	0.144
-253.092	53.317	-0.511	0.486
-252.078	-2.201	0.133	-0.093
-251.063	-171.506	-0.058	0.002
-250.049	774.754	-0.142	0.384
-249.034	30.161	-0.109	-0.092
-248.019	-92.034	0.106	-0.030
-247.005	0.226	0.158	0.112
-245.990	490.566	0.108	0.246
-244.976	-200.000	-0.012	0.233
-243.961	26.922	-0.151	0.126
-242.946	-101.819	0.119	-0.029
-241.932	264.786	-0.143	-0.247
-240.917	-200.000	0.039	-0.204
-239.903	-15.885	0.153	-0.097
-238.888	200.435	0.310	0.473
-237.873	604.599	0.010	-0.026
-236.859	402.630	0.039	-0.081
-235.844	-77.295	-0.110	0.038
-234.830	594.347	0.012	-0.029
-233.815	800.000	-0.072	-0.292
-232.800	34.122	0.109	-0.094
-231.786	254.930	-0.153	0.260
-230.771	53.550	0.222	-0.212
-229.757	-157.463	0.142	0.008
-228.742	-98.076	-0.050	-0.013
-227.727	-117.966	0.103	-0.018
-226.713	-80.943	0.260	-0.085
-225.698	-161.330	0.416	-0.021
-224.684	-13.890	0.135	0.087
-223.669	-166.337	0.142	-0.006
-222.655	-25.865	-0.153	-0.089
-221.640	-74.604	0.039	0.014
-220.625	64.545	0.153	-0.153
-219.611	-200.000	-0.014	0.220
-218.596	608.261	0.049	-0.120
-217.582	197.938	-0.065	-0.099
-216.567	-200.000	0.033	-0.171
-215.552	-126.647	-0.260	-0.038
-214.538	-112.055	0.008	0.002
-213.523	800.000	-0.024	0.092
-212.509	-116.698	-0.082	0.015
-211.494	-200.000	0.031	-0.209
-210.479	456.949	-0.130	-0.286
-209.465	-48.941	-0.145	0.069
-208.450	-13.597	-0.174	-0.112
-207.436	-28.240	-0.240	0.137
-206.421	75.379	-0.013	0.013
-205.406	-107.656	-0.275	0.059
-204.392	165.009	0.269	-0.376
-203.377	108.042	0.144	0.170
-202.363	-200.000	0.032	0.218
-201.348	-50.558	-0.177	-0.082
-200.333	-109.627	0.086	-0.018
-199.319	-99.202	-0.428	0.107
-198.304	-200.000	0.007	0.056
-197.290	83.459	0.108	0.116
-196.275	-54.306	-0.264	0.119
-195.260	283.061	0.048	-0.086
-194.246	310.815	-0.203	0.376
-193.231	676.456	-0.066	0.169
-192.217	800.000	-0.070	0.241
-191.202	-200.000	-0.077	-0.435
-190.187	111.696	-0.406	-0.486
-189.173	-14.799	0.229	-0.146
-188.158	-200.000	-0.002	0.017
-187.144	-167.794	0.190	-0.007
-186.129	-7.276	-0.243	0.163
-185.114	-200.000	-0.014	-0.092
-184.100	-26.260	-0.153	-0.089
-183.085	-46.429	0.305	0.148
-182.071	-97.631	-0.183	0.047
-181.056	31.751	-0.161	0.137
-180.042	-54.075	0.134	-0.060
-179.027	99.827	0.164	0.188
-178.012	-123.023	-0.091	-0.014
-176.998	70.305	0.115	-0.118
-175.983	227.895	0.037	-0.059
-174.969	800.000	-0.067	-0.224
-173.954	96.843	-0.094	-0.107
-172.939	-34.770	-0.226	-0.122
-171.925	-7.443	0.231	-0.154
-170.910	800.000	-0.066	-0.202
-169.896	-78.145	0.109	-0.037
-168.881	61.396	0.175	0.172
-167.866	268.480	0.180	-0.312
-166.852	-128.488	0.202	-0.028
-165.837	-200.000	-0.016	0.287
-164.823	-1.577	0.225	-0.157
-163.808	-188.599	0.085	-0.001
-162.793	-87.370	-0.250	-0.075
-161.779	62.986	0.194	0.192
-160.764	-140.726	-0.429	-0.044
-159.750	156.226	-0.154	-0.210
-158.735	111.375	-0.192	-0.229
-157.720	470.682	0.076	0.169
-156.706	-107.837	0.255	0.055
-155.691	165.614	0.087	0.122
-154.677	67.629	0.186	0.188
-153.662	290.942	-0.102	-0.183
-152.647	276.973	0.036	-0.064
-151.633	741.073	-0.078	0.206
-150.618	-20.583	0.123	-0.075
-149.604	88.118	0.192	0.211
-148.589	-36.325	0.103	0.055
-147.574	148.687	-0.167	0.223
-146.560	392.328	0.070	0.145
-145.545	-75.304	-0.293	0.103
-144.531	236.108	-0.090	0.146
-143.516	-200.000	0.014	-0.092
-142.502	-46.136	0.143	-0.069
-141.487	-7.947	-0.118	0.079
-140.472	379.207	-0.046	-0.093
-139.458	-147.104	0.137	-0.012
-138.443	-200.000	-0.005	0.439
-137.429	376.041	0.087	-0.175
-136.414	257.222	-0.216	-0.366
-135.399	-200.000	0.009	0.118
-134.385	151.013	0.069	-0.093
-133.370	-154.364	-0.165	0.011
-132.356	603.844	-0.039	-0.095
-131.341	-100.218	0.429	-0.105
-130.326	-81.294	0.148	0.048
-129.312	-200.000	-0.011	-0.084
-128.297	-200.000	0.018	-0.085
-127.283	7.410	-0.284	0.209
-126.268	-112.532	0.043	0.008
-125.253	-200.000	0.000	-0.366
-124.239	111.948	0.164	-0.195
-123.224	-73.092	-0.285	-0.103
-122.210	-200.000	0.037	0.256
-121.195	42.859	-0.211	0.190
-120.180	800.000	-0.022	0.088
-119.166	-61.171	0.404	0.168
-118.151	-200.000	-0.014	0.269
-117.137	35.593	0.131	-0.113
-116.122	-98.481	-0.193	0.049
-115.107	176.245	0.081	0.115
-114.093	67.446	0.204	-0.205
-113.078	-200.000	0.010	0.046
-112.064	698.562	0.086	0.223
-111.049	569.723	-0.150	0.360
-110.034	200.613	-0.159	-0.242
-109.020	369.053	0.041	0.083
-108.005	69.446	0.088	0.090
-106.991	800.000	0.019	0.067
-105.976	-200.000	0.027	-0.173
-104.962	-112.234	-0.062	0.012
-103.947	165.790	-0.045	0.063
-102.932	68.038	0.063	-0.064
-101.918	-200.000	0.039	0.204
-100.903	-200.000	-0.015	0.224
-99.889	-107.010	0.071	-0.015
-98.874	752.619	0.080	-0.212
-97.859	-200.000	0.088	-0.463
-96.845	282.240	0.112	-0.199
-95.830	-111.989	-0.244	-0.048
-94.816	-200.000	-0.095	0.574
-93.801	800.000	0.007	0.019
-92.786	800.000	-0.044	0.162
-91.772	52.968	0.188	0.178
-90.757	785.061	0.107	0.288
-89.743	-24.686	0.137	0.080
-88.728	-200.000	-0.008	-0.050
-87.713	-200.000	0.388	-0.000
-86.699	-149.118	-0.199	-0.016
-85.684	-200.000	0.007	-0.075
-84.670	-17.628	0.027	0.017
-83.655	-119.665	-0.140	0.024
-82.640	-200.000	0.078	0.352
-81.626	362.403	0.105	0.208
-80.611	800.000	-0.079	0.242
-79.597	245.009	-0.042	0.070
-78.582	85.557	0.222	-0.241
-77.567	-59.112	-0.102	0.044
-76.553	323.833	0.093	-0.175
-75.538	-89.330	0.052	-0.015
-74.524	-124.759	0.075	0.011
-73.509	312.548	0.099	0.183
-72.494	483.003	-0.020	-0.046
-71.480	-18.558	-0.092	0.057
-70.465	13.729	0.236	-0.180
-69.451	-119.066	-0.238	-0.041
-68.436	195.071	-0.152	-0.227
-67.422	-114.920	-0.400	0.075
-66.407	800.000	-0.095	-0.283
-65.392	-200.000	-0.027	-0.218
-64.378	37.716	-0.090	-0.079
-63.363	800.000	-0.078	0.223
-62.349	-25.731	0.257	-0.149
-61.334	0.999	-1.123	-0.793
-60.319	135.401	0.406	0.521
-59.305	800.000	-0.218	-0.859
-58.290	259.049	0.693	1.177
-57.276	800.000	0.433	1.714
-56.261	-200.000	95.107	579.097
-55.246	661.937	1368.829	3474.257
-54.232	200.064	2540.804	3841.708
-53.217	120.603	2140.637	2619.241
-52.203	44.544	1604.982	1452.290
-51.188	35.914	1343.672	1163.908
-50.173	32.868	1301.052	1109.077
-49.159	54.766	1347.642	1280.127
-48.144	57.084	1364.246	1309.685
-47.130	36.205	1323.702	1148.163
-46.115	32.633	1306.777	1112.395
-45.100	32.614	1300.639	1107.017
-44.086	32.398	1299.013	1104.319
-43.071	32.370	1296.846	1102.270
-42.057	32.282	1294.542	1099.750
-41.042	32.420	1293.011	1099.217
-40.027	32.429	1291.544	1097.978
-39.013	32.452	1289.269	1096.131
-37.998	32.476	1287.645	1094.850
-36.984	32.428	1285.583	1092.774
-35.969	32.528	1284.150	1092.094
-34.954	32.516	1282.598	1090.659
-33.940	32.504	1281.290	1089.433
-32.925	32.485	1280.183	1088.341
-31.911	32.676	1277.972	1087.521
-30.896	32.586	1277.069	1086.190
-29.881	32.588	1275.375	1084.717
-28.867	32.527	1274.717	1083.763
-27.852	32.705	1272.383	1082.756
-26.838	32.666	1270.898	1081.227
-25.823	32.638	1269.970	1080.236
-24.809	32.588	1268.841	1078.942
-23.794	32.520	1267.077	1077.013
-22.779	32.585	1265.632	1076.114
-21.765	32.534	1264.924	1075.176
-20.750	32.521	1263.409	1073.773
-19.736	32.576	1262.207	1073.020
-18.721	32.480	1261.083	1071.474
-17.706	32.492	1259.881	1070.479
-16.692	32.524	1258.366	1069.334
-15.677	32.320	1258.067	1067.878
-14.663	32.490	1256.292	1067.292
-13.648	32.500	1255.553	1066.680
-12.633	32.533	1254.050	1065.546
-11.619	32.385	1253.982	1064.610
-10.604	32.370	1252.795	1063.476
-9.590	32.287	1252.152	1062.418
-8.575	32.427	1250.672	1061.912
-7.560	32.489	1249.560	1061.275
-6.546	32.441	1249.016	1060.500
-5.531	32.401	1248.232	1059.566
-4.517	32.420	1247.252	1058.801
-3.502	32.501	1246.512	1058.584
-2.487	32.352	1245.876	1057.164
-1.473	32.407	1241.322	1053.569
-0.458	30.965	1227.046	1033.418
0.556	26.747	1208.587	995.933
1.571	22.968	1213.791	979.236
2.586	21.975	1228.061	985.086
3.600	21.283	1217.015	972.293
4.615	16.222	1145.909	888.814
5.629	8.276	1072.129	792.216
6.644	4.835	1052.664	760.969
7.659	4.597	1050.215	757.970
8.673	4.602	1049.274	757.250
9.688	4.637	1047.848	756.325
10.702	4.780	1045.921	755.562
11.717	9.274	1052.060	781.826
12.731	16.353	1062.067	823.839
13.746	19.076	1064.778	839.166
14.761	18.322	1063.282	834.241
15.775	17.313	1061.035	827.495
16.790	16.228	1059.035	820.591
17.804	15.484	1057.858	815.988
18.819	15.038	1056.874	812.991
19.834	14.866	1055.917	811.348
20.848	14.699	1054.729	809.556
21.863	14.420	1054.025	807.591
22.877	14.362	1053.197	806.605
23.892	14.416	1052.355	806.151
24.907	14.290	1051.817	805.059
25.921	14.480	1050.260	804.709
26.936	14.424	1049.211	803.567
27.950	14.346	1048.409	802.504
28.965	14.593	1046.355	802.049
29.980	14.628	1044.956	801.076
30.994	14.551	1044.268	800.105
32.009	14.699	1042.823	799.637
33.023	14.634	1042.204	798.780
34.038	14.620	1041.006	797.725
35.053	14.490	1040.274	796.470
36.067	14.572	1039.252	796.009
37.082	14.475	1038.643	795.012
38.096	14.588	1037.968	794.963
39.111	14.528	1037.357	794.139
40.126	14.539	1035.435	792.651
41.140	14.413	1034.496	791.263
42.155	14.243	1033.262	789.440
43.169	14.184	1032.379	788.421
44.184	14.277	1031.285	787.951
45.199	14.290	1030.292	787.187
46.213	14.387	1029.304	786.818
47.228	14.431	1028.243	786.147
48.242	14.534	1027.099	785.687
49.257	14.426	1026.210	784.428
50.271	14.394	1025.461	783.638
51.286	14.502	1024.827	783.593
52.301	14.497	1023.414	782.418
53.315	14.488	1022.393	781.524
54.330	14.370	1021.457	780.189
55.344	14.257	1020.434	778.811
56.359	14.368	1019.854	778.817
57.374	14.252	1018.935	777.507
58.388	14.217	1018.144	776.668
59.403	14.289	1016.857	775.953
60.417	14.283	1016.647	775.696
61.432	14.168	1015.884	774.513
62.447	14.204	1014.911	773.870
63.461	14.113	1013.849	772.567
64.476	14.017	1013.130	771.504
65.490	14.057	1012.526	771.161
66.505	14.191	1011.506	770.940
67.520	14.230	1010.679	770.422
68.534	14.233	1010.244	770.032
69.549	14.194	1009.436	769.170
70.563	14.070	1008.964	768.170
71.578	13.968	1008.087	766.962
72.593	13.994	1006.926	766.133
73.607	14.094	1006.531	766.226
74.622	14.098	1005.780	765.604
75.636	14.058	1004.913	764.690
76.651	14.184	1004.408	764.820
77.666	14.115	1003.896	764.045
78.680	14.063	1003.231	763.234
79.695	14.107	1002.896	763.114
80.709	14.231	1002.166	763.056
81.724	14.239	1001.093	762.210
82.739	14.283	1001.002	762.274
83.753	14.338	999.779	761.527
84.768	14.625	998.783	762.010
85.782	14.548	998.164	761.121
86.797	14.509	997.551	760.408
87.812	14.519	996.266	759.408
88.826	14.449	995.797	758.664
89.841	14.689	994.624	758.791
90.855	14.608	993.884	757.794
91.870	14.687	993.001	757.413
92.884	14.710	991.894	756.604
93.899	14.597	991.245	755.531
94.914	14.671	990.529	755.252
95.928	14.614	990.048	754.561
96.943	14.463	989.361	753.291
97.957	14.696	988.198	753.387
98.972	14.537	987.304	751.925
99.987	14.649	986.210	751.527
101.001	14.646	985.150	750.642
102.016	14.473	984.654	749.421
103.030	14.580	984.335	749.590
104.045	14.566	983.051	748.485
105.060	14.587	982.061	747.756
106.074	14.463	981.344	746.592
107.089	14.319	980.146	744.970
108.103	14.293	979.067	743.968
109.118	14.226	978.653	743.285
110.133	14.144	977.603	742.059
111.147	14.319	976.679	742.070
112.162	14.381	976.204	741.919
113.176	14.315	975.341	740.906
114.191	14.515	974.037	740.740
115.206	14.353	973.692	739.688
116.220	14.275	973.144	738.861
117.235	14.369	971.684	738.104
118.249	14.300	970.800	737.061
119.264	14.355	970.039	736.662
120.279	14.300	969.401	735.872
121.293	14.266	968.622	735.063
122.308	14.281	967.517	734.228
123.322	14.228	966.819	733.400
124.337	14.151	965.932	732.321
125.352	14.206	964.923	731.734
126.366	14.402	963.241	731.253
127.381	14.180	963.026	730.051
128.395	14.242	961.815	729.341
129.410	14.302	960.965	728.894
130.424	14.450	960.009	728.749
131.439	14.400	959.507	728.086
132.454	14.527	958.893	728.110
133.468	14.423	958.028	726.939
134.483	14.449	957.247	726.395
135.497	14.640	956.184	726.354
136.512	14.461	955.862	725.267
137.527	14.514	954.559	724.443
138.541	14.452	954.010	723.695
139.556	14.466	953.546	723.339
140.570	14.660	952.954	723.667
141.585	14.535	952.338	722.592
142.600	14.621	951.235	722.066
143.614	14.673	950.468	721.642
144.629	14.848	949.510	721.606
145.643	14.648	948.933	720.241
146.658	14.594	947.624	718.950
147.673	14.638	946.763	718.424
148.687	14.548	946.043	717.429
149.702	14.538	945.234	716.709
150.716	14.359	944.518	715.335
151.731	14.411	943.955	715.066
152.746	14.479	943.306	714.802
153.760	14.444	942.627	714.078
154.775	14.700	941.740	714.435
155.789	14.580	941.080	713.357
156.804	14.662	940.409	713.135
157.819	14.783	939.864	713.177
158.833	14.732	939.253	712.433
159.848	14.833	938.282	712.063
160.862	14.820	937.010	710.982
161.877	14.578	936.524	709.519
162.892	14.625	935.410	708.813
163.906	14.460	934.579	707.419
164.921	14.567	934.005	707.375
165.935	14.650	932.748	706.716
166.950	14.646	931.941	706.021
167.964	14.689	931.320	705.672
168.979	14.692	930.098	704.694
169.994	14.614	929.810	704.085
171.008	14.755	928.793	703.849
172.023	14.869	928.117	703.754
173.037	14.801	927.535	702.963
174.052	14.768	926.634	702.081
175.067	14.610	926.162	700.996
176.081	14.650	925.431	700.550
177.096	14.634	925.037	700.122
178.110	14.683	924.323	699.726
179.125	14.726	924.127	699.697
180.140	14.702	923.440	699.013
181.154	14.789	923.001	698.980
182.169	14.886	922.481	698.930
183.183	14.880	922.064	698.529
184.198	14.808	921.218	697.525
185.213	14.882	920.559	697.275
186.227	14.957	919.921	697.042
187.242	15.036	919.135	696.711
188.256	15.218	918.345	696.808
189.271	15.114	917.785	695.889
190.286	14.994	916.406	694.286
191.300	14.649	916.402	692.788
192.315	14.581	915.645	691.874
193.329	14.627	914.869	691.416
194.344	14.779	914.490	691.698
195.359	14.950	913.651	691.710
196.373	15.040	913.047	691.563
197.388	15.033	912.942	691.395
198.402	15.193	912.379	691.568
199.417	15.226	911.584	691.037
200.432	15.286	910.990	690.776
201.446	15.316	910.599	690.541
202.461	15.378	910.158	690.399
203.475	15.231	909.560	689.283
204.490	15.022	908.662	687.682
205.504	15.259	907.363	687.609
206.519	15.163	906.993	686.874
207.534	15.143	906.525	686.378
208.548	15.027	906.224	685.612
209.563	15.185	905.180	685.409
210.577	15.070	904.414	684.299
211.592	15.340	903.665	684.773
212.607	15.382	903.142	684.488
213.621	15.354	902.447	683.786
214.636	15.224	901.816	682.718
215.650	15.212	901.404	682.297
216.665	15.560	900.462	682.939
217.680	15.483	899.661	681.958
218.694	15.450	899.779	681.855
219.709	15.484	898.667	681.088
220.723	15.578	897.579	680.586
221.738	15.529	897.189	680.029
222.753	15.528	896.799	679.672
223.767	15.419	896.333	678.815
224.782	15.624	895.649	679.068
225.796	15.571	895.029	678.321
226.811	15.563	894.460	677.799
227.826	15.578	893.283	676.907
228.840	15.568	892.591	676.281
229.855	15.622	891.646	675.723
230.869	15.459	891.519	674.911
231.884	15.331	890.858	673.837
232.899	15.523	889.948	673.860
233.913	15.434	889.004	672.729
234.928	15.369	888.605	672.109
235.942	15.337	888.008	671.470
236.957	15.321	887.491	670.954
237.972	15.433	886.809	670.829
238.986	15.512	886.143	670.580
240.001	15.459	885.512	669.831
241.015	15.551	885.196	669.901
242.030	15.435	884.569	668.903
243.045	15.401	884.202	668.432
244.059	15.569	883.178	668.266
245.074	15.597	882.797	668.030
246.088	15.806	881.891	668.114
247.103	15.737	881.610	667.572
248.117	15.833	881.496	667.806
249.132	15.947	880.996	667.820
250.147	16.088	880.040	667.593
251.161	15.923	879.999	666.852
252.176	16.057	879.052	666.603
253.190	16.042	878.086	665.755
254.205	16.168	877.409	665.680
255.220	16.067	876.739	664.714
256.234	16.054	876.474	664.403
257.249	16.249	875.281	664.206
258.263	16.133	874.475	663.081
259.278	16.161	874.079	662.830
260.293	16.187	873.878	662.722
261.307	16.271	873.126	662.422
262.322	16.234	872.601	661.823
263.336	16.404	871.806	661.824
264.351	16.347	870.843	660.811
265.366	16.319	870.659	660.507
266.380	16.320	869.726	659.743
267.395	16.240	869.453	659.166
268.409	16.301	868.374	658.527
269.424	16.262	867.897	657.954
270.439	16.248	867.101	657.240
271.453	16.122	866.323	656.101
272.468	16.128	866.150	655.935
273.482	16.359	865.077	655.959
274.497	16.291	864.931	655.526
275.512	16.289	863.962	654.729
276.526	16.328	863.645	654.582
277.541	16.363	863.196	654.317
278.555	16.379	862.930	654.122
279.570	16.592	862.097	654.256
280.585	16.489	861.166	653.095
281.599	16.395	860.677	652.303
282.614	16.415	859.852	651.697
283.628	16.464	859.413	651.494
284.643	16.443	858.763	650.865
285.657	16.490	858.262	650.607
286.672	16.404	857.223	649.432
287.687	16.437	857.268	649.534
288.701	16.594	856.415	649.434
289.716	16.381	856.060	648.291
290.730	16.467	855.473	648.117
291.745	16.586	854.861	648.053
292.760	16.528	854.318	647.360
293.774	16.675	853.478	647.230
294.789	16.612	853.263	646.769
295.803	16.635	852.040	645.872
296.818	16.526	851.359	644.882
297.833	16.635	850.808	644.824
298.847	16.562	850.147	643.990
299.862	16.637	849.665	643.849
300.876	16.697	849.391	643.813
301.891	16.719	848.745	643.353
302.906	16.730	848.299	643.000
303.920	16.811	847.920	642.963
304.935	16.974	846.963	642.799
305.949	16.894	846.554	642.127
306.964	16.814	845.812	641.206
307.979	16.910	845.159	641.017
308.993	16.857	845.006	640.642
310.008	16.954	843.909	640.121
311.022	16.758	843.646	639.125
312.037	16.591	843.034	637.976
313.052	16.801	842.358	638.199
314.066	16.639	841.758	637.076
315.081	16.560	841.446	636.488
316.095	16.791	840.330	636.453
317.110	16.830	839.796	636.142
318.125	16.704	839.414	635.323
319.139	16.736	839.140	635.178
320.154	16.665	838.947	634.711
321.168	16.767	837.889	634.234
322.183	16.822	837.575	634.148
323.197	16.803	836.907	633.516
324.212	16.926	836.368	633.511
325.227	16.889	835.600	632.734
326.241	16.889	835.025	632.242
327.256	16.836	834.859	631.862
328.270	16.863	834.263	631.458
329.285	16.847	833.627	630.860
330.300	16.829	833.087	630.328
331.314	16.853	832.538	629.947
332.329	16.899	832.316	629.893
333.343	17.067	831.639	629.948
334.358	16.991	831.630	629.604
335.373	17.058	831.020	629.335
336.387	17.111	830.654	629.198
337.402	17.078	830.397	628.825
338.416	17.313	829.968	629.315
339.431	17.302	829.407	628.794
340.446	17.198	829.255	628.237
341.460	17.401	828.764	628.559
342.475	17.486	828.540	628.649
343.489	17.339	828.436	627.972
344.504	17.530	827.468	627.888
345.519	17.525	827.409	627.768
346.533	17.533	826.422	626.993
347.548	17.302	825.770	625.592
348.562	17.511	824.800	625.569
349.577	17.220	824.652	624.335
350.592	17.196	824.114	623.784
351.606	17.332	823.361	623.658
352.621	17.352	822.740	623.206
353.635	17.308	822.397	622.730
354.650	17.382	821.686	622.404
355.665	17.441	821.276	622.257
356.679	17.454	820.561	621.709
357.694	17.422	819.503	620.735
358.708	17.496	819.150	620.682
359.723	17.517	818.648	620.323
360.738	17.495	818.041	619.728
361.752	17.461	817.859	619.412
362.767	17.532	817.353	619.233
363.781	17.707	816.273	618.995
364.796	17.758	816.110	618.999
365.810	17.662	816.031	618.535
366.825	17.782	815.694	618.663
367.840	17.723	815.287	618.086
368.854	17.688	814.664	617.432
369.869	17.590	814.340	616.777
370.883	17.735	813.470	616.589
371.898	17.809	813.284	616.660
372.913	17.859	813.108	616.650
373.927	17.814	812.201	615.746
374.942	17.855	811.681	615.444
375.956	17.826	811.915	615.465
376.971	18.001	810.855	615.237
377.986	18.006	810.106	614.631
379.000	18.102	809.971	614.820
380.015	18.015	809.751	614.288
381.029	17.943	809.434	613.734
382.044	18.066	808.324	613.279
383.059	18.149	807.532	612.920
384.073	18.050	806.879	612.018
385.088	18.017	806.788	611.776
386.102	17.880	806.173	610.766
387.117	17.913	805.603	610.395
388.132	17.929	804.694	609.711
389.146	18.050	804.501	609.944
390.161	18.061	804.170	609.677
391.175	18.114	803.825	609.551
392.190	18.062	803.225	608.855
393.205	18.053	802.706	608.377
394.219	17.978	802.339	607.776
395.234	17.919	801.854	607.147
396.248	17.794	801.724	606.551
397.263	17.849	800.931	606.091
398.278	17.942	800.909	606.350
399.292	17.932	800.107	605.657
400.307	17.967	799.542	605.297
401.321	17.910	799.464	604.984
402.336	18.098	798.578	604.925
403.350	18.122	798.262	604.717
404.365	18.185	798.294	604.912
405.380	18.170	797.834	604.455
406.394	18.269	796.740	603.922
407.409	18.384	796.769	604.298
408.423	18.326	796.353	603.722
409.438	18.431	795.904	603.701
410.453	18.399	795.735	603.405
411.467	18.556	795.051	603.386
412.482	18.420	794.799	602.664
413.496	18.455	794.665	602.633
414.511	18.477	794.000	602.149
415.526	18.470	793.581	601.754
416.540	18.369	793.109	600.991
417.555	18.534	792.594	601.126
418.569	18.453	792.384	600.629
419.584	18.609	791.589	600.519
420.599	18.558	791.131	599.940
421.613	156.507	1370.748	1794.625
422.628	135.411	1455.178	1794.715
