DTS Sentinel unit serial number:	SN413079Multiplexer serial number:	ORYXHardware model number:	OX4-SRSoftware version number:	ORYX F/W v4.00 Oryx Data Collector v3.7.2.0data status	okinstallation	princeton_trtdifferential loss correction	single-endedforward channel	channel 1reverse channel	N/Adate	2019/09/14time	07:50:35forward acquisition time	60.00reverse acquisition time	0.00gamma	496.2192k internal	0.2335k external	0.2335temperature offset calibration	1.0071default loss term (dB/km)	0.3790temperature slope calibration	1.0000multiplexer offset coefficient	1.0000multiplexer slope coefficient	1.0000fibre end	0.00T internal ref (°C)	26.50T ext. ref 1 (°C)	3.51T ext. ref 2 (°C)	23.08length (m)	temperature (°C)	Stokes	anti-Stokes-747.200	507.802	0.139	0.324
-746.185	-123.652	-0.122	-0.019
-745.171	7.829	0.119	-0.090
-744.156	103.247	-0.091	0.107
-743.142	-200.000	-0.028	0.308
-742.127	306.471	-0.046	-0.086
-741.112	-108.290	-0.350	0.076
-740.098	-49.782	0.132	0.063
-739.083	-143.868	-0.340	-0.032
-738.069	-200.000	0.012	0.126
-737.054	83.382	0.189	0.207
-736.039	-109.716	-0.267	-0.056
-735.025	37.458	-0.094	-0.083
-734.010	655.507	0.098	-0.252
-732.996	-58.634	-0.086	-0.038
-731.981	-81.051	0.164	0.054
-730.966	-200.000	0.077	-0.370
-729.952	8.264	-0.305	-0.230
-728.937	-200.000	0.061	-0.415
-727.923	14.410	0.162	0.127
-726.908	-138.888	0.312	-0.034
-725.894	-113.844	-0.211	0.041
-724.879	10.554	0.217	0.166
-723.864	-200.000	0.018	-0.094
-722.850	-200.000	-0.019	-0.159
-721.835	-200.000	-0.006	0.177
-720.821	579.717	-0.059	0.145
-719.806	-131.495	-0.206	-0.027
-718.791	16.172	-0.166	-0.131
-717.777	-170.658	0.227	0.008
-716.762	-7.608	0.117	-0.080
-715.748	65.441	-0.269	-0.274
-714.733	-140.438	0.427	-0.045
-713.718	-46.333	-0.316	-0.156
-712.704	-200.000	0.012	-0.099
-711.689	427.593	-0.032	0.070
-710.675	393.428	0.033	0.069
-709.660	-200.000	0.088	-0.387
-708.645	319.197	-0.071	0.135
-707.631	73.610	-0.098	0.103
-706.616	-22.750	0.371	0.225
-705.602	398.026	0.127	-0.267
-704.587	-78.629	-0.238	-0.081
-703.572	-101.858	0.110	0.027
-702.558	-146.321	-0.355	0.031
-701.543	-146.116	0.277	-0.024
-700.529	-80.677	0.099	-0.033
-699.514	4.441	-0.166	0.122
-698.499	-57.431	-0.308	-0.136
-697.485	713.171	0.108	-0.286
-696.470	-200.000	0.009	0.193
-695.456	89.817	0.200	-0.224
-694.441	50.639	0.123	-0.117
-693.426	-187.449	-0.253	-0.003
-692.412	-6.116	0.165	-0.113
-691.397	600.241	-0.172	0.428
-690.383	394.000	-0.046	0.096
-689.368	127.682	-0.328	-0.418
-688.354	35.155	-0.118	0.104
-687.339	-83.697	0.458	-0.147
-686.324	-3.404	-0.159	0.111
-685.310	-53.292	-0.290	0.133
-684.295	-47.374	-0.176	-0.086
-683.281	-200.000	-0.038	-0.330
-682.266	-39.307	-0.342	0.180
-681.251	172.355	0.054	0.078
-680.237	74.634	0.379	-0.400
-679.222	-148.922	0.117	-0.009
-678.208	-200.000	-0.006	-0.504
-677.193	-101.321	-0.307	-0.075
-676.178	702.033	0.127	-0.335
-675.164	47.187	0.030	-0.028
-674.149	37.846	0.195	-0.174
-673.135	0.006	-0.252	-0.180
-672.120	332.651	-0.185	-0.359
-671.105	733.676	-0.042	-0.113
-670.091	-131.285	-0.325	-0.043
-669.076	-200.000	-0.010	0.046
-668.062	-200.000	0.005	0.325
-667.047	-200.000	0.026	0.174
-666.032	221.679	-0.116	-0.187
-665.018	328.661	0.210	-0.404
-664.003	-0.451	-0.021	-0.015
-662.989	-200.000	0.048	-0.248
-661.974	170.302	-0.241	-0.346
-660.959	148.731	-0.264	-0.357
-659.945	-113.912	0.256	-0.050
-658.930	-42.812	-0.185	-0.094
-657.916	800.000	0.082	-0.335
-656.901	539.037	0.071	-0.170
-655.886	-129.002	0.299	0.042
-654.872	-200.000	0.019	-0.294
-653.857	-186.901	-0.278	0.004
-652.843	-91.686	-0.304	0.087
-651.828	-134.851	0.290	-0.035
-650.814	26.275	0.141	0.118
-649.799	279.505	-0.114	0.204
-648.784	-57.036	0.047	-0.021
-647.770	800.000	0.126	-0.370
-646.755	33.892	-0.111	0.097
-645.741	-136.049	0.268	-0.031
-644.726	-0.462	-0.092	-0.065
-643.711	-91.997	-0.147	0.042
-642.697	586.157	-0.076	-0.188
-641.682	-23.561	0.073	-0.044
-640.668	800.000	-0.074	-0.261
-639.653	154.443	-0.209	-0.288
-638.638	-40.914	0.168	0.087
-637.624	182.646	-0.088	0.130
-636.609	134.467	-0.153	0.199
-635.595	-143.951	0.208	-0.020
-634.580	800.000	-0.035	0.124
-633.565	800.000	-0.091	-0.333
-632.551	66.534	-0.049	0.050
-631.536	0.877	0.268	-0.192
-630.522	-91.704	-0.119	-0.034
-629.507	224.990	0.023	0.037
-628.492	87.460	0.095	0.105
-627.478	-122.166	0.153	-0.025
-626.463	-145.706	-0.288	0.026
-625.449	36.664	0.037	-0.033
-624.434	800.000	0.056	0.218
-623.419	3.214	-0.234	0.170
-622.405	-117.495	-0.277	-0.050
-621.390	-200.000	0.006	-0.128
-620.376	-200.000	0.031	-0.278
-619.361	-143.367	0.318	0.030
-618.346	-200.000	0.027	0.120
-617.332	67.929	0.065	0.067
-616.317	800.000	0.034	0.128
-615.303	-164.227	-0.335	-0.015
-614.288	100.318	0.011	0.012
-613.273	800.000	0.028	0.103
-612.259	222.782	-0.083	0.134
-611.244	247.852	0.108	-0.182
-610.230	-22.408	0.066	-0.040
-609.215	-64.800	0.283	0.114
-608.201	142.333	-0.097	0.129
-607.186	56.671	0.229	-0.223
-606.171	-188.500	0.240	0.003
-605.157	800.000	-0.060	0.227
-604.142	-106.178	0.346	-0.077
-603.128	211.132	0.099	0.156
-602.113	-117.229	0.164	0.030
-601.098	64.922	0.215	-0.217
-600.084	278.960	-0.103	0.184
-599.069	-123.159	-0.266	0.043
-598.055	-200.000	0.078	0.354
-597.040	-5.625	-0.226	0.155
-596.025	-39.190	-0.308	-0.162
-595.011	-32.595	-0.457	0.254
-593.996	185.465	0.077	0.115
-592.982	-125.467	0.026	0.004
-591.967	-200.000	0.071	0.367
-590.952	232.036	-0.091	0.149
-589.938	5.420	0.251	0.185
-588.923	800.000	0.078	-0.222
-587.909	-200.000	0.004	-0.284
-586.894	327.206	-0.071	-0.136
-585.879	-200.000	0.021	0.220
-584.865	-200.000	0.046	0.268
-583.850	-93.941	-0.269	-0.074
-582.836	220.917	0.153	0.245
-581.821	-156.457	0.486	-0.030
-580.806	-200.000	-0.009	0.073
-579.792	141.943	-0.219	-0.289
-578.777	13.784	-0.250	-0.194
-577.763	350.911	-0.012	-0.024
-576.748	128.433	0.032	-0.040
-575.733	-2.793	0.223	-0.156
-574.719	-26.699	0.200	-0.117
-573.704	-200.000	0.017	0.131
-572.690	328.932	-0.172	-0.329
-571.675	118.153	-0.036	-0.044
-570.661	-200.000	-0.003	0.136
-569.646	-106.528	0.207	-0.046
-568.631	-137.905	-0.145	-0.016
-567.617	-77.507	0.206	-0.071
-566.602	-73.360	-0.233	-0.085
-565.588	616.299	0.119	-0.298
-564.573	-80.106	0.211	-0.071
-563.558	114.784	0.162	-0.197
-562.544	191.297	0.033	0.049
-561.529	138.350	-0.157	0.205
-560.515	-163.031	-0.283	-0.014
-559.500	-136.410	0.078	-0.009
-558.485	-200.000	0.002	-0.058
-557.471	-200.000	-0.002	0.205
-556.456	338.160	-0.157	0.305
-555.442	-93.307	-0.102	-0.028
-554.427	5.964	-0.084	-0.062
-553.412	-197.641	0.312	-0.002
-552.398	-144.380	0.454	0.042
-551.383	509.316	0.038	0.089
-550.369	704.705	-0.083	0.218
-549.354	79.250	-0.179	0.191
-548.339	198.913	0.210	-0.320
-547.325	-102.371	0.183	0.044
-546.310	34.969	-0.038	0.033
-545.296	800.000	-0.017	0.071
-544.281	308.379	0.045	0.084
-543.266	283.033	-0.158	-0.282
-542.252	-41.483	0.303	-0.156
-541.237	-97.463	-0.234	-0.061
-540.223	-33.261	-0.069	-0.038
-539.208	-143.731	-0.120	0.011
-538.193	-26.195	-0.066	0.039
-537.179	-121.574	0.385	-0.064
-536.164	-62.430	-0.168	-0.070
-535.150	-144.947	-0.235	0.021
-534.135	-69.297	-0.380	-0.145
-533.121	-172.373	0.093	-0.003
-532.106	183.996	-0.139	0.205
-531.091	215.164	-0.019	-0.030
-530.077	-200.000	-0.039	0.219
-529.062	528.585	-0.102	-0.240
-528.048	773.917	-0.103	0.280
-527.033	28.586	0.176	-0.149
-526.018	800.000	0.022	-0.088
-525.004	-78.217	0.187	-0.064
-523.989	-47.008	-0.268	-0.130
-522.975	-200.000	0.028	0.228
-521.960	-200.000	0.063	0.608
-520.945	2.105	0.254	0.182
-519.931	-75.944	-0.249	0.088
-518.916	-200.000	0.010	-0.207
-517.902	43.943	0.273	-0.250
-516.887	143.857	-0.250	-0.332
-515.872	1.860	0.104	-0.075
-514.858	111.947	-0.090	-0.109
-513.843	135.435	-0.137	-0.178
-512.829	-200.000	0.037	-0.387
-511.814	-59.274	-0.175	0.075
-510.799	800.000	0.036	0.146
-509.785	-59.233	-0.306	-0.131
-508.770	587.160	-0.153	-0.375
-507.756	455.368	0.033	-0.074
-506.741	-200.000	-0.010	0.186
-505.726	197.600	-0.190	-0.288
-504.712	-67.873	0.084	0.033
-503.697	7.595	-0.066	0.049
-502.683	-170.472	0.073	0.003
-501.668	-138.601	0.244	0.027
-500.653	-200.000	-0.073	-0.362
-499.639	800.000	-0.041	-0.147
-498.624	-77.879	0.253	0.087
-497.610	780.313	-0.039	-0.106
-496.595	110.102	-0.081	0.097
-495.581	-144.899	0.245	-0.022
-494.566	-126.619	0.176	0.026
-493.551	143.948	0.109	-0.145
-492.537	-114.020	0.045	0.009
-491.522	-89.390	0.369	0.108
-490.508	-55.622	0.113	0.050
-489.493	-81.280	-0.210	0.069
-488.478	-88.300	0.133	0.040
-487.464	25.449	-0.258	0.214
-486.449	93.091	-0.057	0.064
-485.435	-200.000	0.035	-0.179
-484.420	335.728	0.011	-0.021
-483.405	624.272	-0.059	-0.148
-482.391	-165.490	-0.192	0.008
-481.376	28.900	-0.127	-0.107
-480.362	-173.102	0.048	-0.001
-479.347	800.000	-0.045	-0.168
-478.332	110.769	-0.179	0.214
-477.318	18.729	-0.308	0.245
-476.303	-4.880	0.052	0.035
-475.289	800.000	0.004	-0.017
-474.274	-148.857	-0.317	-0.026
-473.259	-94.564	-0.249	0.067
-472.245	-51.134	-0.098	-0.046
-471.230	-39.046	-0.062	0.033
-470.216	188.865	0.067	-0.100
-469.201	-64.593	-0.260	0.105
-468.186	7.546	0.092	-0.068
-467.172	256.675	0.140	0.240
-466.157	85.833	0.396	-0.433
-465.143	137.511	0.116	-0.151
-464.128	-99.098	0.337	-0.085
-463.113	56.853	-0.292	0.282
-462.099	-200.000	0.039	0.199
-461.084	-200.000	-0.011	0.335
-460.070	-200.000	-0.044	0.300
-459.055	-80.714	-0.210	0.069
-458.040	-200.000	0.063	-0.277
-457.026	-142.335	0.268	0.026
-456.011	37.767	0.168	0.149
-454.997	-126.626	-0.057	0.008
-453.982	-1.977	-0.087	0.061
-452.968	-73.455	0.054	0.020
-451.953	800.000	0.047	-0.164
-450.938	158.868	-0.091	-0.126
-449.924	-200.000	0.000	-0.405
-448.909	-18.769	0.190	-0.118
-447.895	-187.794	-0.082	0.001
-446.880	-200.000	-0.005	-0.095
-445.865	800.000	0.061	-0.247
-444.851	13.758	-0.190	0.147
-443.836	210.819	-0.209	0.326
-442.822	21.293	0.234	-0.188
-441.807	-72.119	0.083	0.030
-440.792	-111.034	0.049	0.010
-439.778	-200.000	-0.019	-0.124
-438.763	-71.500	0.193	0.072
-437.749	-21.135	-0.258	-0.156
-436.734	-100.297	0.172	-0.042
-435.719	111.443	0.140	-0.168
-434.705	-200.000	-0.013	0.121
-433.690	-200.000	0.006	0.141
-432.676	-123.907	0.234	-0.037
-431.661	4.362	0.200	0.145
-430.646	-64.792	0.098	0.039
-429.632	449.143	-0.101	-0.221
-428.617	-36.013	-0.186	0.100
-427.603	297.823	0.177	0.323
-426.588	-200.000	0.014	-0.303
-425.573	76.245	-0.093	0.097
-424.559	-72.006	-0.267	-0.099
-423.544	-40.427	0.133	0.068
-422.530	286.473	-0.066	0.118
-421.515	-200.000	-0.042	-0.225
-420.500	250.444	0.099	0.166
-419.486	-148.995	-0.258	-0.021
-418.471	-65.977	0.306	0.121
-417.457	-62.942	-0.303	0.124
-416.442	170.737	-0.075	-0.107
-415.428	273.952	-0.056	-0.099
-414.413	29.252	-0.020	0.016
-413.398	-200.000	-0.023	0.180
-412.384	53.300	-0.104	0.099
-411.369	-200.000	-0.011	-0.147
-410.355	320.587	0.074	0.140
-409.340	-101.759	0.087	0.021
-408.325	-43.537	0.143	0.072
-407.311	-181.331	-0.242	-0.005
-406.296	30.043	0.093	-0.078
-405.282	29.468	0.111	0.094
-404.267	347.521	0.092	0.180
-403.252	19.299	-0.222	-0.177
-402.238	645.535	0.172	-0.436
-401.223	-200.000	0.100	-0.472
-400.209	-62.587	0.285	-0.117
-399.194	268.183	-0.086	-0.150
-398.179	-200.000	-0.022	0.285
-397.165	218.805	0.355	-0.563
-396.150	800.000	-0.015	-0.047
-395.136	-10.803	0.216	-0.142
-394.121	-4.909	-0.076	-0.052
-393.106	42.509	0.070	0.063
-392.092	293.008	-0.034	0.061
-391.077	-200.000	0.046	-0.364
-390.063	104.893	0.278	0.325
-389.048	-74.974	0.142	-0.050
-388.033	272.651	0.046	-0.081
-387.019	-200.000	-0.015	-0.274
-386.004	-200.000	-0.004	-0.311
-384.990	-200.000	-0.007	-0.239
-383.975	-24.350	-0.215	-0.127
-382.960	-60.378	-0.161	-0.068
-381.946	-9.221	0.213	0.141
-380.931	-154.938	0.155	0.010
-379.917	723.186	0.060	-0.158
-378.902	-101.527	-0.227	0.055
-377.888	-200.000	-0.062	0.300
-376.873	-200.000	0.024	0.155
-375.858	690.163	-0.107	-0.277
-374.844	1.095	0.147	0.104
-373.829	800.000	-0.062	-0.260
-372.815	106.307	-0.017	0.020
-371.800	-24.392	-0.166	0.098
-370.785	50.650	-0.251	0.235
-369.771	722.377	0.106	0.279
-368.756	55.730	-0.214	0.205
-367.742	-97.882	-0.331	-0.085
-366.727	467.682	-0.057	0.126
-365.712	22.011	0.075	0.060
-364.698	37.768	0.209	-0.183
-363.683	800.000	0.051	0.185
-362.669	-82.960	0.060	0.019
-361.654	-53.611	0.044	0.020
-360.639	417.885	-0.123	0.260
-359.625	-178.204	0.114	-0.003
-358.610	71.501	-0.245	0.252
-357.596	-28.737	0.248	0.141
-356.581	24.534	0.192	0.157
-355.566	-200.000	0.007	0.178
-354.552	-200.000	-0.009	0.143
-353.537	-200.000	-0.024	-0.143
-352.523	150.138	0.067	-0.090
-351.508	-200.000	-0.025	-0.160
-350.493	-25.236	-0.250	0.146
-349.479	587.066	-0.080	0.195
-348.464	30.069	0.190	-0.160
-347.450	555.586	0.066	0.156
-346.435	-2.527	-0.130	0.090
-345.420	-200.000	0.037	-0.241
-344.406	-123.351	-0.156	0.025
-343.391	643.919	0.023	-0.059
-342.377	9.003	0.196	0.147
-341.362	-119.761	0.352	-0.060
-340.348	800.000	0.101	-0.351
-339.333	63.586	-0.224	-0.223
-338.318	800.000	0.037	0.103
-337.304	50.647	0.093	-0.087
-336.289	-52.903	-0.181	-0.082
-335.275	221.249	0.068	-0.108
-334.260	-200.000	0.024	0.130
-333.245	-108.538	0.322	-0.068
-332.231	-39.887	-0.114	0.059
-331.216	-141.940	0.083	0.008
-330.202	-47.722	0.125	-0.060
-329.187	-117.826	0.266	-0.047
-328.172	-37.452	-0.248	-0.131
-327.158	-83.010	0.288	0.092
-326.143	-93.416	-0.188	0.052
-325.129	-78.663	-0.022	-0.007
-324.114	66.606	-0.104	0.105
-323.099	34.131	0.321	0.277
-322.085	123.004	-0.080	-0.099
-321.070	-26.963	-0.165	0.095
-320.056	-95.153	0.325	0.087
-319.041	-106.419	-0.255	-0.056
-318.026	-200.000	0.025	-0.132
-317.012	752.813	-0.110	-0.293
-315.997	425.357	-0.105	-0.223
-314.983	-41.756	0.144	-0.073
-313.968	-5.826	0.240	0.162
-312.953	-19.101	-0.237	0.145
-311.939	133.356	0.149	0.191
-310.924	-200.000	-0.008	0.107
-309.910	-200.000	0.018	0.133
-308.895	-105.564	-0.534	-0.120
-307.880	-200.000	0.032	0.463
-306.866	-22.541	-0.229	0.137
-305.851	-200.000	-0.015	-0.192
-304.837	-53.904	0.039	0.017
-303.822	9.730	0.130	0.097
-302.807	-200.000	-0.005	-0.166
-301.793	160.262	-0.070	-0.096
-300.778	-42.829	-0.435	0.218
-299.764	-114.516	-0.117	-0.022
-298.749	-93.650	-0.172	-0.047
-297.735	397.761	-0.048	-0.099
-296.720	72.152	0.196	0.201
-295.705	-200.000	0.038	0.206
-294.691	800.000	0.062	0.182
-293.676	800.000	-0.023	0.076
-292.662	-121.132	-0.496	0.082
-291.647	132.233	0.180	-0.229
-290.632	546.777	0.124	-0.292
-289.618	58.856	-0.198	-0.192
-288.603	650.785	0.112	0.282
-287.589	33.011	-0.211	0.181
-286.574	36.986	-0.325	-0.284
-285.559	16.071	-0.385	0.300
-284.545	-200.000	0.014	-0.108
-283.530	90.989	-0.251	0.278
-282.516	-127.662	-0.286	0.041
-281.501	-200.000	0.004	0.147
-280.486	306.370	0.108	0.198
-279.472	-126.777	-0.190	0.028
-278.457	176.054	0.143	-0.205
-277.443	-147.362	-0.220	-0.018
-276.428	-200.000	-0.057	0.547
-275.413	-154.949	0.343	-0.022
-274.399	-46.971	0.201	-0.097
-273.384	800.000	0.101	0.289
-272.370	76.979	0.256	0.268
-271.355	113.391	-0.192	-0.229
-270.340	-49.631	0.281	0.132
-269.326	-17.630	0.059	0.036
-268.311	-0.169	0.245	-0.172
-267.297	-53.475	-0.388	-0.175
-266.282	369.904	-0.046	-0.093
-265.267	573.595	-0.056	-0.134
-264.253	53.322	0.176	0.166
-263.238	162.467	0.187	0.258
-262.224	190.314	0.277	0.410
-261.209	77.566	-0.193	-0.202
-260.195	252.745	-0.195	-0.328
-259.180	800.000	-0.073	0.216
-258.165	-84.649	0.499	-0.155
-257.151	44.368	-0.143	0.129
-256.136	239.598	-0.064	0.105
-255.122	-35.224	0.329	-0.177
-254.107	-110.276	0.196	-0.040
-253.092	-172.642	0.090	-0.003
-252.078	-200.000	0.019	0.190
-251.063	64.606	-0.085	-0.085
-250.049	158.851	-0.083	0.113
-249.034	-33.374	-0.181	0.098
-248.019	-136.692	-0.248	0.028
-247.005	-48.305	-0.265	-0.126
-245.990	14.302	-0.119	0.091
-244.976	-200.000	0.051	0.224
-243.961	217.545	0.101	0.159
-242.946	-200.000	-0.003	-0.133
-241.932	-200.000	-0.022	0.188
-240.917	-200.000	-0.007	-0.144
-239.903	-200.000	0.040	-0.525
-238.888	107.025	0.024	-0.028
-237.873	800.000	0.027	-0.080
-236.859	-72.138	-0.206	-0.075
-235.844	189.671	-0.227	-0.335
-234.830	-200.000	-0.032	-0.138
-233.815	-200.000	0.006	-0.260
-232.800	20.012	-0.158	0.126
-231.786	149.431	0.056	-0.075
-230.771	-200.000	-0.007	-0.213
-229.757	-68.039	0.063	0.024
-228.742	-200.000	-0.007	-0.117
-227.727	-200.000	0.014	0.094
-226.713	-200.000	-0.051	0.223
-225.698	-72.368	0.229	-0.083
-224.684	70.091	-0.097	0.099
-223.669	-200.000	-0.070	-0.389
-222.655	-113.363	-0.300	-0.058
-221.640	800.000	0.023	0.080
-220.625	33.194	0.045	0.038
-219.611	455.523	-0.050	-0.110
-218.596	-200.000	0.008	0.062
-217.582	-123.324	0.215	-0.034
-216.567	-74.452	-0.016	0.006
-215.552	502.639	0.107	0.243
-214.538	-73.008	0.152	0.055
-213.523	509.985	-0.105	-0.239
-212.509	215.723	0.199	0.311
-211.494	-200.000	-0.057	-0.251
-210.479	251.702	0.235	-0.394
-209.465	-200.000	0.032	-0.147
-208.450	-56.360	0.041	-0.018
-207.436	71.375	-0.134	-0.137
-206.421	-75.337	-0.139	-0.049
-205.406	35.541	0.117	-0.101
-204.392	371.541	0.039	0.077
-203.377	239.621	-0.142	0.233
-202.363	800.000	0.058	0.208
-201.348	8.564	-0.141	0.105
-200.333	-200.000	-0.022	0.111
-199.319	-200.000	0.029	0.158
-198.304	-200.000	-0.013	-0.193
-197.290	284.684	0.068	0.120
-196.275	-29.211	0.254	0.143
-195.260	-154.432	-0.252	0.017
-194.246	-80.781	0.238	0.078
-193.231	-151.658	-0.031	0.002
-192.217	-15.619	-0.157	0.098
-191.202	-12.459	-0.146	0.094
-190.187	119.892	0.036	-0.044
-189.173	-200.000	-0.020	-0.184
-188.158	421.688	0.082	0.172
-187.144	7.978	0.141	0.104
-186.129	-200.000	-0.035	0.442
-185.114	-200.000	0.012	-0.230
-184.100	32.126	-0.236	-0.200
-183.085	-200.000	-0.000	0.032
-182.071	-129.520	-0.295	0.040
-181.056	216.324	-0.106	0.166
-180.042	-50.161	0.274	0.127
-179.027	-3.485	0.237	0.162
-178.012	800.000	-0.114	-0.392
-176.998	-26.133	-0.083	0.048
-175.983	-200.000	0.012	0.057
-174.969	-139.654	-0.103	-0.011
-173.954	345.620	0.080	-0.154
-172.939	44.426	0.063	-0.057
-171.925	-200.000	-0.014	-0.100
-170.910	-158.877	-0.225	-0.013
-169.896	43.002	-0.165	0.147
-168.881	-80.816	0.137	0.045
-167.866	800.000	0.012	-0.047
-166.852	91.514	-0.146	0.161
-165.837	-60.926	0.141	0.058
-164.823	-138.277	-0.258	-0.028
-163.808	195.674	0.144	-0.215
-162.793	40.669	0.211	-0.187
-161.779	-76.790	0.453	0.156
-160.764	726.293	-0.076	-0.200
-159.750	413.721	-0.045	0.094
-158.735	-200.000	-0.047	0.295
-157.720	-116.841	-0.087	0.016
-156.706	-200.000	-0.050	0.312
-155.691	-78.623	0.367	-0.123
-154.677	-101.846	0.437	-0.104
-153.662	-75.257	-0.332	0.116
-152.647	-200.000	0.031	-0.312
-151.633	398.967	0.207	0.427
-150.618	-60.512	0.357	-0.149
-149.604	-200.000	0.011	-0.162
-148.589	-82.185	-0.217	0.069
-147.574	145.874	0.082	0.108
-146.560	-200.000	0.084	0.507
-145.545	-79.407	0.114	-0.038
-144.531	800.000	0.073	-0.295
-143.516	-200.000	0.030	-0.203
-142.502	-147.650	-0.402	0.033
-141.487	-41.732	0.371	0.187
-140.472	204.376	-0.156	-0.237
-139.458	-142.554	0.302	-0.029
-138.443	8.534	-0.129	-0.095
-137.429	190.565	-0.086	-0.127
-136.414	-36.835	0.117	-0.061
-135.399	182.425	-0.167	-0.242
-134.385	-200.000	-0.046	-0.266
-133.370	800.000	0.147	0.432
-132.356	749.570	0.073	0.194
-131.341	155.050	-0.075	-0.101
-130.326	22.162	-0.156	-0.125
-129.312	-200.000	-0.022	0.179
-128.297	800.000	-0.008	-0.024
-127.283	-19.175	-0.068	-0.042
-126.268	-91.855	-0.341	-0.095
-125.253	-101.407	-0.125	-0.030
-124.239	159.488	-0.049	-0.067
-123.224	-51.950	-0.335	-0.153
-122.210	118.371	0.289	-0.349
-121.195	-28.708	0.255	-0.144
-120.180	-72.149	0.278	-0.101
-119.166	-3.647	0.148	0.101
-118.151	-200.000	-0.008	-0.295
-117.137	-81.842	-0.016	0.005
-116.122	800.000	-0.070	-0.200
-115.107	-58.391	0.153	-0.065
-114.093	-79.103	0.122	0.041
-113.078	-74.850	0.156	-0.055
-112.064	228.497	0.081	0.129
-111.049	50.799	0.082	-0.076
-110.034	-200.000	-0.034	0.297
-109.020	-79.575	0.121	0.040
-108.005	-200.000	-0.035	-0.245
-106.991	-177.008	-0.224	0.006
-105.976	-200.000	-0.027	-0.330
-104.962	126.062	-0.116	-0.144
-103.947	116.441	-0.298	-0.358
-102.932	31.339	0.190	-0.160
-101.918	154.354	-0.048	-0.065
-100.903	-200.000	0.031	0.148
-99.889	-140.019	0.184	0.019
-98.874	-62.007	-0.369	0.151
-97.859	-200.000	0.001	0.062
-96.845	289.762	-0.148	-0.262
-95.830	800.000	-0.028	0.106
-94.816	-96.142	0.172	0.045
-93.801	254.030	-0.133	0.223
-92.786	-176.826	0.120	0.003
-91.772	92.545	-0.315	0.348
-90.757	747.767	0.039	-0.104
-89.743	800.000	0.019	-0.065
-88.728	-199.342	-0.111	-0.001
-87.713	800.000	-0.020	-0.057
-86.699	-200.000	-0.015	-0.244
-85.684	703.240	-0.130	-0.334
-84.670	249.216	0.251	-0.416
-83.655	190.112	0.146	0.215
-82.640	404.064	-0.171	0.353
-81.626	27.306	-0.009	0.007
-80.611	-155.765	0.510	-0.032
-79.597	394.331	-0.185	0.377
-78.582	-67.274	0.141	-0.054
-77.567	-63.402	0.282	0.114
-76.553	10.143	0.240	0.178
-75.538	-8.030	0.201	-0.133
-74.524	-8.799	0.021	-0.014
-73.509	4.507	-0.283	-0.203
-72.494	-142.142	0.274	0.027
-71.480	-200.000	-0.039	-0.333
-70.465	-62.724	0.340	-0.138
-69.451	262.253	-0.124	-0.210
-68.436	239.650	-0.120	-0.195
-67.422	134.227	0.095	0.121
-66.407	-165.912	0.135	0.006
-65.392	92.549	-0.133	-0.147
-64.378	-40.247	-0.286	-0.146
-63.363	-26.456	0.333	0.191
-62.349	-153.902	-0.155	-0.010
-61.334	83.953	-0.977	-1.043
-60.319	55.802	0.432	0.410
-59.305	-200.000	-0.251	-1.313
-58.290	359.676	0.602	1.177
-57.276	517.819	0.652	1.493
-56.261	-200.000	116.471	658.472
-55.246	519.114	1541.339	3530.839
-54.232	174.694	2715.140	3842.024
-53.217	107.178	2162.673	2513.729
-52.203	38.470	1594.767	1390.188
-51.188	29.805	1336.760	1113.353
-50.173	27.003	1298.096	1064.703
-49.159	54.813	1356.310	1279.806
-48.144	52.833	1369.659	1280.532
-47.130	30.128	1324.159	1104.608
-46.115	26.756	1305.930	1069.499
-45.100	26.410	1300.974	1063.363
-44.086	26.320	1298.453	1060.732
-43.071	26.330	1296.153	1058.873
-42.057	26.306	1294.089	1057.005
-41.042	26.277	1292.363	1055.381
-40.027	26.353	1290.593	1054.339
-39.013	26.386	1288.876	1053.085
-37.998	26.303	1287.506	1051.441
-36.984	26.405	1285.617	1050.451
-35.969	26.497	1283.278	1049.030
-34.954	26.481	1281.602	1047.526
-33.940	26.483	1280.469	1046.570
-32.925	26.604	1278.988	1046.019
-31.911	26.513	1277.526	1044.251
-30.896	26.622	1275.985	1043.580
-29.881	26.679	1274.803	1042.899
-28.867	26.719	1273.452	1041.983
-27.852	26.604	1272.017	1040.108
-26.838	26.680	1270.465	1039.236
-25.823	26.537	1269.842	1037.864
-24.809	26.505	1268.289	1036.370
-23.794	26.611	1266.375	1035.370
-22.779	26.591	1264.956	1034.058
-21.765	26.591	1263.853	1033.111
-20.750	26.640	1262.595	1032.321
-19.736	26.432	1261.550	1030.245
-18.721	26.485	1260.688	1029.798
-17.706	26.494	1259.088	1028.505
-16.692	26.376	1258.277	1027.126
-15.677	26.531	1257.180	1027.070
-14.663	26.443	1256.010	1025.575
-13.648	26.448	1255.022	1024.757
-12.633	26.398	1254.041	1023.631
-11.619	26.476	1253.253	1023.389
-10.604	26.547	1251.876	1022.628
-9.590	26.453	1251.290	1021.576
-8.575	26.375	1250.468	1020.424
-7.560	26.419	1249.508	1019.849
-6.546	26.481	1248.518	1019.350
-5.531	26.425	1247.758	1018.374
-4.517	26.436	1247.210	1017.945
-3.502	26.491	1246.231	1017.418
-2.487	26.550	1244.937	1016.653
-1.473	26.484	1241.182	1013.173
-0.458	25.350	1226.586	994.941
0.556	22.609	1210.459	961.446
1.571	19.183	1218.405	948.831
2.586	18.500	1233.605	956.772
3.600	17.984	1222.038	944.865
4.615	13.411	1149.997	865.228
5.629	6.531	1078.555	777.568
6.644	3.668	1060.893	750.861
7.659	3.403	1058.945	748.131
8.673	3.449	1057.591	747.330
9.688	3.500	1056.038	746.413
10.702	3.745	1054.049	746.122
11.717	7.814	1059.892	769.919
12.731	15.049	1070.354	812.697
13.746	19.085	1074.591	835.471
14.761	19.384	1074.957	837.134
15.775	18.675	1073.031	832.126
16.790	17.553	1071.803	825.663
17.804	16.995	1069.526	821.133
18.819	16.609	1068.691	818.555
19.834	16.540	1067.934	817.569
20.848	16.366	1066.969	815.916
21.863	16.026	1066.500	813.847
22.877	15.840	1065.746	812.299
23.892	15.974	1064.650	812.039
24.907	15.920	1063.929	811.154
25.921	15.939	1063.117	810.559
26.936	15.895	1061.997	809.419
27.950	15.923	1060.328	808.210
28.965	16.106	1059.210	808.162
29.980	16.206	1057.471	807.245
30.994	16.274	1056.395	806.677
32.009	16.342	1055.070	805.920
33.023	16.207	1054.285	804.606
34.038	16.163	1053.143	803.449
35.053	15.992	1052.257	801.889
36.067	16.035	1051.521	801.461
37.082	16.042	1050.731	800.821
38.096	16.238	1049.971	801.102
39.111	16.219	1049.689	800.728
40.126	15.970	1047.708	797.965
41.140	15.736	1046.602	795.947
42.155	15.699	1045.389	794.779
43.169	15.731	1044.476	794.164
44.184	15.739	1043.297	793.237
45.199	15.680	1042.779	792.494
46.213	15.775	1041.736	792.078
47.228	15.920	1040.659	791.871
48.242	16.109	1039.375	791.711
49.257	16.095	1037.910	790.462
50.271	16.021	1037.589	789.797
51.286	16.068	1037.161	789.623
52.301	16.078	1035.559	788.379
53.315	15.878	1034.627	786.665
54.330	15.769	1033.683	785.372
55.344	15.917	1033.017	785.487
56.359	15.968	1031.638	784.606
57.374	15.826	1031.213	783.550
58.388	15.760	1030.111	782.339
59.403	15.778	1029.082	781.570
60.417	15.663	1028.520	780.540
61.432	15.627	1027.988	779.899
62.447	15.508	1026.840	778.410
63.461	15.628	1026.140	778.366
64.476	15.621	1024.952	777.366
65.490	15.654	1023.854	776.613
66.505	15.641	1023.608	776.297
67.520	15.713	1022.896	776.020
68.534	15.728	1022.037	775.373
69.549	15.756	1021.400	774.950
70.563	15.739	1020.218	773.906
71.578	15.462	1020.122	772.488
72.593	15.514	1019.087	771.875
73.607	15.477	1018.353	771.083
74.622	15.529	1017.537	770.632
75.636	15.603	1016.885	770.412
76.651	15.643	1015.911	769.790
77.666	15.651	1015.322	769.313
78.680	15.482	1015.028	768.247
79.695	15.537	1014.506	768.033
80.709	15.719	1013.869	768.318
81.724	15.758	1013.435	768.097
82.739	15.812	1012.310	767.423
83.753	15.918	1012.076	767.663
84.768	16.196	1010.978	768.027
85.782	16.232	1010.312	767.618
86.797	16.321	1008.683	766.714
87.812	16.027	1008.532	765.196
88.826	16.083	1007.211	764.382
89.841	16.054	1006.949	763.982
90.855	16.207	1005.415	763.444
91.870	16.151	1004.893	762.727
92.884	16.263	1003.650	762.223
93.899	16.158	1002.998	761.186
94.914	16.345	1001.967	761.176
95.928	16.212	1001.406	760.088
96.943	16.191	1000.105	758.935
97.957	16.027	1000.071	758.105
98.972	16.235	998.439	757.737
99.987	16.124	998.312	757.073
101.001	16.213	997.261	756.608
102.016	16.238	996.043	755.732
103.030	16.218	995.370	755.063
104.045	16.150	994.560	754.077
105.060	16.013	994.141	753.080
106.074	15.855	992.481	751.054
107.089	15.862	991.064	749.946
108.103	15.857	990.179	749.185
109.118	15.842	989.556	748.584
110.133	15.807	988.732	747.739
111.147	15.589	987.844	746.033
112.162	15.882	986.680	746.385
113.176	15.913	986.175	746.075
114.191	15.914	985.788	745.719
115.206	15.942	984.393	744.721
116.220	15.940	983.763	744.173
117.235	15.865	983.083	743.261
118.249	15.853	982.079	742.384
119.264	15.633	981.565	740.958
120.279	15.739	980.487	740.546
121.293	15.637	979.748	739.475
122.308	15.622	978.614	738.485
123.322	15.682	977.860	738.115
124.337	15.660	976.788	737.144
125.352	15.703	975.563	736.345
126.366	15.669	974.622	735.419
127.381	15.641	973.908	734.692
128.395	15.636	972.982	733.909
129.410	15.592	972.286	733.126
130.424	15.708	971.726	733.144
131.439	15.862	970.608	732.908
132.454	15.921	969.738	732.443
133.468	15.880	969.177	731.776
134.483	15.946	968.164	731.230
135.497	15.872	967.180	730.104
136.512	15.929	966.869	730.049
137.527	15.867	965.542	728.715
138.541	15.957	964.948	728.594
139.556	16.030	964.188	728.268
140.570	16.055	963.644	727.905
141.585	16.136	962.811	727.559
142.600	16.222	962.103	727.329
143.614	16.213	961.052	726.431
144.629	16.294	960.668	726.427
145.643	16.197	959.485	725.051
146.658	16.201	958.223	724.048
147.673	16.061	957.568	722.890
148.687	16.089	956.327	722.008
149.702	16.017	955.590	721.082
150.716	15.963	954.948	720.300
151.731	16.066	954.297	720.188
152.746	16.074	953.851	719.823
153.760	16.113	953.184	719.421
154.775	16.140	952.926	719.277
155.789	16.136	952.436	718.827
156.804	16.147	951.486	718.092
157.819	16.229	950.782	717.845
158.833	16.367	949.836	717.658
159.848	16.467	949.042	717.418
160.862	16.350	948.523	716.463
161.877	16.085	947.016	714.138
162.892	15.914	946.286	712.804
163.906	15.973	945.188	712.164
164.921	16.106	943.973	711.745
165.935	16.140	943.593	711.542
166.950	16.158	942.791	710.945
167.964	16.212	941.807	710.368
168.979	16.116	940.891	709.214
169.994	16.021	940.324	708.323
171.008	16.192	939.510	708.363
172.023	16.398	938.908	708.714
173.037	16.216	938.650	707.693
174.052	16.342	937.568	707.341
175.067	16.023	936.784	705.354
176.081	16.022	936.460	705.042
177.096	16.112	935.444	704.591
178.110	16.237	934.397	704.261
179.125	16.255	934.010	703.980
180.140	16.125	933.968	703.346
181.154	16.291	933.284	703.462
182.169	16.362	932.919	703.420
183.183	16.421	932.707	703.441
184.198	16.568	931.012	702.712
185.213	16.463	931.130	702.302
186.227	16.581	930.061	701.924
187.242	16.562	929.713	701.520
188.256	16.674	928.937	701.339
189.271	16.608	928.135	700.397
190.286	16.199	927.406	698.091
191.300	16.107	926.511	696.978
192.315	15.952	925.838	695.769
193.329	16.071	925.024	695.587
194.344	16.176	924.721	695.732
195.359	16.267	924.333	695.753
196.373	16.389	923.248	695.374
197.388	16.583	922.932	695.873
198.402	16.671	922.750	696.040
199.417	16.696	922.275	695.719
200.432	16.881	921.373	695.740
201.446	16.862	921.042	695.350
202.461	16.866	920.696	695.040
203.475	16.826	920.182	694.429
204.490	16.770	918.953	693.210
205.504	16.632	918.079	691.924
206.519	16.619	917.368	691.276
207.534	16.612	916.773	690.739
208.548	16.683	916.107	690.462
209.563	16.645	915.375	689.698
210.577	16.642	914.876	689.246
211.592	16.872	914.137	689.566
212.607	16.956	913.186	689.128
213.621	16.917	912.490	688.382
214.636	16.812	912.267	687.729
215.650	16.805	911.212	686.845
216.665	16.919	910.509	686.713
217.680	17.046	909.541	686.438
218.694	17.046	909.119	686.057
219.709	16.986	908.513	685.300
220.723	16.970	908.217	684.947
221.738	16.913	907.426	684.062
222.753	17.006	906.859	683.951
223.767	16.929	906.376	683.214
224.782	16.987	906.055	683.144
225.796	17.055	905.037	682.591
226.811	17.035	904.319	681.909
227.826	16.910	903.532	680.755
228.840	17.065	902.665	680.662
229.855	16.961	902.001	679.682
230.869	16.961	901.229	679.043
231.884	16.956	900.479	678.396
232.899	16.890	899.749	677.521
233.913	16.895	898.780	676.753
234.928	16.822	898.399	676.117
235.942	16.799	898.102	675.741
236.957	16.781	897.372	675.057
237.972	16.736	897.070	674.594
238.986	16.829	896.287	674.313
240.001	16.866	895.539	673.838
241.015	16.859	895.006	673.349
242.030	16.928	894.486	673.176
243.045	16.963	893.853	672.775
244.059	17.118	893.170	672.817
245.074	16.986	892.818	671.968
246.088	17.170	891.932	671.972
247.103	17.207	891.326	671.601
248.117	17.319	890.858	671.631
249.132	17.342	890.486	671.384
250.147	17.645	889.750	671.964
251.161	17.604	889.041	671.207
252.176	17.582	888.478	670.638
253.190	17.608	887.685	670.082
254.205	17.651	887.394	669.972
255.220	17.811	886.622	669.958
256.234	17.670	886.158	668.993
257.249	17.674	885.312	668.311
258.263	17.632	884.634	667.575
259.278	17.725	883.837	667.280
260.293	17.715	883.515	666.938
261.307	17.806	882.903	666.773
262.322	17.776	882.298	666.138
263.336	17.962	881.159	665.948
264.351	17.901	880.669	665.278
265.366	17.882	880.196	664.790
266.380	17.717	879.709	663.721
267.395	17.975	878.683	663.890
268.409	17.829	878.192	662.894
269.424	17.739	877.236	661.764
270.439	17.850	876.100	661.280
271.453	17.712	875.715	660.396
272.468	17.803	875.534	660.553
273.482	17.766	875.118	660.039
274.497	17.588	874.559	658.868
275.512	17.736	873.420	658.524
276.526	17.726	873.509	658.494
277.541	17.815	872.878	658.302
278.555	17.762	872.699	657.907
279.570	18.103	871.634	658.359
280.585	18.151	870.695	657.776
281.599	17.968	869.513	656.120
282.614	17.882	869.689	655.866
283.628	17.909	868.853	655.282
284.643	17.949	867.957	654.702
285.657	17.977	867.579	654.464
286.672	17.810	867.085	653.396
287.687	17.969	866.230	653.299
288.701	17.796	865.880	652.317
289.716	17.872	865.252	652.076
290.730	18.017	864.563	652.052
291.745	17.868	864.247	651.187
292.760	18.072	863.395	651.268
293.774	18.170	862.938	651.238
294.789	18.120	862.363	650.557
295.803	18.050	861.466	649.557
296.818	17.871	860.871	648.371
297.833	17.982	859.803	647.929
298.847	18.028	859.347	647.700
299.862	18.135	858.986	647.778
300.876	18.095	858.621	647.296
301.891	18.268	857.908	647.356
302.906	18.252	857.539	646.957
303.920	18.471	856.903	647.248
304.935	18.429	856.516	646.739
305.949	18.359	855.970	646.006
306.964	18.254	855.303	645.052
307.979	18.392	854.511	644.914
308.993	18.425	854.595	645.047
310.008	18.431	853.816	644.425
311.022	18.283	853.365	643.468
312.037	18.189	852.851	642.671
313.052	18.222	851.716	641.882
314.066	18.173	850.891	641.023
315.081	18.188	850.547	640.761
316.095	18.221	849.940	640.371
317.110	18.154	849.371	639.635
318.125	18.222	848.628	639.275
319.139	18.225	848.596	639.203
320.154	18.211	847.864	638.542
321.168	18.219	847.650	638.355
322.183	18.328	847.027	638.236
323.197	18.211	846.575	637.404
324.212	18.173	846.492	637.141
325.227	18.255	845.551	636.685
326.241	18.270	844.770	636.097
327.256	18.318	844.240	635.816
328.270	18.317	843.411	635.135
329.285	18.190	843.439	634.628
330.300	18.390	842.194	634.376
331.314	18.162	842.048	633.364
332.329	18.282	841.787	633.557
333.343	18.487	840.837	633.543
334.358	18.516	840.559	633.383
335.373	18.499	840.420	633.163
336.387	18.504	839.902	632.735
337.402	18.671	839.736	633.167
338.416	18.714	839.528	633.113
339.431	18.856	838.840	633.064
340.446	18.840	838.467	632.667
341.460	18.841	838.612	632.722
342.475	18.847	838.319	632.468
343.489	18.843	837.614	631.865
344.504	18.985	836.770	631.693
345.519	19.157	836.413	632.000
346.533	19.059	835.828	631.142
347.548	18.884	834.959	629.790
348.562	18.740	834.650	628.972
349.577	18.619	834.035	628.013
350.592	18.679	833.324	627.640
351.606	18.683	832.591	627.049
352.621	18.671	831.890	626.420
353.635	18.717	831.503	626.243
354.650	18.870	831.033	626.391
355.665	18.869	830.425	625.872
356.679	19.001	829.167	625.347
357.694	19.008	828.570	624.867
358.708	18.915	828.479	624.408
359.723	18.909	827.921	623.910
360.738	18.926	827.222	623.389
361.752	18.897	826.983	623.047
362.767	19.168	826.305	623.465
363.781	19.139	825.935	623.024
364.796	19.290	825.059	622.855
365.810	19.347	824.943	622.919
366.825	19.384	824.843	622.920
367.840	19.447	823.835	622.333
368.854	19.186	823.386	620.997
369.869	19.175	823.180	620.746
370.883	19.409	822.549	621.060
371.898	19.458	822.356	621.033
372.913	19.361	822.142	620.470
373.927	19.205	821.800	619.593
374.942	19.266	821.115	619.243
375.956	19.442	820.797	619.581
376.971	19.483	820.124	619.165
377.986	19.506	820.121	619.187
379.000	19.537	819.366	618.676
380.015	19.481	818.948	618.105
381.029	19.529	818.067	617.558
382.044	19.721	817.446	617.721
383.059	19.562	816.959	616.728
384.073	19.515	816.400	616.084
385.088	19.313	815.895	614.928
386.102	19.331	815.296	614.488
387.117	19.504	814.441	614.405
388.132	19.468	813.973	613.868
389.146	19.576	813.083	613.525
390.161	19.451	813.608	613.424
391.175	19.461	813.223	613.117
392.190	19.371	812.382	612.106
393.205	19.352	811.719	611.485
394.219	19.394	811.385	611.329
395.234	19.485	810.631	611.031
396.248	19.361	810.161	610.182
397.263	19.350	809.603	609.668
398.278	19.439	809.404	609.781
399.292	19.380	809.005	609.215
400.307	19.462	808.520	609.087
401.321	19.333	808.139	608.293
402.336	19.366	807.651	607.986
403.350	19.429	807.397	607.965
404.365	19.607	806.771	608.063
405.380	19.629	806.634	607.986
406.394	19.639	805.933	607.439
407.409	19.901	805.711	608.139
408.423	19.974	805.114	607.891
409.438	19.855	805.205	607.486
410.453	19.880	804.690	607.131
411.467	20.084	803.821	607.138
412.482	19.934	803.621	606.409
413.496	20.178	803.275	606.947
414.511	19.990	803.112	606.112
415.526	19.966	802.423	605.455
416.540	19.938	801.923	604.926
417.555	19.849	801.703	604.396
418.569	20.018	801.201	604.555
419.584	19.988	800.718	604.029
420.599	20.042	800.194	603.772
421.613	161.582	1372.369	1796.472
422.628	140.271	1455.736	1796.552
