DTS Sentinel unit serial number:	SN413079Multiplexer serial number:	ORYXHardware model number:	OX4-SRSoftware version number:	ORYX F/W v4.00 Oryx Data Collector v3.7.2.0data status	okinstallation	princeton_trtdifferential loss correction	single-endedforward channel	channel 1reverse channel	N/Adate	2019/09/12time	18:33:34forward acquisition time	15.00reverse acquisition time	0.00gamma	496.2192k internal	0.2318k external	0.2318temperature offset calibration	1.0113default loss term (dB/km)	0.3790temperature slope calibration	1.0000multiplexer offset coefficient	1.0000multiplexer slope coefficient	1.0000fibre end	0.00T internal ref (°C)	33.19T ext. ref 1 (°C)	2.96T ext. ref 2 (°C)	27.76length (m)	temperature (°C)	Stokes	anti-Stokes-747.200	-200.000	-0.025	-0.260
-746.185	-200.000	0.055	-0.712
-745.171	410.324	0.223	-0.480
-744.156	68.503	-0.372	-0.386
-743.142	-97.559	0.567	-0.149
-742.127	133.821	-0.343	0.450
-741.112	366.148	0.289	0.591
-740.098	800.000	0.172	-0.617
-739.083	-75.659	1.216	0.437
-738.069	15.814	0.303	0.241
-737.054	-15.355	0.455	0.295
-736.039	-175.810	0.444	-0.012
-735.025	-186.803	0.444	-0.006
-734.010	319.126	0.455	-0.872
-732.996	800.000	0.201	-0.695
-731.981	-81.230	0.766	-0.256
-730.966	800.000	0.097	-0.371
-729.952	166.693	0.396	-0.569
-728.937	-200.000	-0.010	0.347
-727.923	445.189	0.117	-0.260
-726.908	-200.000	-0.030	-0.584
-725.894	24.824	0.606	0.508
-724.879	213.596	0.078	0.125
-723.864	800.000	-0.217	0.650
-722.850	-200.000	0.004	0.233
-721.835	-27.166	0.554	-0.326
-720.821	-22.552	-0.459	0.281
-719.806	-52.150	-0.625	-0.293
-718.791	-129.249	0.417	0.059
-717.777	-200.000	0.007	-0.075
-716.762	-200.000	0.016	-0.223
-715.748	197.305	-0.597	-0.921
-714.733	-64.751	0.425	0.174
-713.718	800.000	-0.230	-0.931
-712.704	5.302	0.408	-0.304
-711.689	-55.577	0.111	0.050
-710.675	-151.682	0.439	-0.033
-709.660	585.335	-0.254	0.631
-708.645	800.000	0.090	-0.352
-707.631	730.121	0.123	-0.332
-706.616	20.865	-0.087	-0.071
-705.602	-158.059	-0.350	0.021
-704.587	-200.000	-0.017	-0.094
-703.572	157.140	-0.592	-0.827
-702.558	-200.000	-0.198	-1.017
-701.543	259.065	-0.233	-0.406
-700.529	99.044	-0.185	-0.216
-699.514	-83.954	-0.311	-0.100
-698.499	-200.000	0.031	0.143
-697.485	-80.579	-0.688	0.231
-696.470	800.000	-0.071	-0.292
-695.456	694.364	-0.190	0.504
-694.441	202.984	0.079	0.123
-693.426	-126.756	0.333	0.050
-692.412	141.247	0.231	0.309
-691.397	-65.835	0.040	-0.016
-690.383	482.765	0.167	-0.383
-689.368	-200.000	-0.014	0.458
-688.354	-200.000	0.078	-0.404
-687.339	800.000	0.143	-0.519
-686.324	-9.042	-0.288	-0.195
-685.310	300.127	-0.255	-0.475
-684.295	-70.309	-0.277	0.106
-683.281	-200.000	-0.011	-0.522
-682.266	65.307	0.391	-0.400
-681.251	-97.070	-0.570	0.151
-680.237	-83.331	0.568	0.184
-679.222	-77.057	-0.204	0.072
-678.208	104.066	0.104	0.124
-677.193	60.971	-0.730	-0.732
-676.178	55.640	0.310	0.303
-675.164	141.619	-0.389	0.520
-674.149	800.000	0.030	0.120
-673.135	-200.000	-0.229	1.128
-672.120	-113.714	0.132	-0.026
-671.105	58.784	0.465	0.461
-670.091	83.031	0.474	0.520
-669.076	800.000	-0.093	-0.367
-668.062	93.450	-0.165	0.188
-667.047	800.000	0.283	-0.916
-666.032	418.395	0.385	-0.830
-665.018	-139.727	0.728	-0.078
-664.003	511.992	0.144	0.339
-662.989	-44.632	0.199	-0.100
-661.974	6.450	-0.559	0.419
-660.959	333.156	0.387	-0.755
-659.945	22.805	0.455	-0.376
-658.930	-3.784	0.220	-0.154
-657.916	40.646	0.484	-0.440
-656.901	180.822	0.046	0.069
-655.886	217.921	-0.246	-0.395
-654.872	-131.263	-0.256	0.034
-653.857	-82.227	0.387	0.127
-652.843	256.816	-0.406	-0.704
-651.828	-110.860	0.593	0.123
-650.814	-59.533	0.239	0.104
-649.799	8.379	-0.402	-0.305
-648.784	62.250	-0.366	-0.368
-647.770	-200.000	-0.005	0.352
-646.755	-200.000	-0.109	-0.693
-645.741	-37.893	0.265	0.142
-644.726	800.000	0.169	-0.701
-643.711	140.771	-0.104	-0.139
-642.697	-200.000	0.103	-0.507
-641.682	-200.000	-0.183	0.975
-640.668	-108.840	-0.628	-0.135
-639.653	50.995	0.050	-0.047
-638.638	386.084	-0.135	0.281
-637.624	-200.000	-0.005	0.055
-636.609	800.000	-0.176	-0.606
-635.595	88.922	0.305	-0.342
-634.580	-200.000	-0.026	0.115
-633.565	14.676	0.365	0.288
-632.551	-200.000	-0.037	0.491
-631.536	-200.000	0.070	-1.112
-630.522	-200.000	0.166	-1.031
-629.507	-117.679	0.171	0.031
-628.492	15.069	-0.318	-0.251
-627.478	-200.000	0.024	-0.698
-626.463	-200.000	-0.079	0.765
-625.449	-17.908	0.699	0.442
-624.434	-200.000	-0.066	-0.509
-623.419	-52.432	0.764	-0.356
-622.405	82.767	-0.238	-0.261
-621.390	51.525	-0.599	0.574
-620.376	57.207	-0.482	0.474
-619.361	-132.165	-0.926	0.121
-618.346	687.506	0.177	-0.465
-617.332	800.000	0.076	-0.223
-616.317	251.750	-0.189	-0.325
-615.303	508.029	-0.254	-0.593
-614.288	800.000	-0.355	-1.130
-613.273	69.129	-0.558	-0.577
-612.259	489.855	-0.162	-0.374
-611.244	-127.130	-0.730	-0.108
-610.230	117.993	-0.767	-0.952
-609.215	-106.630	-0.852	-0.191
-608.201	29.510	0.303	0.260
-607.186	119.914	-0.151	-0.189
-606.171	332.418	-0.183	0.356
-605.157	227.485	0.166	-0.272
-604.142	800.000	-0.030	-0.089
-603.128	800.000	0.259	-0.747
-602.113	-200.000	-0.017	-0.435
-601.098	-200.000	0.126	-0.831
-600.084	-200.000	0.046	0.449
-599.069	-200.000	-0.003	0.388
-598.055	-200.000	0.024	0.225
-597.040	800.000	0.193	-0.576
-596.025	-30.026	-0.928	0.532
-595.011	-29.364	0.646	-0.372
-593.996	248.811	0.240	0.408
-592.982	246.563	-0.320	0.543
-591.967	-200.000	-0.001	-0.312
-590.952	-70.197	0.658	0.252
-589.938	56.569	-0.380	0.372
-588.923	800.000	0.178	-0.540
-587.909	27.123	0.271	-0.229
-586.894	-74.613	0.713	-0.258
-585.879	175.561	0.511	0.745
-584.865	23.300	-0.080	0.066
-583.850	-56.409	-0.443	-0.198
-582.836	725.317	-0.062	-0.165
-581.821	800.000	-0.193	-0.576
-580.806	-73.820	-1.026	0.375
-579.792	-126.702	-0.922	0.137
-578.777	18.404	-0.634	-0.510
-577.763	-63.363	0.369	-0.153
-576.748	-65.780	-1.249	0.503
-575.733	800.000	-0.125	0.507
-574.719	273.040	-0.415	-0.736
-573.704	-10.867	0.512	0.340
-572.690	-25.416	-0.235	0.140
-571.675	800.000	-0.238	0.701
-570.661	5.377	-0.677	0.502
-569.646	228.480	0.386	0.633
-568.631	-200.000	0.016	-0.250
-567.617	-200.000	-0.041	-0.335
-566.602	-49.212	0.457	-0.219
-565.588	167.431	0.402	0.575
-564.573	-145.087	-1.004	-0.092
-563.558	18.478	-0.444	0.357
-562.544	-49.116	-0.505	-0.243
-561.529	-200.000	0.009	0.465
-560.515	-194.272	-0.606	-0.005
-559.500	-200.000	0.131	0.689
-558.485	-200.000	-0.006	-0.477
-557.471	107.492	-0.122	-0.146
-556.456	113.082	0.310	-0.378
-555.442	246.759	0.245	-0.415
-554.427	-200.000	-0.122	-0.754
-553.412	-200.000	-0.081	0.420
-552.398	1.011	0.498	-0.359
-551.383	-131.039	0.552	0.074
-550.369	524.711	-0.285	0.674
-549.354	33.841	-0.251	-0.219
-548.339	-138.521	-0.571	0.063
-547.325	-65.369	-0.748	-0.302
-546.310	84.059	-0.090	-0.099
-545.296	-52.865	0.370	0.171
-544.281	-81.391	-0.654	0.216
-543.266	-200.000	-0.064	0.482
-542.252	-166.177	-0.487	-0.021
-541.237	-200.000	0.048	0.422
-540.223	-80.406	0.656	0.220
-539.208	-116.366	0.576	-0.107
-538.193	162.484	0.195	-0.275
-537.179	533.523	0.133	0.317
-536.164	800.000	-0.128	-0.404
-535.150	90.052	-0.275	0.309
-534.135	195.053	0.380	0.580
-533.121	25.888	-0.241	-0.202
-532.106	-23.261	-0.400	-0.242
-531.091	81.645	-0.127	-0.138
-530.077	133.896	0.248	0.323
-529.062	-88.504	-0.760	-0.228
-528.048	96.393	0.655	-0.752
-527.033	-200.000	-0.095	0.517
-526.018	-106.517	-0.103	-0.023
-525.004	404.478	-0.182	-0.386
-523.989	120.597	-0.247	0.308
-522.975	-200.000	-0.081	0.405
-521.960	800.000	-0.101	0.434
-520.945	235.369	-0.458	0.759
-519.931	-200.000	0.139	-0.681
-518.916	-138.173	-0.442	-0.049
-517.902	-104.649	0.760	0.176
-516.887	-30.706	0.459	0.260
-515.872	409.929	0.427	0.907
-514.858	262.700	-0.307	0.535
-513.843	-200.000	-0.032	-0.700
-512.829	265.718	0.385	-0.674
-511.814	-159.350	-0.547	-0.031
-510.799	95.075	0.477	0.545
-509.785	-18.103	0.623	-0.391
-508.770	-200.000	-0.011	-0.184
-507.756	0.690	0.449	-0.322
-506.741	-200.000	0.233	-1.582
-505.726	-128.050	0.685	0.098
-504.712	-35.434	0.509	-0.278
-503.697	800.000	-0.234	0.922
-502.683	-153.841	0.286	-0.020
-501.668	265.887	-0.299	-0.523
-500.653	542.217	-0.277	-0.661
-499.639	637.042	-0.263	0.669
-498.624	800.000	0.284	1.053
-497.610	-61.772	-0.059	0.025
-496.595	-162.409	0.377	0.019
-495.581	-55.754	-0.777	0.348
-494.566	191.639	0.357	0.539
-493.551	-101.144	1.150	0.282
-492.537	419.667	0.315	0.676
-491.522	96.184	0.097	0.111
-490.508	328.994	-0.121	0.232
-489.493	97.436	-0.601	0.692
-488.478	-89.346	0.496	0.146
-487.464	19.679	-0.526	-0.424
-486.449	-141.825	0.535	0.054
-485.435	-66.116	-0.399	-0.159
-484.420	143.744	-0.595	-0.795
-483.405	729.875	0.134	0.359
-482.391	-200.000	-0.060	0.335
-481.376	-200.000	-0.036	-0.174
-480.362	28.687	0.240	-0.204
-479.347	134.660	0.373	-0.485
-478.332	211.299	0.195	0.307
-477.318	-200.000	0.093	-0.936
-476.303	351.706	0.119	0.237
-475.289	-66.258	-0.839	0.335
-474.274	76.913	-0.533	-0.566
-473.259	83.874	-0.417	-0.455
-472.245	-37.275	-0.189	0.101
-471.230	57.884	0.270	0.265
-470.216	-74.241	-0.584	0.211
-469.201	-95.923	0.247	0.066
-468.186	17.019	0.630	0.500
-467.172	227.121	-0.149	-0.242
-466.157	377.399	0.128	-0.261
-465.143	-163.659	-0.105	-0.005
-464.128	214.696	0.224	-0.356
-463.113	-83.210	-0.709	-0.228
-462.099	94.571	-0.683	0.777
-461.084	-200.000	0.024	-0.176
-460.070	-134.399	0.583	0.072
-459.055	680.521	0.236	-0.615
-458.040	-200.000	-0.055	1.067
-457.026	-41.634	-0.205	-0.105
-456.011	53.887	-0.594	-0.571
-454.997	494.089	-0.266	-0.611
-453.982	-147.069	-0.713	-0.061
-452.968	-104.978	0.281	-0.064
-451.953	217.714	0.433	-0.692
-450.938	297.500	-0.383	0.704
-449.924	-97.070	-0.159	-0.042
-448.909	522.578	-0.123	0.290
-447.895	620.220	-0.137	0.344
-446.880	-90.348	-1.000	-0.290
-445.865	8.970	-0.295	-0.223
-444.851	-19.400	-0.332	-0.206
-443.836	-23.230	-0.434	-0.261
-442.822	-83.604	0.620	0.198
-441.807	-200.000	0.054	-1.186
-440.792	-200.000	-0.116	0.592
-439.778	358.032	-0.123	-0.246
-438.763	361.949	0.292	-0.586
-437.749	-40.684	0.302	-0.157
-436.734	-83.100	-0.483	0.156
-435.719	16.595	-0.494	0.390
-434.705	-138.604	-0.419	0.046
-433.690	132.324	0.465	-0.599
-432.676	-73.956	-0.626	0.227
-431.661	-15.027	0.369	0.237
-430.646	-200.000	0.149	-0.688
-429.632	198.449	0.476	0.728
-428.617	161.928	-0.524	0.733
-427.603	18.758	0.451	0.361
-426.588	-66.251	0.750	-0.298
-425.573	15.517	-0.178	-0.139
-424.559	-40.126	-0.154	-0.080
-423.544	115.092	0.322	0.393
-422.530	8.077	0.327	0.245
-421.515	-200.000	-0.019	0.598
-420.500	89.541	-0.684	0.763
-419.486	-45.630	0.455	0.225
-418.471	-159.651	-0.712	0.039
-417.457	-200.000	0.041	0.702
-416.442	-75.952	-0.360	-0.127
-415.428	-64.103	-0.576	0.235
-414.413	199.783	0.494	0.757
-413.398	-30.032	-0.031	0.018
-412.384	800.000	-0.289	1.194
-411.369	-65.509	0.190	-0.076
-410.355	123.150	-0.132	0.165
-409.340	800.000	-0.065	-0.250
-408.325	696.712	-0.239	-0.628
-407.311	800.000	0.168	0.678
-406.296	-143.372	-0.764	-0.073
-405.282	385.957	-0.246	0.508
-404.267	-64.573	0.516	0.209
-403.252	-2.243	0.146	0.102
-402.238	-80.673	-0.370	0.123
-401.223	-39.846	-0.383	-0.200
-400.209	-200.000	-0.014	0.443
-399.194	-120.914	-0.512	-0.086
-398.179	-49.901	0.849	-0.402
-397.165	89.086	0.486	-0.540
-396.150	-25.982	-0.774	-0.455
-395.136	209.149	-0.188	-0.294
-394.121	-87.072	-0.153	-0.047
-393.106	-170.199	0.223	-0.008
-392.092	9.585	-0.118	0.089
-391.077	64.867	-0.346	0.348
-390.063	539.319	0.319	-0.757
-389.048	-200.000	-0.014	0.100
-388.033	199.748	0.223	0.342
-387.019	243.138	-0.042	0.071
-386.004	98.336	-0.307	-0.353
-384.990	759.458	0.246	0.666
-383.975	6.301	0.197	-0.146
-382.960	800.000	-0.136	0.376
-381.946	800.000	-0.260	1.078
-380.931	-59.133	0.680	0.292
-379.917	336.263	0.365	0.707
-378.902	228.309	-0.133	-0.216
-377.888	-43.776	0.831	-0.418
-376.873	-200.000	0.012	0.474
-375.858	-26.258	0.482	0.282
-374.844	37.180	0.451	0.399
-373.829	-137.805	0.680	0.076
-372.815	-47.494	-0.728	0.353
-371.800	-32.255	0.694	0.387
-370.785	375.640	0.267	0.542
-369.771	-15.542	0.753	0.480
-368.756	-36.820	0.293	-0.157
-367.742	800.000	-0.152	-0.659
-366.727	-125.163	0.889	-0.136
-365.712	800.000	-0.180	-0.603
-364.698	316.044	0.022	-0.042
-363.683	235.679	0.487	0.803
-362.669	97.073	0.270	-0.309
-361.654	-200.000	0.088	-0.394
-360.639	-200.000	0.040	-0.912
-359.625	-108.902	-0.839	0.179
-358.610	-29.096	0.476	0.272
-357.596	-58.539	0.636	0.275
-356.581	-200.000	0.009	0.615
-355.566	800.000	0.068	-0.193
-354.552	-200.000	0.005	0.454
-353.537	69.804	0.630	-0.647
-352.523	-115.963	0.372	0.069
-351.508	800.000	0.162	-0.617
-350.493	390.053	-0.254	-0.525
-349.479	-200.000	0.091	-0.644
-348.464	1.778	0.582	-0.418
-347.450	-131.546	-0.163	0.021
-346.435	-122.735	-1.013	-0.163
-345.420	43.599	0.282	-0.257
-344.406	800.000	-0.076	0.217
-343.391	612.022	-0.132	-0.329
-342.377	-98.568	0.811	-0.206
-341.362	-200.000	0.013	-0.380
-340.348	574.842	0.087	-0.212
-339.333	800.000	0.203	0.724
-338.318	51.493	0.634	-0.600
-337.304	-100.192	0.212	-0.053
-336.289	128.038	-0.208	0.264
-335.275	-126.986	-0.442	-0.065
-334.260	75.240	0.313	-0.329
-333.245	-137.215	-0.559	-0.063
-332.231	54.474	0.386	-0.370
-331.216	500.282	-0.252	0.579
-330.202	-30.688	0.886	0.499
-329.187	55.644	0.189	-0.183
-328.172	62.471	0.712	-0.708
-327.158	800.000	0.148	-0.421
-326.143	-200.000	-0.018	0.095
-325.129	800.000	-0.119	0.439
-324.114	310.902	-0.129	0.241
-323.099	-200.000	0.015	0.159
-322.085	75.792	-0.413	0.434
-321.070	642.579	0.063	-0.160
-320.056	78.711	0.410	-0.436
-319.041	13.711	-0.152	-0.117
-318.026	-54.217	-0.303	-0.137
-317.012	100.349	0.522	0.603
-315.997	34.024	-0.242	0.210
-314.983	456.100	0.507	-1.119
-313.968	462.916	0.348	-0.774
-312.953	156.960	-0.431	-0.592
-311.939	800.000	-0.078	-0.252
-310.924	23.219	0.998	-0.816
-309.910	-90.464	-0.671	0.193
-308.895	-39.496	0.409	0.214
-307.880	-40.370	-0.209	0.108
-306.866	-200.000	-0.333	0.000
-305.851	-38.620	0.777	-0.408
-304.837	-200.000	-0.065	-0.640
-303.822	232.351	-0.200	-0.327
-302.807	170.098	-0.442	-0.629
-301.793	-6.385	-0.584	0.397
-300.778	258.746	0.251	-0.430
-299.764	-105.393	0.514	0.116
-298.749	-184.935	0.770	-0.012
-297.735	262.341	0.134	0.232
-296.720	-93.257	0.357	-0.099
-295.705	800.000	-0.207	0.710
-294.691	-200.000	0.068	0.339
-293.676	271.546	0.341	-0.597
-292.662	263.321	-0.312	0.540
-291.647	-25.467	-0.319	-0.187
-290.632	79.331	0.071	0.076
-289.618	109.337	0.179	0.213
-288.603	4.472	0.348	0.254
-287.589	388.681	-0.213	-0.439
-286.574	-84.489	-0.165	0.052
-285.559	76.484	0.406	-0.428
-284.545	-200.000	0.043	-0.225
-283.530	-84.847	-0.061	-0.019
-282.516	-100.465	0.642	0.158
-281.501	210.108	0.166	-0.258
-280.486	288.160	-0.278	0.500
-279.472	800.000	-0.269	-0.827
-278.457	11.012	-0.166	-0.126
-277.443	150.812	-0.436	-0.589
-276.428	-174.575	-0.348	-0.010
-275.413	-29.711	0.202	0.115
-274.399	146.618	-0.696	0.929
-273.384	800.000	0.037	0.139
-272.370	-200.000	0.079	0.972
-271.355	193.782	-0.197	-0.296
-270.340	46.025	0.647	-0.595
-269.326	459.179	0.216	0.478
-268.311	45.464	-0.387	0.355
-267.297	193.264	-0.701	-1.053
-266.282	194.248	0.249	0.375
-265.267	-53.082	0.334	-0.153
-264.253	140.420	0.413	0.542
-263.238	-27.184	0.148	0.086
-262.224	800.000	-0.106	0.443
-261.209	800.000	-0.056	0.160
-260.195	-200.000	-0.038	0.910
-259.180	113.350	-0.190	-0.229
-258.165	-86.552	-0.397	0.121
-257.151	-22.530	-0.379	0.228
-256.136	23.312	0.082	0.067
-255.122	30.387	0.078	-0.066
-254.107	337.628	-0.415	0.802
-253.092	21.225	-0.654	-0.527
-252.078	479.638	0.378	0.851
-251.063	-69.448	0.466	-0.177
-250.049	800.000	-0.244	-0.882
-249.034	124.905	-0.365	0.457
-248.019	-200.000	-0.016	0.163
-247.005	21.727	0.273	0.221
-245.990	-51.504	0.488	0.226
-244.976	-126.176	-0.421	0.063
-243.961	6.985	-0.454	0.336
-242.946	-8.510	0.713	0.475
-241.932	800.000	0.186	0.564
-240.917	-59.942	-0.672	0.285
-239.903	-29.846	0.832	-0.471
-238.888	319.322	0.491	-0.924
-237.873	220.492	0.542	0.862
-236.859	-168.571	0.537	0.020
-235.844	203.710	0.226	-0.347
-234.830	-126.955	-0.048	0.007
-233.815	-81.835	0.890	-0.289
-232.800	95.461	0.304	-0.344
-231.786	-200.000	-0.088	0.700
-230.771	10.469	-0.704	0.532
-229.757	-49.742	-0.586	-0.276
-228.742	800.000	-0.194	0.682
-227.727	800.000	0.088	-0.354
-226.713	212.774	0.413	0.646
-225.698	-200.000	-0.010	-0.887
-224.684	797.950	-0.142	-0.388
-223.669	-100.230	0.331	0.082
-222.655	10.464	0.492	0.372
-221.640	-79.718	0.266	-0.089
-220.625	-26.047	0.563	-0.329
-219.611	0.688	0.601	0.426
-218.596	306.679	0.574	1.060
-217.582	102.283	-0.138	-0.159
-216.567	-152.253	0.574	0.041
-215.552	159.011	0.327	-0.451
-214.538	-20.073	-0.201	0.123
-213.523	379.721	-0.479	-0.974
-212.509	-152.877	-0.806	-0.057
-211.494	-133.582	-0.307	-0.038
-210.479	800.000	0.219	0.836
-209.465	-40.669	0.713	0.367
-208.450	64.480	0.925	-0.924
-207.436	-102.688	0.896	-0.212
-206.421	-90.425	0.899	0.258
-205.406	95.294	0.557	0.629
-204.392	248.817	0.353	0.593
-203.377	-71.340	-0.356	0.132
-202.363	238.708	-0.099	-0.163
-201.348	158.206	-0.604	0.830
-200.333	-200.000	-0.039	0.616
-199.319	-19.032	-0.723	-0.446
-198.304	81.755	-0.799	-0.857
-197.290	104.482	0.399	0.465
-196.275	-0.693	-0.589	-0.414
-195.260	557.429	-0.148	0.354
-194.246	-103.409	0.228	-0.053
-193.231	-80.736	-0.154	0.051
-192.217	171.420	-0.383	-0.545
-191.202	17.941	-0.387	-0.305
-190.187	-200.000	0.033	-0.820
-189.173	-46.004	-0.767	0.374
-188.158	200.521	-0.186	-0.284
-187.144	-78.502	0.329	-0.112
-186.129	77.851	-0.280	-0.296
-185.114	-4.046	-0.163	0.112
-184.100	-88.941	-0.884	0.259
-183.085	1.107	0.214	-0.152
-182.071	-145.130	-0.536	0.048
-181.056	96.640	0.398	-0.451
-180.042	800.000	-0.098	-0.395
-179.027	-21.111	-0.468	0.284
-178.012	-177.223	-0.949	-0.023
-176.998	-200.000	-0.009	-0.043
-175.983	-200.000	0.204	-0.937
-174.969	-96.306	0.463	-0.121
-173.954	-111.114	-0.665	-0.135
-172.939	-137.745	0.987	-0.110
-171.925	153.018	-0.269	0.364
-170.910	-200.000	0.106	0.674
-169.896	176.947	0.042	0.061
-168.881	-95.230	0.687	0.183
-167.866	800.000	-0.092	0.355
-166.852	800.000	0.118	0.405
-165.837	-89.955	1.117	-0.323
-164.823	-6.398	-0.577	-0.390
-163.808	-200.000	0.089	0.460
-162.793	-44.585	-0.426	-0.211
-161.779	-43.858	-0.337	-0.168
-160.764	-135.005	-0.257	0.031
-159.750	84.369	0.259	-0.281
-158.735	243.143	-0.130	0.215
-157.720	310.392	-0.419	0.777
-156.706	88.155	0.936	1.028
-155.691	92.487	0.562	-0.627
-154.677	-105.088	0.271	-0.061
-153.662	-138.260	-0.221	-0.024
-152.647	-200.000	-0.011	0.355
-151.633	-40.365	0.220	0.113
-150.618	-177.636	0.443	-0.011
-149.604	-137.938	0.586	-0.065
-148.589	-89.658	-0.373	-0.108
-147.574	-155.018	0.745	-0.048
-146.560	70.963	0.201	0.206
-145.545	-200.000	-0.109	-0.904
-144.531	122.246	0.129	0.159
-143.516	129.156	0.376	-0.475
-142.502	-98.805	0.597	-0.150
-141.487	-76.506	0.998	-0.347
-140.472	-125.214	-0.686	0.104
-139.458	-200.000	0.024	0.629
-138.443	800.000	0.083	0.252
-137.429	-200.000	0.023	-0.319
-136.414	-68.308	0.110	0.042
-135.399	-200.000	0.056	-0.714
-134.385	-53.952	0.138	0.062
-133.370	-200.000	0.002	-0.120
-132.356	-106.743	-0.022	-0.005
-131.341	-77.271	0.720	-0.247
-130.326	-200.000	-0.017	-0.301
-129.312	-24.488	-0.344	-0.202
-128.297	135.093	-0.271	0.348
-127.283	-75.225	-0.131	-0.046
-126.268	353.798	0.332	0.651
-125.253	-200.000	-0.133	1.063
-124.239	475.221	0.192	0.428
-123.224	-101.213	0.441	-0.107
-122.210	800.000	0.011	-0.046
-121.195	-200.000	0.053	0.255
-120.180	-30.627	-0.058	-0.032
-119.166	97.666	-0.169	0.192
-118.151	184.795	0.250	0.367
-117.137	800.000	-0.095	-0.291
-116.122	41.155	0.244	-0.218
-115.107	72.847	0.816	-0.841
-114.093	-200.000	-0.028	-0.214
-113.078	216.698	-0.072	-0.114
-112.064	-48.556	-0.153	0.073
-111.049	-110.617	-0.834	-0.170
-110.034	302.521	0.515	0.941
-109.020	51.695	-0.289	-0.271
-108.005	-24.149	0.822	0.485
-106.991	-45.380	0.529	0.259
-105.976	-73.416	1.013	-0.366
-104.962	-141.628	-0.257	0.026
-103.947	325.038	0.163	0.308
-102.932	-12.762	0.831	-0.535
-101.918	-133.474	0.622	-0.077
-100.903	627.956	0.186	0.464
-99.889	-125.167	0.428	-0.065
-98.874	-88.325	0.800	-0.236
-97.859	203.396	-0.207	0.316
-96.845	-200.000	0.015	-0.095
-95.830	241.673	0.371	-0.611
-94.816	249.129	-0.521	-0.871
-93.801	-56.537	1.141	0.499
-92.786	-200.000	-0.145	-0.631
-91.772	-200.000	-0.107	0.732
-90.757	-22.524	-1.099	-0.656
-89.743	734.026	0.261	0.690
-88.728	800.000	-0.075	0.295
-87.713	49.601	0.076	0.070
-86.699	38.385	0.489	0.430
-85.684	-200.000	-0.095	-0.571
-84.670	-175.682	-0.932	0.025
-83.655	78.044	0.490	0.515
-82.640	450.457	-0.272	0.591
-81.626	-175.468	-0.446	-0.012
-80.611	110.907	-0.437	0.519
-79.597	-36.643	0.304	0.161
-78.582	68.399	0.511	0.517
-77.567	309.853	0.245	-0.451
-76.553	28.741	-0.183	-0.153
-75.538	-59.255	0.567	-0.241
-74.524	-200.000	-0.063	-1.046
-73.509	-59.467	1.008	-0.427
-72.494	-200.000	-0.010	-0.462
-71.480	-200.000	-0.019	-0.383
-70.465	253.633	0.090	0.152
-69.451	8.959	0.463	0.345
-68.436	-66.470	-0.823	0.322
-67.422	-200.000	-0.006	0.587
-66.407	1.666	0.030	-0.021
-65.392	-36.657	0.184	0.097
-64.378	308.888	-0.208	-0.382
-63.363	-200.000	0.220	-1.231
-62.349	307.170	-0.221	-0.407
-61.334	-37.886	-1.287	-0.674
-60.319	91.518	0.334	0.370
-59.305	-200.000	-0.045	-1.671
-58.290	800.000	-0.176	0.692
-57.276	-200.000	0.011	1.448
-56.261	-200.000	95.625	568.734
-55.246	644.628	1365.332	3432.706
-54.232	200.790	2533.688	3839.156
-53.217	118.501	2130.209	2590.302
-52.203	45.004	1596.584	1448.737
-51.188	36.558	1337.412	1162.979
-50.173	33.548	1295.688	1109.078
-49.159	56.311	1345.355	1287.743
-48.144	57.672	1360.826	1310.593
-47.130	36.661	1319.326	1147.682
-46.115	33.213	1303.157	1113.321
-45.100	33.215	1296.972	1108.008
-44.086	33.176	1295.464	1106.442
-43.071	32.999	1293.074	1103.329
-42.057	32.948	1290.693	1100.952
-41.042	33.013	1289.340	1100.133
-40.027	33.148	1287.828	1099.583
-39.013	33.064	1285.494	1097.064
-37.998	33.261	1283.804	1096.716
-36.984	33.065	1282.889	1094.757
-35.969	33.333	1280.346	1094.091
-34.954	33.200	1279.040	1092.164
-33.940	32.987	1278.680	1090.587
-32.925	33.376	1275.426	1090.007
-31.911	33.281	1274.096	1088.280
-30.896	33.443	1273.451	1088.620
-29.881	33.293	1272.251	1086.688
-28.867	33.450	1269.618	1085.296
-27.852	33.422	1268.965	1084.535
-26.838	33.148	1268.562	1082.578
-25.823	33.261	1266.535	1081.452
-24.809	33.103	1266.001	1080.048
-23.794	33.265	1264.133	1079.338
-22.779	33.232	1262.075	1077.348
-21.765	33.129	1261.560	1076.281
-20.750	33.326	1260.237	1076.229
-19.736	33.151	1259.083	1074.206
-18.721	33.085	1258.293	1073.114
-17.706	33.210	1256.284	1072.065
-16.692	33.126	1255.138	1070.573
-15.677	33.152	1254.445	1070.086
-14.663	32.734	1254.386	1067.627
-13.648	33.330	1251.115	1068.163
-12.633	33.266	1251.093	1067.742
-11.619	33.391	1250.259	1067.693
-10.604	32.912	1250.216	1064.911
-9.590	33.029	1248.830	1064.348
-8.575	33.084	1247.977	1063.888
-7.560	33.334	1246.091	1063.643
-6.546	33.052	1246.625	1062.472
-5.531	33.102	1244.627	1061.008
-4.517	33.019	1245.514	1061.257
-3.502	33.085	1244.246	1060.501
-2.487	33.209	1241.400	1058.731
-1.473	32.804	1239.266	1054.606
-0.458	31.514	1224.271	1034.671
0.556	28.715	1205.186	993.535
1.571	25.273	1211.172	979.632
2.586	23.933	1227.000	984.932
3.600	23.209	1216.809	972.687
4.615	17.520	1143.055	884.191
5.629	7.542	1067.138	776.793
6.644	3.372	1048.487	743.076
7.659	3.015	1045.343	739.063
8.673	2.596	1043.613	735.766
9.688	2.859	1041.947	735.784
10.702	3.379	1040.475	737.169
11.717	9.401	1049.283	772.322
12.731	19.280	1062.688	829.926
13.746	24.513	1069.264	860.275
14.761	25.172	1070.731	864.554
15.775	25.168	1069.498	863.462
16.790	24.601	1069.414	860.591
17.804	24.669	1069.088	860.580
18.819	25.084	1067.941	861.572
19.834	25.051	1067.245	860.776
20.848	25.052	1067.939	861.269
21.863	25.409	1065.997	861.335
22.877	25.109	1066.335	860.092
23.892	25.231	1064.662	859.255
24.907	24.825	1065.196	857.663
25.921	25.090	1062.651	856.804
26.936	25.148	1061.395	855.993
27.950	25.285	1059.564	855.095
28.965	24.950	1058.304	852.406
29.980	24.898	1057.584	851.505
30.994	25.280	1055.537	851.592
32.009	25.056	1055.925	850.766
33.023	24.998	1054.651	849.391
34.038	25.033	1054.750	849.561
35.053	24.979	1053.116	847.915
36.067	25.114	1051.733	847.363
37.082	25.109	1051.404	846.999
38.096	24.949	1052.096	846.725
39.111	25.169	1050.406	846.331
40.126	24.884	1049.520	844.195
41.140	24.754	1047.489	841.876
42.155	24.794	1046.033	840.819
43.169	24.794	1045.471	840.293
44.184	24.892	1044.621	839.997
45.199	24.888	1043.143	838.714
46.213	24.716	1042.239	837.108
47.228	24.866	1041.859	837.431
48.242	24.989	1041.843	837.921
49.257	25.489	1040.166	838.831
50.271	25.215	1039.217	836.713
51.286	25.332	1038.041	836.240
52.301	25.160	1038.554	835.777
53.315	25.351	1037.605	835.827
54.330	24.826	1037.220	833.001
55.344	24.977	1036.613	833.143
56.359	25.153	1035.320	832.844
57.374	25.177	1033.795	831.657
58.388	25.003	1034.153	831.065
59.403	24.896	1032.872	829.466
60.417	24.825	1031.928	828.303
61.432	24.577	1031.144	826.455
62.447	25.038	1030.169	827.731
63.461	25.306	1028.348	827.432
64.476	24.841	1028.150	825.052
65.490	24.809	1028.024	824.733
66.505	24.921	1027.338	824.625
67.520	25.037	1027.396	825.132
68.534	24.798	1025.806	822.683
69.549	24.573	1024.592	820.603
70.563	24.771	1022.675	819.907
71.578	24.769	1022.783	819.909
72.593	24.437	1022.200	817.846
73.607	24.648	1021.339	818.051
74.622	24.761	1022.072	819.086
75.636	24.549	1021.289	817.414
76.651	24.718	1019.730	816.865
77.666	24.843	1017.951	815.939
78.680	24.626	1018.269	815.131
79.695	24.363	1018.105	813.730
80.709	25.010	1016.455	815.284
81.724	24.689	1016.505	813.791
82.739	24.739	1015.764	813.352
83.753	24.932	1016.517	814.761
84.768	25.433	1014.446	815.306
85.782	25.450	1014.665	815.487
86.797	25.490	1013.318	814.512
87.812	25.217	1013.200	813.107
88.826	25.212	1012.003	812.054
89.841	25.318	1010.897	811.574
90.855	25.476	1009.339	810.964
91.870	25.658	1007.870	810.532
92.884	25.386	1007.718	809.112
93.899	25.426	1006.696	808.398
94.914	25.751	1004.655	808.147
95.928	25.386	1004.968	806.689
96.943	25.376	1004.474	806.177
97.957	24.722	1003.675	802.532
98.972	25.147	1001.920	802.959
99.987	25.229	1001.543	802.954
101.001	25.368	1000.777	802.890
102.016	25.286	999.966	801.803
103.030	25.257	998.570	800.484
104.045	25.125	997.919	799.302
105.060	25.131	997.357	798.805
106.074	25.093	997.072	798.338
107.089	25.519	994.899	798.419
108.103	25.454	993.560	796.986
109.118	25.358	992.614	795.734
110.133	25.168	991.840	794.200
111.147	24.780	991.609	792.228
112.162	24.797	990.143	791.059
113.176	25.073	989.842	791.968
114.191	24.866	990.010	791.117
115.206	24.687	988.399	788.971
116.220	24.652	987.895	788.344
117.235	24.876	987.567	789.001
118.249	24.692	986.295	787.105
119.264	24.818	985.408	786.884
120.279	24.889	983.969	785.977
121.293	24.847	983.879	785.650
122.308	24.735	982.979	784.372
123.322	24.650	981.979	783.131
124.337	24.688	979.877	781.549
125.352	24.023	979.207	778.042
126.366	24.425	978.188	778.919
127.381	24.805	978.575	780.817
128.395	25.047	977.508	780.951
129.410	25.271	976.787	781.281
130.424	25.204	976.636	780.800
131.439	25.376	975.504	780.570
132.454	25.335	974.652	779.642
133.468	25.171	974.569	778.798
134.483	25.416	972.797	778.372
135.497	25.199	972.704	777.291
136.512	25.520	970.776	777.069
137.527	25.439	971.036	776.857
138.541	25.999	969.014	777.587
139.556	25.462	969.164	775.321
140.570	25.211	968.919	773.973
141.585	25.691	966.994	774.433
142.600	25.449	966.215	772.701
143.614	25.842	965.951	774.112
144.629	25.473	965.335	771.961
145.643	25.692	963.585	771.435
146.658	25.775	962.972	771.232
147.673	25.531	961.425	768.880
148.687	25.343	961.316	767.923
149.702	25.397	959.280	766.456
150.716	25.407	958.830	766.075
151.731	25.685	957.912	766.454
152.746	25.521	957.562	765.408
153.760	25.745	956.753	765.650
154.775	25.668	957.216	765.624
155.789	25.490	956.162	763.957
156.804	25.759	954.945	764.059
157.819	25.490	953.616	761.785
158.833	25.957	953.394	763.523
159.848	25.882	952.633	762.525
160.862	25.604	951.768	760.592
161.877	25.663	950.912	760.089
162.892	25.515	950.891	759.378
163.906	25.891	947.681	758.333
164.921	25.671	948.191	757.747
165.935	25.686	946.865	756.681
166.950	25.777	945.756	756.111
167.964	25.795	944.454	755.077
168.979	25.612	944.701	754.443
169.994	25.584	942.798	752.738
171.008	25.830	942.941	753.817
172.023	25.942	942.016	753.478
173.037	25.879	940.995	752.329
174.052	25.570	940.589	750.651
175.067	25.620	939.155	749.650
176.081	25.229	939.519	748.241
177.096	25.590	938.243	748.661
178.110	25.440	936.710	746.750
179.125	25.302	936.244	745.739
180.140	25.045	936.024	744.432
181.154	25.327	936.400	745.836
182.169	25.912	935.856	747.765
183.183	25.797	935.262	746.746
184.198	25.640	934.072	745.079
185.213	25.514	933.964	744.406
186.227	25.538	934.107	744.553
187.242	25.912	932.732	744.939
188.256	25.716	932.379	743.780
189.271	25.980	930.846	743.581
190.286	25.931	929.286	742.069
191.300	24.932	929.005	737.664
192.315	24.060	928.444	733.559
193.329	24.303	927.674	733.889
194.344	25.500	926.826	738.072
195.359	25.857	926.148	738.932
196.373	26.052	925.753	739.348
197.388	25.615	926.792	738.319
198.402	25.496	926.394	737.451
199.417	26.104	925.037	738.793
200.432	25.751	923.804	736.300
201.446	25.531	923.599	735.173
202.461	25.507	923.085	734.599
203.475	25.020	921.330	731.153
204.490	24.264	920.119	727.046
205.504	24.967	920.248	729.946
206.519	25.335	919.833	731.053
207.534	25.620	919.926	732.223
208.548	25.974	918.200	732.219
209.563	25.781	917.234	730.604
210.577	26.059	917.403	731.801
211.592	26.189	916.586	731.610
212.607	26.175	916.479	731.404
213.621	25.960	916.381	730.388
214.636	26.150	914.628	729.695
215.650	26.071	914.791	729.442
216.665	25.968	913.843	728.206
217.680	26.169	912.365	727.776
218.694	25.698	912.721	726.093
219.709	25.678	911.573	725.035
220.723	25.914	910.578	725.130
221.738	25.944	910.800	725.364
222.753	25.762	909.883	723.836
223.767	26.021	908.976	724.092
224.782	26.368	908.875	725.341
225.796	25.863	909.609	723.833
226.811	25.848	907.118	721.729
227.826	25.003	906.393	717.701
228.840	25.272	906.102	718.487
229.855	25.434	905.476	718.574
230.869	25.362	903.920	716.987
231.884	25.134	904.387	716.385
232.899	25.731	904.721	718.971
233.913	25.793	904.003	718.584
234.928	25.683	902.266	716.700
235.942	25.579	900.890	715.131
236.957	25.240	901.490	714.195
237.972	25.292	901.234	714.137
238.986	25.559	899.809	714.005
240.001	25.702	899.966	714.634
241.015	25.471	898.617	712.585
242.030	25.852	898.310	713.788
243.045	25.772	898.398	713.475
244.059	25.965	897.300	713.305
245.074	25.885	897.150	712.804
246.088	25.669	896.265	711.187
247.103	25.754	896.403	711.567
248.117	26.362	895.302	713.031
249.132	26.480	895.989	713.980
250.147	26.721	894.699	713.839
251.161	26.766	894.512	713.802
252.176	26.617	893.907	712.672
253.190	26.428	893.815	711.789
254.205	27.027	892.128	712.736
255.220	26.784	892.162	711.746
256.234	26.708	891.256	710.664
257.249	26.596	890.509	709.566
258.263	26.668	889.463	708.951
259.278	26.321	889.791	707.791
260.293	26.498	889.288	708.021
261.307	26.945	887.785	708.506
262.322	26.614	887.916	707.256
263.336	25.844	886.693	703.217
264.351	25.205	884.684	699.071
265.366	25.493	884.686	700.131
266.380	25.988	884.831	702.112
267.395	26.464	884.478	703.622
268.409	26.460	882.955	702.334
269.424	26.429	882.445	701.746
270.439	26.540	882.072	701.816
271.453	26.533	881.333	701.139
272.468	26.676	880.826	701.226
273.482	26.537	881.087	700.836
274.497	26.287	880.084	699.008
275.512	26.253	879.924	698.689
276.526	26.601	878.832	699.105
277.541	26.349	879.610	698.686
278.555	26.589	878.095	698.349
279.570	26.428	877.646	697.307
280.585	26.381	877.196	696.706
281.599	26.021	876.226	694.490
282.614	25.842	874.926	692.708
283.628	26.093	874.508	693.284
284.643	26.142	873.901	692.928
285.657	26.152	873.117	692.282
286.672	26.183	872.160	691.583
287.687	26.148	871.943	691.213
288.701	26.185	871.613	691.033
289.716	26.019	871.404	690.169
290.730	25.905	870.367	688.854
291.745	26.057	869.342	688.562
292.760	26.099	868.574	688.051
293.774	26.804	868.922	690.955
294.789	26.887	867.995	690.472
295.803	26.780	868.335	690.275
296.818	26.694	867.423	689.160
297.833	26.615	866.217	687.841
298.847	26.504	865.810	687.036
299.862	26.364	866.205	686.756
300.876	26.761	865.503	687.646
301.891	26.556	865.267	686.620
302.906	26.700	864.098	686.179
303.920	26.872	863.619	686.387
304.935	27.326	863.272	687.769
305.949	27.026	862.219	685.733
306.964	26.506	862.169	683.671
307.979	26.453	861.551	682.917
308.993	27.034	860.407	684.140
310.008	26.934	860.023	683.400
311.022	26.735	859.907	682.498
312.037	26.818	858.613	681.724
313.052	26.499	857.639	679.690
314.066	25.792	857.130	676.572
315.081	25.573	856.612	675.279
316.095	26.449	855.400	677.549
317.110	26.342	856.205	677.725
318.125	26.225	854.710	676.043
319.139	25.211	853.973	671.606
320.154	25.308	853.722	671.714
321.168	25.947	853.083	673.538
322.183	26.575	853.109	675.846
323.197	26.127	852.791	673.860
324.212	26.785	851.799	675.472
325.227	26.313	851.235	673.207
326.241	26.421	851.056	673.405
327.256	26.386	850.597	672.854
328.270	26.248	849.954	671.771
329.285	26.004	848.570	669.713
330.300	26.155	848.158	669.888
331.314	26.478	847.552	670.548
332.329	26.385	848.644	671.007
333.343	26.689	847.923	671.504
334.358	26.409	847.712	670.240
335.373	26.935	846.437	671.119
336.387	26.873	846.700	671.039
337.402	26.948	846.830	671.362
338.416	26.953	845.974	670.641
339.431	27.288	844.556	670.694
340.446	27.662	844.559	672.015
341.460	27.292	843.960	670.116
342.475	27.389	844.062	670.495
343.489	27.286	843.522	669.628
344.504	27.329	844.025	670.127
345.519	27.207	843.614	669.293
346.533	27.592	842.179	669.507
347.548	27.498	841.433	668.512
348.562	26.966	841.832	666.814
349.577	27.404	840.527	667.329
350.592	27.329	840.554	667.017
351.606	27.070	839.123	664.875
352.621	26.897	838.831	663.949
353.635	26.814	838.622	663.423
354.650	26.388	837.443	660.875
355.665	26.495	835.954	660.030
356.679	26.660	835.244	660.013
357.694	27.119	834.230	660.823
358.708	26.439	834.029	658.134
359.723	26.890	833.165	659.032
360.738	26.602	834.776	659.199
361.752	26.783	833.884	659.095
362.767	27.124	832.998	659.572
363.781	27.152	832.200	658.984
364.796	27.566	832.126	660.368
365.810	27.541	831.997	660.118
366.825	27.624	831.009	659.577
367.840	27.567	829.920	658.446
368.854	27.492	829.100	657.468
369.869	26.928	829.527	655.712
370.883	26.914	829.447	655.537
371.898	27.017	829.485	655.882
372.913	27.294	828.869	656.337
373.927	26.887	827.430	653.673
374.942	27.337	826.691	654.652
375.956	27.237	825.811	653.536
376.971	27.414	825.844	654.141
377.986	27.431	824.825	653.337
379.000	27.514	825.052	653.756
380.015	27.656	824.326	653.635
381.029	27.299	824.173	652.175
382.044	27.423	823.532	652.054
383.059	27.853	823.657	653.634
384.073	27.381	823.389	651.676
385.088	27.124	822.541	650.027
386.102	27.112	820.946	648.664
387.117	27.320	820.417	648.931
388.132	26.813	819.758	646.545
389.146	26.438	819.347	644.829
390.161	27.332	818.204	647.051
391.175	27.448	818.827	647.899
392.190	27.178	817.977	646.210
393.205	26.143	816.534	641.338
394.219	25.154	815.242	636.759
395.234	25.206	814.445	636.262
396.248	26.272	815.388	640.724
397.263	27.413	814.421	643.949
398.278	26.788	814.885	642.046
399.292	26.099	815.535	640.058
400.307	26.681	813.334	640.330
401.321	26.622	813.516	640.210
402.336	27.304	813.168	642.289
403.350	27.542	811.964	642.121
404.365	27.369	813.066	642.323
405.380	27.703	812.596	643.072
406.394	27.644	812.103	642.417
407.409	27.890	811.327	642.612
408.423	27.677	811.896	642.257
409.438	27.730	811.356	641.959
410.453	28.085	809.751	641.879
411.467	27.588	809.604	639.960
412.482	27.478	809.497	639.433
413.496	27.557	809.453	639.619
414.511	27.897	807.725	639.387
415.526	27.306	808.293	637.709
416.540	27.583	807.411	637.927
417.555	27.444	807.432	637.400
418.569	27.351	807.695	637.228
419.584	27.487	806.272	636.523
420.599	27.630	805.591	636.427
421.613	160.008	1370.922	1792.984
422.628	139.065	1453.252	1793.032
