DTS Sentinel unit serial number:	SN413079Multiplexer serial number:	ORYXHardware model number:	OX4-SRSoftware version number:	ORYX F/W v4.00 Oryx Data Collector v3.7.2.0data status	okinstallation	princeton_trtdifferential loss correction	single-endedforward channel	channel 1reverse channel	N/Adate	2019/09/16time	06:30:35forward acquisition time	60.00reverse acquisition time	0.00gamma	496.2192k internal	0.2331k external	0.2331temperature offset calibration	0.9984default loss term (dB/km)	0.3790temperature slope calibration	1.0000multiplexer offset coefficient	1.0000multiplexer slope coefficient	1.0000fibre end	0.00T internal ref (°C)	27.37T ext. ref 1 (°C)	11.37T ext. ref 2 (°C)	21.77length (m)	temperature (°C)	Stokes	anti-Stokes-747.200	-200.000	0.038	0.449
-746.185	-63.524	-0.316	0.131
-745.171	50.089	-0.168	-0.160
-744.156	-117.217	-0.346	-0.063
-743.142	-126.815	-0.294	-0.044
-742.127	486.168	0.126	0.288
-741.112	31.013	0.051	-0.044
-740.098	-24.585	-0.340	0.203
-739.083	51.407	0.145	-0.139
-738.069	-200.000	0.026	0.299
-737.054	-16.743	0.101	-0.064
-736.039	-200.000	-0.072	-0.437
-735.025	54.836	0.152	0.147
-734.010	-10.039	-0.181	0.121
-732.996	325.906	-0.116	-0.223
-731.981	545.935	-0.114	0.274
-730.966	-119.332	0.160	-0.028
-729.952	690.647	-0.010	0.027
-728.937	-86.688	-0.121	-0.037
-727.923	-60.915	0.165	0.070
-726.908	94.155	0.093	0.106
-725.894	-27.640	-0.170	-0.099
-724.879	44.092	-0.091	0.084
-723.864	-154.434	-0.222	0.015
-722.850	-108.129	-0.176	0.038
-721.835	800.000	-0.005	-0.016
-720.821	-200.000	-0.013	0.073
-719.806	-200.000	-0.052	0.336
-718.791	-17.860	0.083	0.052
-717.777	-200.000	0.003	0.128
-716.762	-103.641	0.385	-0.091
-715.748	528.605	-0.120	-0.284
-714.733	-200.000	0.012	-0.117
-713.718	449.465	0.109	-0.242
-712.704	-48.300	-0.213	0.103
-711.689	-78.819	0.291	-0.100
-710.675	457.967	-0.075	0.168
-709.660	800.000	-0.075	0.212
-708.645	-200.000	-0.117	-0.641
-707.631	253.761	0.127	-0.218
-706.616	-56.577	-0.246	0.110
-705.602	421.915	0.146	-0.314
-704.587	-8.758	-0.163	0.110
-703.572	32.435	0.136	-0.118
-702.558	7.879	0.120	-0.090
-701.543	-109.059	-0.088	-0.019
-700.529	-80.640	0.278	-0.093
-699.514	-100.798	0.165	-0.041
-698.499	86.820	0.081	0.090
-697.485	310.031	0.083	-0.156
-696.470	-84.802	0.285	0.090
-695.456	58.555	0.211	-0.208
-694.441	-200.000	0.000	0.041
-693.426	36.828	-0.255	-0.226
-692.412	31.843	-0.126	0.109
-691.397	166.560	0.109	0.155
-690.383	-135.425	-0.075	0.009
-689.368	84.435	0.144	0.158
-688.354	-145.600	-0.294	0.026
-687.339	208.765	-0.129	0.202
-686.324	156.157	-0.197	-0.273
-685.310	800.000	0.063	0.182
-684.295	800.000	0.090	0.262
-683.281	57.240	-0.194	0.190
-682.266	-200.000	0.014	-0.240
-681.251	26.706	-0.163	-0.137
-680.237	-193.531	-0.397	-0.003
-679.222	38.022	-0.099	-0.088
-678.208	431.073	0.031	-0.067
-677.193	113.635	0.108	-0.132
-676.178	-113.280	0.269	-0.053
-675.164	129.889	0.182	-0.233
-674.149	-28.227	0.128	-0.074
-673.135	90.627	0.165	-0.186
-672.120	800.000	0.067	-0.240
-671.105	141.237	-0.050	-0.066
-670.091	-80.476	0.387	-0.130
-669.076	-200.000	-0.017	-0.297
-668.062	-39.540	0.131	0.069
-667.047	-143.342	-0.601	-0.058
-666.032	-99.007	-0.141	-0.036
-665.018	-68.384	-0.154	-0.060
-664.003	-152.025	0.150	0.011
-662.989	-103.054	-0.353	-0.084
-661.974	-119.873	-0.080	-0.014
-660.959	605.914	0.093	-0.234
-659.945	584.239	-0.089	-0.218
-658.930	27.782	-0.106	-0.089
-657.916	-200.000	-0.048	-0.218
-656.901	429.222	-0.101	-0.218
-655.886	800.000	0.048	-0.168
-654.872	52.779	-0.120	0.115
-653.857	63.303	0.073	-0.074
-652.843	-133.163	-0.136	0.017
-651.828	-41.474	0.233	0.120
-650.814	-2.596	-0.254	-0.178
-649.799	8.494	0.133	-0.101
-648.784	-200.000	-0.025	0.168
-647.770	-145.147	0.107	0.010
-646.755	-200.000	-0.024	-0.223
-645.741	-87.988	-0.153	0.046
-644.726	-200.000	0.013	0.112
-643.711	12.707	0.119	-0.092
-642.697	-71.238	0.153	-0.057
-641.682	-200.000	-0.028	-0.133
-640.668	-200.000	0.004	-0.213
-639.653	159.494	-0.074	-0.103
-638.638	-35.841	-0.304	-0.165
-637.624	-200.000	0.030	0.237
-636.609	-134.844	0.152	-0.018
-635.595	379.804	-0.080	-0.164
-634.580	84.434	-0.137	-0.150
-633.565	27.563	0.157	-0.133
-632.551	136.425	0.064	0.084
-631.536	-20.724	-0.046	-0.028
-630.522	-40.368	0.094	0.049
-629.507	-119.270	-0.272	-0.048
-628.492	-78.430	0.095	-0.033
-627.478	98.288	-0.213	-0.246
-626.463	84.955	0.081	0.089
-625.449	-200.000	0.009	-0.067
-624.434	-169.652	0.188	-0.007
-623.419	-114.117	-0.083	0.016
-622.405	-107.069	0.350	-0.077
-621.390	63.879	-0.245	0.247
-620.376	-61.646	0.114	-0.048
-619.361	800.000	0.024	-0.076
-618.346	-78.572	-0.222	-0.076
-617.332	-63.879	-0.180	0.074
-616.317	111.201	0.084	-0.102
-615.303	140.918	-0.217	-0.287
-614.288	20.867	0.202	-0.164
-613.273	-71.861	0.270	0.101
-612.259	204.188	0.176	-0.273
-611.244	175.208	-0.110	0.159
-610.230	313.031	0.071	0.133
-609.215	109.769	-0.120	-0.144
-608.201	-61.534	0.155	0.065
-607.186	12.925	-0.244	-0.189
-606.171	28.384	-0.223	-0.189
-605.157	384.606	0.223	-0.460
-604.142	115.228	0.128	0.156
-603.128	-200.000	-0.091	-0.412
-602.113	157.691	-0.215	-0.299
-601.098	63.496	0.255	0.257
-600.084	-114.369	-0.381	-0.073
-599.069	-200.000	-0.010	-0.276
-598.055	-200.000	0.005	0.169
-597.040	-138.061	0.202	-0.022
-596.025	-86.164	-0.061	0.019
-595.011	-72.417	0.150	0.055
-593.996	-63.251	0.198	0.082
-592.982	-66.179	0.187	-0.075
-591.967	-200.000	-0.026	0.304
-590.952	237.088	0.085	0.141
-589.938	-200.000	0.023	-0.235
-588.923	246.245	-0.123	0.208
-587.909	-2.210	-0.143	-0.100
-586.894	-200.000	0.021	-0.101
-585.879	732.781	0.039	-0.106
-584.865	44.371	0.192	-0.176
-583.850	-178.891	0.092	0.002
-582.836	-41.336	0.130	-0.067
-581.821	27.965	-0.156	-0.131
-580.806	531.896	0.186	-0.441
-579.792	18.514	-0.067	0.053
-578.777	-3.355	0.242	0.169
-577.763	99.009	0.183	-0.212
-576.748	102.017	0.188	-0.219
-575.733	214.616	-0.078	0.123
-574.719	141.097	0.114	-0.150
-573.704	-1.920	-0.184	-0.129
-572.690	-200.000	0.009	0.054
-571.675	800.000	-0.063	0.235
-570.661	295.772	-0.120	-0.219
-569.646	222.567	-0.131	-0.211
-568.631	212.875	-0.107	0.168
-567.617	-37.870	0.048	0.026
-566.602	370.736	-0.073	-0.147
-565.588	800.000	0.085	0.236
-564.573	-200.000	0.072	0.384
-563.558	800.000	-0.061	0.175
-562.544	-71.391	0.174	0.065
-561.529	621.218	0.088	0.220
-560.515	-39.881	0.120	0.063
-559.500	-30.323	-0.329	-0.187
-558.485	-120.748	-0.113	0.019
-557.471	172.269	-0.283	0.406
-556.456	-83.920	0.070	0.022
-555.442	20.545	0.206	0.167
-554.427	-147.245	0.126	-0.011
-553.412	-3.317	0.147	0.102
-552.398	-137.816	0.377	-0.042
-551.383	4.019	-0.231	0.169
-550.369	86.047	-0.154	0.169
-549.354	-104.084	-0.041	0.010
-548.339	404.171	0.075	0.157
-547.325	-101.141	0.179	0.044
-546.310	-141.151	0.173	-0.018
-545.296	-20.247	0.194	-0.120
-544.281	19.720	0.083	-0.067
-543.266	-115.644	-0.280	-0.052
-542.252	20.774	0.085	-0.069
-541.237	-9.348	-0.240	0.160
-540.223	30.700	0.201	-0.172
-539.208	1.380	0.150	-0.107
-538.193	504.036	-0.148	-0.341
-537.179	117.520	-0.174	0.214
-536.164	800.000	-0.033	0.119
-535.150	-200.000	0.034	0.287
-534.135	222.572	-0.164	0.263
-533.121	-142.018	-0.206	0.020
-532.106	-36.098	-0.169	0.091
-531.091	-30.634	-0.120	0.068
-530.077	-125.628	0.091	-0.014
-529.062	-18.932	0.320	0.199
-528.048	-116.228	-0.185	-0.034
-527.033	117.526	0.181	0.223
-526.018	201.273	-0.178	-0.274
-525.004	-200.000	-0.009	0.057
-523.989	-84.181	0.333	0.106
-522.975	-200.000	0.001	-0.024
-521.960	-200.000	0.005	-0.169
-520.945	21.314	0.074	0.060
-519.931	-92.168	0.123	0.035
-518.916	-200.000	-0.016	0.105
-517.902	-100.420	-0.185	0.046
-516.887	-103.525	0.282	-0.066
-515.872	-200.000	0.046	0.330
-514.858	122.823	0.180	0.224
-513.843	-97.181	0.237	-0.062
-512.829	-138.576	-0.168	0.018
-511.814	74.929	-0.292	0.307
-510.799	88.780	-0.169	0.188
-509.785	126.199	0.106	0.134
-508.770	476.062	-0.034	0.076
-507.756	109.640	-0.145	0.174
-506.741	-115.343	-0.099	0.019
-505.726	-200.000	0.014	0.082
-504.712	31.589	0.286	0.245
-503.697	-26.544	-0.356	0.208
-502.683	-161.039	-0.142	0.007
-501.668	-158.124	-0.310	-0.018
-500.653	69.539	-0.237	0.243
-499.639	-46.987	0.174	0.085
-498.624	311.052	-0.165	-0.308
-497.610	608.818	0.079	0.197
-496.595	800.000	0.064	-0.203
-495.581	-200.000	0.036	-0.282
-494.566	-81.618	0.122	-0.040
-493.551	-82.343	-0.411	-0.133
-492.537	-33.534	0.400	0.220
-491.522	-16.252	-0.076	0.048
-490.508	387.635	0.077	-0.160
-489.493	-58.642	0.413	-0.178
-488.478	800.000	-0.051	-0.188
-487.464	-144.965	-0.217	-0.020
-486.449	389.710	0.231	-0.478
-485.435	-200.000	0.043	-0.242
-484.420	800.000	-0.039	0.159
-483.405	30.564	0.218	0.186
-482.391	800.000	-0.053	-0.204
-481.376	-200.000	0.002	-0.020
-480.362	119.926	0.281	-0.347
-479.347	35.973	0.187	-0.164
-478.332	-50.533	0.147	-0.069
-477.318	-200.000	-0.030	-0.188
-476.303	211.408	-0.055	0.086
-475.289	-7.453	0.129	-0.087
-474.274	-47.285	-0.140	-0.068
-473.259	96.919	0.090	-0.103
-472.245	302.978	0.172	-0.317
-471.230	-126.863	-0.229	0.034
-470.216	-182.345	-0.121	0.002
-469.201	-65.929	0.310	0.123
-468.186	-200.000	-0.001	-0.140
-467.172	-120.819	0.015	0.003
-466.157	205.260	0.114	-0.176
-465.143	33.033	-0.078	0.067
-464.128	-95.315	0.074	0.020
-463.113	800.000	-0.040	0.146
-462.099	530.675	0.098	-0.230
-461.084	-59.331	0.353	0.151
-460.070	22.403	-0.341	0.278
-459.055	-136.975	0.287	-0.033
-458.040	-116.513	-0.315	0.058
-457.026	-141.644	0.013	0.001
-456.011	800.000	-0.045	-0.186
-454.997	93.822	-0.166	0.187
-453.982	-200.000	0.004	0.105
-452.968	95.006	0.142	-0.160
-451.953	579.775	-0.044	0.108
-450.938	800.000	0.049	0.189
-449.924	46.298	0.267	0.246
-448.909	300.460	-0.027	-0.050
-447.895	-108.763	-0.100	0.021
-446.880	-90.306	0.226	-0.065
-445.865	169.776	0.152	0.216
-444.851	-188.981	0.187	-0.002
-443.836	74.227	-0.245	-0.256
-442.822	3.027	0.184	0.133
-441.807	513.887	0.096	-0.222
-440.792	-56.851	0.195	-0.086
-439.778	-200.000	-0.037	-0.384
-438.763	302.851	0.116	-0.213
-437.749	75.573	-0.236	0.247
-436.734	21.592	-0.098	-0.079
-435.719	275.005	-0.014	-0.024
-434.705	-200.000	0.015	0.145
-433.690	-105.685	-0.264	0.059
-432.676	-200.000	0.009	0.255
-431.661	529.871	0.083	-0.195
-430.646	711.728	0.150	0.396
-429.632	-96.452	-0.201	0.053
-428.617	-32.711	-0.491	0.271
-427.603	219.152	-0.121	0.192
-426.588	-116.874	-0.403	0.073
-425.573	381.393	-0.110	0.225
-424.559	-20.556	-0.022	-0.013
-423.544	800.000	-0.057	0.240
-422.530	-53.263	0.320	0.146
-421.515	125.452	0.078	-0.098
-420.500	-38.270	-0.361	0.190
-419.486	-17.241	0.089	-0.056
-418.471	95.819	0.124	-0.141
-417.457	-93.392	-0.394	-0.109
-416.442	50.128	-0.063	-0.060
-415.428	-31.292	-0.068	0.038
-414.413	-91.883	-0.132	-0.037
-413.398	426.402	0.093	0.199
-412.384	-200.000	0.054	0.259
-411.369	800.000	-0.046	0.166
-410.355	-147.392	-0.254	-0.021
-409.340	-104.829	-0.431	-0.098
-408.325	-200.000	0.017	-0.199
-407.311	-81.453	0.340	0.111
-406.296	128.988	-0.120	0.152
-405.282	-104.464	0.229	0.053
-404.267	-147.609	-0.109	-0.009
-403.252	524.641	-0.109	0.254
-402.238	-200.000	0.033	0.282
-401.223	-87.314	-0.424	-0.128
-400.209	800.000	0.071	-0.308
-399.194	51.671	0.061	-0.057
-398.179	-33.974	0.176	0.096
-397.165	-174.388	0.280	-0.008
-396.150	800.000	-0.023	0.069
-395.136	-74.045	0.113	0.041
-394.121	-200.000	-0.026	0.333
-393.106	-200.000	-0.009	0.279
-392.092	-120.431	-0.247	-0.042
-391.077	-200.000	-0.037	-0.174
-390.063	92.936	-0.028	0.032
-389.048	133.806	-0.104	0.133
-388.033	6.612	-0.038	0.028
-387.019	73.833	-0.258	0.269
-386.004	-24.178	0.278	0.165
-384.990	-181.553	-0.215	-0.004
-383.975	800.000	-0.073	-0.204
-382.960	-104.845	0.399	0.091
-381.946	97.262	-0.162	0.184
-380.931	91.785	0.216	-0.241
-379.917	-138.160	0.298	-0.033
-378.902	800.000	0.078	-0.278
-377.888	248.396	-0.091	-0.152
-376.873	-200.000	0.107	0.471
-375.858	-55.427	-0.235	0.104
-374.844	-37.998	0.145	0.076
-373.829	92.475	0.157	-0.176
-372.815	-200.000	-0.055	-0.400
-371.800	16.898	-0.113	0.088
-370.785	-182.723	0.165	-0.003
-369.771	-107.723	0.331	-0.072
-368.756	-200.000	-0.006	0.152
-367.742	800.000	-0.110	-0.443
-366.727	-20.628	0.260	-0.158
-365.712	-20.451	-0.228	0.139
-364.698	1.120	-0.265	-0.189
-363.683	130.473	0.153	-0.194
-362.669	70.114	-0.167	-0.171
-361.654	-200.000	-0.020	-0.095
-360.639	-63.686	-0.356	0.145
-359.625	-30.213	-0.043	0.024
-358.610	329.287	-0.190	-0.361
-357.596	-178.258	0.154	-0.004
-356.581	55.418	0.353	0.339
-355.566	-200.000	0.006	-0.069
-354.552	-124.242	0.250	-0.039
-353.537	-50.275	-0.195	-0.091
-352.523	-74.213	0.299	0.107
-351.508	-14.678	-0.041	-0.026
-350.493	-200.000	-0.001	0.180
-349.479	52.044	-0.021	0.019
-348.464	-165.014	-0.168	0.007
-347.450	800.000	-0.035	-0.116
-346.435	-36.646	0.169	-0.090
-345.420	18.350	0.091	0.072
-344.406	-49.457	-0.186	0.088
-343.391	-105.143	0.312	-0.071
-342.377	-23.004	0.178	0.106
-341.362	753.355	0.096	0.257
-340.348	123.459	0.175	-0.218
-339.333	-88.993	-0.339	-0.099
-338.318	800.000	-0.047	-0.149
-337.304	12.484	-0.164	0.125
-336.289	239.184	0.090	-0.148
-335.275	-116.615	0.328	-0.060
-334.260	138.951	0.039	0.050
-333.245	128.841	0.111	-0.140
-332.231	45.715	-0.176	-0.161
-331.216	-65.025	0.215	0.086
-330.202	-146.239	0.116	-0.010
-329.187	669.302	-0.047	0.120
-328.172	-71.730	0.098	0.036
-327.158	800.000	-0.028	0.116
-326.143	-200.000	-0.003	0.132
-325.129	-106.203	-0.467	0.104
-324.114	43.458	-0.083	0.075
-323.099	151.924	-0.185	0.250
-322.085	-51.077	-0.138	0.064
-321.070	322.569	0.080	-0.151
-320.056	-73.739	0.111	0.040
-319.041	-30.742	0.133	-0.075
-318.026	800.000	0.013	0.051
-317.012	-200.000	0.012	-0.117
-315.997	-146.688	-0.152	-0.013
-314.983	216.052	0.059	-0.093
-313.968	-20.016	0.158	-0.097
-312.953	-46.956	-0.357	-0.172
-311.939	222.996	-0.100	-0.159
-310.924	-127.320	-0.471	0.068
-309.910	142.513	-0.101	0.133
-308.895	-5.420	0.244	0.166
-307.880	-200.000	0.002	-0.208
-306.866	-62.680	0.246	0.101
-305.851	-85.706	-0.201	0.062
-304.837	15.935	-0.320	-0.249
-303.822	800.000	0.091	-0.296
-302.807	800.000	-0.117	-0.389
-301.793	322.206	0.127	-0.238
-300.778	12.289	0.218	0.166
-299.764	67.155	0.236	0.238
-298.749	-200.000	-0.042	0.210
-297.735	16.372	0.089	-0.070
-296.720	130.898	0.082	0.105
-295.705	722.275	-0.134	0.352
-294.691	561.139	-0.066	0.158
-293.676	-200.000	-0.007	-0.177
-292.662	-79.893	0.265	-0.088
-291.647	-192.060	0.172	0.002
-290.632	-43.143	-0.131	-0.066
-289.618	158.878	-0.030	-0.041
-288.603	-119.272	-0.217	-0.037
-287.589	-110.395	0.223	0.046
-286.574	-2.015	0.278	0.193
-285.559	-138.645	-0.122	0.013
-284.545	0.011	-0.215	0.152
-283.530	-200.000	-0.027	0.190
-282.516	800.000	-0.039	0.136
-281.501	-134.921	-0.128	-0.015
-280.486	236.987	-0.195	-0.319
-279.472	-200.000	0.004	0.182
-278.457	-200.000	-0.074	-0.394
-277.443	-44.728	0.239	-0.118
-276.428	159.100	0.109	0.149
-275.413	-80.323	-0.053	0.018
-274.399	-118.225	-0.214	0.038
-273.384	-90.661	-0.043	0.012
-272.370	741.148	0.015	-0.041
-271.355	75.048	0.070	-0.073
-270.340	265.461	-0.101	0.175
-269.326	-132.259	0.074	0.010
-268.311	50.034	0.244	-0.227
-267.297	-200.000	-0.002	0.082
-266.282	489.533	0.093	0.210
-265.267	-71.793	0.260	0.096
-264.253	-130.944	-0.281	0.037
-263.238	132.392	-0.135	0.172
-262.224	-107.893	-0.234	-0.050
-261.209	800.000	-0.067	0.202
-260.195	208.787	0.138	0.213
-259.180	800.000	-0.108	0.430
-258.165	-15.277	-0.014	0.009
-257.151	47.194	-0.280	0.258
-256.136	183.823	0.109	0.159
-255.122	-57.405	0.269	-0.117
-254.107	-105.109	-0.091	0.020
-253.092	-17.268	0.154	-0.096
-252.078	-200.000	0.006	0.027
-251.063	-129.171	-0.030	0.004
-250.049	-200.000	0.007	0.196
-249.034	-145.581	-0.215	0.019
-248.019	163.765	-0.143	0.199
-247.005	-200.000	-0.060	-0.344
-245.990	29.566	-0.047	-0.039
-244.976	-86.168	-0.180	0.055
-243.961	306.385	0.071	-0.130
-242.946	-61.110	-0.343	-0.143
-241.932	-166.655	0.200	-0.008
-240.917	-18.159	-0.257	0.159
-239.903	763.188	0.033	-0.089
-238.888	336.536	0.204	-0.391
-237.873	-59.820	-0.346	-0.146
-236.859	34.222	0.141	-0.121
-235.844	29.537	-0.171	0.143
-234.830	89.360	-0.175	-0.192
-233.815	86.428	0.074	-0.081
-232.800	73.882	-0.080	-0.083
-231.786	33.630	-0.213	-0.183
-230.771	-162.334	0.181	-0.009
-229.757	46.818	0.069	0.063
-228.742	1.668	-0.281	-0.199
-227.727	200.240	-0.120	-0.182
-226.713	587.772	-0.048	-0.115
-225.698	-19.592	-0.297	0.181
-224.684	8.983	0.342	0.254
-223.669	192.852	-0.180	-0.268
-222.655	-38.863	0.122	0.063
-221.640	-106.545	0.155	-0.034
-220.625	-20.207	-0.141	-0.086
-219.611	283.345	0.038	0.067
-218.596	-200.000	0.013	-0.196
-217.582	-144.526	-0.216	0.020
-216.567	27.615	-0.230	-0.191
-215.552	-200.000	-0.006	-0.228
-214.538	800.000	-0.083	0.228
-213.523	-4.525	0.092	0.063
-212.509	-100.120	0.356	-0.087
-211.494	120.810	0.047	-0.057
-210.479	104.563	-0.203	0.235
-209.465	-51.759	0.370	0.170
-208.450	43.027	-0.131	0.118
-207.436	39.780	-0.078	0.069
-206.421	-107.669	-0.225	0.048
-205.406	34.160	-0.037	-0.032
-204.392	39.951	-0.137	0.122
-203.377	189.845	0.110	-0.163
-202.363	800.000	-0.054	-0.187
-201.348	306.481	-0.129	-0.237
-200.333	372.898	0.140	-0.281
-199.319	-160.850	0.240	-0.012
-198.304	44.210	0.149	0.135
-197.290	-124.036	0.068	-0.011
-196.275	-14.620	0.224	-0.142
-195.260	64.421	0.243	-0.241
-194.246	485.258	0.099	0.221
-193.231	-200.000	-0.070	0.639
-192.217	-200.000	0.015	0.203
-191.202	-39.543	-0.195	-0.101
-190.187	557.639	0.256	0.609
-189.173	-167.336	0.123	0.005
-188.158	119.368	-0.280	-0.342
-187.144	-36.878	0.040	0.021
-186.129	-99.048	-0.369	-0.092
-185.114	232.136	-0.197	0.318
-184.100	76.161	0.134	-0.140
-183.085	-200.000	-0.025	0.162
-182.071	505.020	-0.056	-0.128
-181.056	-200.000	-0.017	-0.220
-180.042	-140.856	0.148	0.015
-179.027	-146.657	-0.475	-0.041
-178.012	267.320	0.207	-0.357
-176.998	24.888	-0.129	0.105
-175.983	590.337	0.123	0.298
-174.969	800.000	0.028	0.093
-173.954	-18.192	0.135	0.083
-172.939	-42.349	0.135	0.068
-171.925	-47.836	0.171	0.082
-170.910	198.531	0.142	0.214
-169.896	-98.950	-0.228	0.057
-168.881	9.726	0.076	0.057
-167.866	-200.000	0.003	-0.085
-166.852	355.416	-0.191	-0.373
-165.837	-88.439	0.039	0.012
-164.823	-200.000	0.010	0.316
-163.808	-72.802	0.223	-0.081
-162.793	-200.000	0.024	-0.184
-161.779	800.000	0.104	-0.303
-160.764	-149.726	0.178	0.014
-159.750	59.421	-0.225	-0.219
-158.735	-71.872	0.075	0.028
-157.720	-4.629	0.070	-0.048
-156.706	-124.626	0.261	-0.040
-155.691	4.459	-0.198	0.143
-154.677	800.000	0.045	-0.184
-153.662	47.305	-0.052	0.048
-152.647	-200.000	-0.008	0.055
-151.633	68.230	0.130	-0.131
-150.618	-39.372	-0.181	-0.093
-149.604	8.152	-0.149	0.110
-148.589	28.043	0.279	0.232
-147.574	270.078	0.155	-0.268
-146.560	-200.000	0.037	0.168
-145.545	-143.989	-0.342	-0.032
-144.531	-154.923	-0.151	0.010
-143.516	25.419	-0.291	0.238
-142.502	-125.636	-0.272	-0.041
-141.487	-22.525	0.227	-0.135
-140.472	12.483	0.190	-0.144
-139.458	63.363	-0.306	-0.302
-138.443	433.213	-0.112	0.239
-137.429	93.657	-0.106	-0.118
-136.414	-16.737	0.106	0.066
-135.399	70.406	-0.156	-0.158
-134.385	-48.962	-0.251	0.118
-133.370	-200.000	0.061	0.327
-132.356	181.447	0.065	-0.094
-131.341	-47.623	-0.101	-0.048
-130.326	-58.327	0.151	0.065
-129.312	-36.669	0.413	0.218
-128.297	-118.730	0.159	0.028
-127.283	-200.000	-0.034	0.460
-126.268	-157.604	0.369	-0.022
-125.253	-121.028	-0.376	-0.062
-124.239	-122.035	0.211	0.034
-123.224	-150.972	0.284	0.021
-122.210	73.018	0.199	0.204
-121.195	-124.035	0.041	0.006
-120.180	69.556	-0.131	0.133
-119.166	-76.968	0.140	0.048
-118.151	147.917	0.127	0.169
-117.137	-170.887	-0.252	-0.008
-116.122	97.660	0.213	-0.240
-115.107	-52.784	0.111	0.050
-114.093	-172.828	-0.058	0.002
-113.078	-200.000	-0.059	-0.320
-112.064	-70.520	0.275	-0.102
-111.049	-74.807	-0.278	0.098
-110.034	-1.871	0.039	0.027
-109.020	1.510	0.345	-0.243
-108.005	-40.161	0.389	0.199
-106.991	-106.898	-0.175	0.038
-105.976	-63.357	-0.164	0.066
-104.962	-200.000	-0.075	0.470
-103.947	-200.000	0.051	0.355
-102.932	221.647	-0.154	0.243
-101.918	-92.754	0.197	-0.054
-100.903	-6.114	-0.216	0.145
-99.889	-46.575	-0.231	-0.111
-98.874	-118.071	0.301	-0.053
-97.859	9.101	-0.272	0.202
-96.845	800.000	0.092	-0.315
-95.830	-139.599	0.020	0.002
-94.816	102.018	0.108	-0.124
-93.801	22.164	-0.281	0.225
-92.786	152.054	0.142	-0.190
-91.772	-173.290	0.259	-0.008
-90.757	88.485	-0.181	0.197
-89.743	141.313	-0.193	0.251
-88.728	355.518	-0.064	0.125
-87.713	-163.821	0.203	0.009
-86.699	495.393	0.095	0.213
-85.684	281.295	0.259	0.456
-84.670	-53.760	-0.196	-0.088
-83.655	800.000	0.089	-0.257
-82.640	800.000	-0.130	0.389
-81.626	17.510	-0.077	0.060
-80.611	-62.282	0.142	-0.058
-79.597	194.356	-0.067	0.099
-78.582	4.849	-0.089	-0.064
-77.567	366.438	0.180	0.357
-76.553	467.121	0.125	0.275
-75.538	800.000	0.054	-0.192
-74.524	-109.773	0.226	-0.047
-73.509	-200.000	0.037	-0.267
-72.494	134.786	0.018	0.022
-71.480	142.499	-0.130	0.169
-70.465	800.000	-0.091	0.247
-69.451	112.662	0.297	0.353
-68.436	-107.467	-0.274	0.059
-67.422	-200.000	0.218	0.000
-66.407	65.298	0.283	0.281
-65.392	-200.000	-0.042	0.249
-64.378	-200.000	-0.092	0.411
-63.363	31.065	0.186	0.156
-62.349	495.650	0.061	0.138
-61.334	193.916	-0.920	-1.365
-60.319	59.765	0.532	0.515
-59.305	505.541	-0.491	-1.114
-58.290	62.958	0.945	0.927
-57.276	151.131	0.982	1.309
-56.261	-200.000	113.944	643.231
-55.246	463.708	1511.990	3310.055
-54.232	146.058	2680.253	3522.350
-53.217	103.443	2157.732	2480.072
-52.203	38.783	1603.897	1402.833
-51.188	30.600	1349.498	1130.768
-50.173	27.822	1311.413	1082.364
-49.159	55.885	1367.846	1299.340
-48.144	54.366	1381.880	1303.472
-47.130	30.980	1337.273	1122.633
-46.115	27.492	1319.931	1087.250
-45.100	27.170	1314.997	1081.228
-44.086	27.233	1312.286	1079.334
-43.071	27.245	1309.841	1077.352
-42.057	27.215	1307.637	1075.316
-41.042	27.164	1306.746	1074.239
-40.027	27.260	1304.654	1073.046
-39.013	27.207	1302.729	1071.107
-37.998	27.206	1300.803	1069.473
-36.984	27.224	1299.358	1068.348
-35.969	27.334	1297.408	1067.351
-34.954	27.405	1295.669	1066.293
-33.940	27.454	1294.148	1065.286
-32.925	27.408	1293.046	1064.069
-31.911	27.427	1291.381	1062.766
-30.896	27.334	1290.504	1061.459
-29.881	27.468	1288.852	1060.838
-28.867	27.486	1287.359	1059.669
-27.852	27.526	1285.669	1058.473
-26.838	27.471	1284.262	1056.953
-25.823	27.428	1283.148	1055.746
-24.809	27.462	1282.054	1055.000
-23.794	27.525	1280.134	1053.743
-22.779	27.456	1278.937	1052.318
-21.765	27.465	1277.797	1051.385
-20.750	27.395	1276.766	1050.092
-19.736	27.440	1275.200	1049.024
-18.721	27.329	1274.266	1047.576
-17.706	27.323	1273.069	1046.517
-16.692	27.335	1272.042	1045.695
-15.677	27.441	1270.675	1045.139
-14.663	27.306	1270.035	1043.796
-13.648	27.374	1268.387	1042.792
-12.633	27.333	1267.619	1041.882
-11.619	27.316	1266.819	1041.087
-10.604	27.383	1265.937	1040.705
-9.590	27.373	1264.873	1039.733
-8.575	27.329	1263.432	1038.257
-7.560	27.252	1263.023	1037.442
-6.546	27.370	1262.407	1037.566
-5.531	27.404	1260.888	1036.470
-4.517	27.270	1260.446	1035.302
-3.502	27.418	1259.322	1035.181
-2.487	27.323	1258.223	1033.692
-1.473	27.298	1254.362	1030.342
-0.458	25.681	1239.945	1009.395
0.556	21.044	1223.324	973.162
1.571	17.471	1229.371	957.819
2.586	16.689	1244.706	965.221
3.600	16.891	1233.976	957.961
4.615	15.639	1167.719	899.744
5.629	12.963	1101.058	834.783
6.644	11.556	1084.525	815.155
7.659	11.359	1082.489	812.571
8.673	11.300	1081.519	811.479
9.688	11.286	1080.223	810.368
10.702	11.489	1078.008	809.640
11.717	13.011	1079.423	818.180
12.731	15.945	1082.568	835.058
13.746	17.625	1084.847	845.083
14.761	17.698	1084.034	844.738
15.775	16.655	1082.113	838.006
16.790	15.555	1080.317	831.102
17.804	14.775	1078.456	825.742
18.819	14.387	1077.015	822.649
19.834	14.183	1076.305	821.028
20.848	14.046	1075.659	819.785
21.863	13.669	1074.556	817.014
22.877	13.557	1073.627	815.686
23.892	13.449	1073.228	814.780
24.907	13.495	1072.495	814.378
25.921	13.457	1071.309	813.215
26.936	13.564	1069.851	812.561
27.950	13.671	1068.400	811.912
28.965	13.701	1066.703	810.700
29.980	13.863	1064.962	810.096
30.994	13.949	1064.155	809.827
32.009	13.818	1063.210	808.399
33.023	13.781	1062.142	807.337
34.038	13.694	1061.504	806.356
35.053	13.706	1060.647	805.695
36.067	13.664	1059.567	804.598
37.082	13.755	1058.656	804.274
38.096	13.867	1057.695	804.014
39.111	13.833	1057.037	803.279
40.126	13.781	1055.639	801.894
41.140	13.671	1054.632	800.529
42.155	13.652	1052.723	798.917
43.169	13.475	1052.746	798.011
44.184	13.495	1051.645	797.203
45.199	13.555	1050.274	796.383
46.213	13.476	1049.676	795.479
47.228	13.765	1048.140	795.627
48.242	13.746	1047.357	794.874
49.257	13.725	1046.041	793.705
50.271	13.744	1045.109	793.015
51.286	13.736	1044.411	792.378
52.301	13.778	1043.782	792.031
53.315	13.514	1042.591	789.798
54.330	13.611	1041.600	789.440
55.344	13.643	1040.516	788.702
56.359	13.681	1039.605	788.122
57.374	13.458	1039.230	786.707
58.388	13.600	1037.503	786.003
59.403	13.493	1037.102	785.126
60.417	13.461	1036.253	784.262
61.432	13.517	1035.466	783.859
62.447	13.385	1034.520	782.451
63.461	13.368	1033.994	781.906
64.476	13.444	1033.164	781.564
65.490	13.540	1032.136	781.174
66.505	13.541	1031.100	780.321
67.520	13.527	1030.889	780.028
68.534	13.497	1030.241	779.328
69.549	13.454	1029.505	778.500
70.563	13.503	1028.381	777.811
71.578	13.383	1028.027	776.914
72.593	13.390	1027.059	776.145
73.607	13.436	1026.282	775.702
74.622	13.426	1025.506	775.004
75.636	13.390	1024.932	774.333
76.651	13.299	1024.598	773.586
77.666	13.412	1023.707	773.372
78.680	13.362	1022.935	772.486
79.695	13.527	1021.899	772.408
80.709	13.473	1021.671	771.912
81.724	13.486	1021.229	771.570
82.739	13.647	1020.118	771.413
83.753	13.752	1019.330	771.235
84.768	13.772	1018.633	770.732
85.782	13.880	1017.505	770.313
86.797	13.657	1017.014	768.841
87.812	13.628	1016.022	767.887
88.826	13.667	1014.774	767.055
89.841	13.620	1014.290	766.406
90.855	13.751	1013.036	765.996
91.870	13.750	1012.625	765.612
92.884	13.798	1011.325	764.783
93.899	13.818	1010.592	764.255
94.914	13.792	1009.530	763.263
95.928	13.884	1008.519	762.856
96.943	13.893	1007.735	762.232
97.957	13.734	1007.378	761.166
98.972	13.687	1006.655	760.337
99.987	13.791	1005.358	759.766
101.001	13.781	1004.180	758.764
102.016	13.816	1003.613	758.428
103.030	13.782	1002.790	757.583
104.045	13.792	1002.069	757.016
105.060	13.799	1000.972	756.153
106.074	13.643	1000.198	754.791
107.089	13.592	999.278	753.799
108.103	13.600	998.193	752.951
109.118	13.570	997.363	752.121
110.133	13.570	996.306	751.260
111.147	13.518	995.202	750.125
112.162	13.517	994.653	749.637
113.176	13.634	993.860	749.505
114.191	13.597	993.253	748.812
115.206	13.693	992.111	748.319
116.220	13.743	990.874	747.544
117.235	13.689	990.238	746.754
118.249	13.607	989.258	745.582
119.264	13.651	988.958	745.486
120.279	13.612	988.228	744.697
121.293	13.586	987.211	743.747
122.308	13.743	985.901	743.398
123.322	13.549	985.102	741.862
124.337	13.684	983.813	741.428
125.352	13.506	983.243	740.136
126.366	13.662	981.782	739.667
127.381	13.612	980.842	738.671
128.395	13.665	979.624	737.924
129.410	13.649	978.814	737.180
130.424	13.509	978.762	736.454
131.439	13.705	977.266	736.132
132.454	13.737	976.820	735.874
133.468	13.811	975.806	735.370
134.483	13.789	975.011	734.609
135.497	13.660	974.399	733.515
136.512	13.698	973.735	733.118
137.527	13.658	972.543	731.976
138.541	13.625	972.248	731.545
139.556	13.681	971.762	731.364
140.570	13.715	970.889	730.792
141.585	13.923	969.648	730.706
142.600	13.941	968.305	729.710
143.614	13.872	968.072	729.166
144.629	13.865	967.759	728.832
145.643	13.962	966.062	727.916
146.658	13.888	965.085	726.793
147.673	13.786	964.474	725.821
148.687	13.750	963.715	725.028
149.702	13.801	962.586	724.338
150.716	13.750	961.848	723.497
151.731	13.853	961.085	723.309
152.746	13.900	959.934	722.582
153.760	13.824	959.713	722.021
154.775	14.010	959.194	722.376
155.789	13.992	958.715	721.873
156.804	13.993	957.580	720.960
157.819	13.911	957.430	720.428
158.833	14.115	956.423	720.486
159.848	14.089	955.640	719.721
160.862	14.034	954.572	718.615
161.877	13.924	953.320	717.135
162.892	13.901	952.451	716.319
163.906	13.979	951.502	715.877
164.921	13.866	951.280	715.159
165.935	13.921	950.408	714.680
166.950	13.909	949.280	713.717
167.964	14.047	948.109	713.364
168.979	13.975	947.093	712.228
169.994	14.124	945.938	711.934
171.008	14.007	945.910	711.348
172.023	14.048	945.332	711.026
173.037	14.142	943.956	710.332
174.052	14.028	943.619	709.527
175.067	13.934	943.096	708.672
176.081	14.025	942.377	708.455
177.096	13.890	942.172	707.664
178.110	13.974	941.308	707.309
179.125	14.004	940.526	706.785
180.140	14.067	940.068	706.650
181.154	14.052	939.810	706.327
182.169	14.143	938.877	705.951
183.183	14.210	938.256	705.704
184.198	14.297	937.233	705.242
185.213	14.219	936.918	704.613
186.227	14.250	936.306	704.221
187.242	14.278	935.733	703.845
188.256	14.337	935.455	703.823
189.271	14.232	934.689	702.742
190.286	14.030	933.820	701.174
191.300	14.096	932.828	700.644
192.315	14.077	932.033	699.906
193.329	14.034	931.663	699.385
194.344	14.173	930.844	699.294
195.359	14.222	930.360	699.074
196.373	14.210	929.800	698.540
197.388	14.308	929.717	698.828
198.402	14.509	928.711	698.852
199.417	14.449	928.455	698.347
200.432	14.585	927.758	698.330
201.446	14.547	927.519	697.929
202.461	14.704	926.507	697.761
203.475	14.570	926.047	696.793
204.490	14.474	925.176	695.677
205.504	14.485	924.719	695.315
206.519	14.597	923.514	694.817
207.534	14.604	922.816	694.259
208.548	14.430	922.973	693.591
209.563	14.571	921.728	693.178
210.577	14.652	920.817	692.770
211.592	14.523	920.491	691.929
212.607	14.703	919.770	692.071
213.621	14.640	918.853	691.060
214.636	14.663	918.143	690.558
215.650	14.698	917.500	690.158
216.665	14.648	917.140	689.619
217.680	14.852	916.271	689.745
218.694	14.814	915.505	688.952
219.709	14.719	915.032	688.143
220.723	14.894	913.733	687.827
221.738	14.679	913.593	686.778
222.753	14.776	913.008	686.673
223.767	14.826	912.414	686.371
224.782	14.880	911.982	686.209
225.796	14.900	911.515	685.878
226.811	14.730	910.956	684.702
227.826	14.921	910.047	684.739
228.840	14.884	909.049	683.774
229.855	14.843	908.018	682.772
230.869	14.894	907.683	682.670
231.884	14.774	906.871	681.506
232.899	14.779	906.456	681.155
233.913	14.888	905.448	680.780
234.928	14.826	904.903	680.059
235.942	14.762	904.312	679.297
236.957	14.609	904.267	678.580
237.972	14.739	903.351	678.360
238.986	14.653	902.503	677.315
240.001	14.821	901.898	677.481
241.015	14.971	901.344	677.613
242.030	14.905	900.608	676.734
243.045	14.875	900.049	676.130
244.059	14.952	899.557	676.012
245.074	14.959	898.736	675.365
246.088	14.961	898.181	674.894
247.103	14.964	897.778	674.544
248.117	15.067	897.306	674.545
249.132	15.187	896.376	674.270
250.147	15.236	895.668	673.874
251.161	15.256	895.054	673.432
252.176	15.377	894.334	673.317
253.190	15.386	893.716	672.828
254.205	15.340	893.011	672.054
255.220	15.435	892.208	671.771
256.234	15.436	891.650	671.294
257.249	15.440	891.127	670.857
258.263	15.372	890.968	670.406
259.278	15.397	890.065	669.768
260.293	15.552	889.333	669.775
261.307	15.468	888.836	669.008
262.322	15.611	888.235	669.068
263.336	15.510	887.275	667.880
264.351	15.445	886.694	667.127
265.366	15.483	886.066	666.746
266.380	15.469	885.280	666.039
267.395	15.686	884.328	666.125
268.409	15.630	883.914	665.531
269.424	15.680	882.708	664.765
270.439	15.684	882.415	664.501
271.453	15.458	881.884	663.149
272.468	15.627	880.689	662.856
273.482	15.595	880.237	662.331
274.497	15.634	879.805	662.103
275.512	15.554	879.360	661.393
276.526	15.653	878.863	661.350
277.541	15.701	878.676	661.341
278.555	15.903	877.958	661.536
279.570	15.849	877.203	660.698
280.585	15.805	876.261	659.755
281.599	15.768	875.499	658.980
282.614	15.781	874.931	658.542
283.628	15.769	874.338	657.991
284.643	15.774	873.775	657.529
285.657	15.727	873.183	656.843
286.672	15.714	872.801	656.446
287.687	15.784	872.124	656.152
288.701	15.887	871.699	656.175
289.716	15.951	870.770	655.667
290.730	15.915	870.279	655.101
291.745	15.792	869.591	654.046
292.760	15.956	869.315	654.419
293.774	16.014	868.404	653.901
294.789	15.951	867.634	653.019
295.803	15.980	866.720	652.382
296.818	15.926	866.116	651.663
297.833	15.937	865.535	651.209
298.847	16.003	865.164	651.128
299.862	16.022	864.339	650.525
300.876	16.015	864.169	650.310
301.891	16.023	863.592	649.849
302.906	16.090	862.985	649.593
303.920	16.170	862.633	649.580
304.935	16.210	862.169	649.328
305.949	16.148	861.100	648.227
306.964	16.251	860.481	648.100
307.979	16.251	859.861	647.575
308.993	16.217	859.587	647.181
310.008	16.327	859.063	647.148
311.022	16.231	858.433	646.252
312.037	16.231	857.629	645.588
313.052	16.290	856.960	645.252
314.066	16.111	856.582	644.229
315.081	16.178	855.977	643.971
316.095	16.175	855.483	643.530
317.110	16.191	855.122	643.261
318.125	16.222	854.548	642.894
319.139	16.157	853.941	642.131
320.154	16.226	853.437	641.958
321.168	16.289	852.879	641.721
322.183	16.284	852.245	641.169
323.197	16.225	852.035	640.730
324.212	16.228	851.236	640.085
325.227	16.205	850.911	639.694
326.241	16.441	850.005	639.852
327.256	16.162	849.836	638.613
328.270	16.070	849.269	637.779
329.285	16.323	848.108	637.808
330.300	16.219	847.713	637.061
331.314	16.383	847.387	637.381
332.329	16.449	846.516	636.917
333.343	16.443	846.406	636.753
334.358	16.470	845.990	636.486
335.373	16.398	845.523	635.807
336.387	16.459	844.973	635.570
337.402	16.591	845.048	636.062
338.416	16.472	844.641	635.254
339.431	16.628	844.591	635.748
340.446	16.636	844.037	635.304
341.460	16.736	843.410	635.151
342.475	16.820	842.935	635.052
343.489	16.680	842.557	634.188
344.504	16.781	841.882	634.001
345.519	16.852	841.408	633.851
346.533	16.848	840.810	633.331
347.548	16.702	840.475	632.478
348.562	16.632	839.812	631.661
349.577	16.790	839.068	631.634
350.592	16.704	838.323	630.698
351.606	16.642	837.812	630.028
352.621	16.844	836.991	630.103
353.635	16.728	836.715	629.412
354.650	16.746	836.494	629.254
355.665	16.745	835.800	628.673
356.679	16.823	834.455	627.897
357.694	16.731	834.308	627.388
358.708	16.715	833.637	626.770
359.723	16.975	832.855	627.085
360.738	16.855	832.474	626.300
361.752	16.940	831.589	625.895
362.767	16.908	831.219	625.443
363.781	17.059	830.632	625.500
364.796	17.059	830.120	625.062
365.810	17.059	829.982	624.902
366.825	17.050	829.522	624.466
367.840	17.075	829.291	624.329
368.854	17.114	828.530	623.843
369.869	16.957	828.543	623.221
370.883	17.071	827.882	623.087
371.898	17.126	827.496	622.946
372.913	17.257	826.867	622.897
373.927	17.063	826.742	622.035
374.942	17.081	826.036	621.517
375.956	17.409	825.431	622.206
376.971	17.317	825.009	621.497
377.986	17.234	824.765	620.953
379.000	17.301	824.098	620.639
380.015	17.239	823.587	619.973
381.029	17.257	822.926	619.489
382.044	17.519	822.524	620.083
383.059	17.384	821.780	618.979
384.073	17.353	821.451	618.561
385.088	17.363	820.770	618.033
386.102	17.294	820.339	617.402
387.117	17.291	819.789	616.922
388.132	17.377	818.911	616.517
389.146	17.478	818.287	616.361
390.161	17.523	817.943	616.208
391.175	17.601	817.272	615.931
392.190	17.242	817.167	614.498
393.205	17.497	816.284	614.703
394.219	17.346	816.228	614.061
395.234	17.405	816.057	614.090
396.248	17.429	815.354	613.593
397.263	17.263	815.033	612.700
398.278	17.296	814.737	612.542
399.292	17.363	814.383	612.460
400.307	17.314	813.959	611.914
401.321	17.332	813.238	611.381
402.336	17.481	812.627	611.402
403.350	17.502	812.115	611.039
404.365	17.527	811.874	610.893
405.380	17.597	811.393	610.727
406.394	17.738	810.545	610.540
407.409	17.742	809.765	609.916
408.423	17.815	809.851	610.186
409.438	17.790	809.433	609.726
410.453	17.834	809.125	609.598
411.467	17.719	808.874	608.943
412.482	17.848	808.431	609.018
413.496	17.959	807.913	608.969
414.511	17.842	807.836	608.440
415.526	17.848	807.017	607.792
416.540	17.923	806.505	607.617
417.555	17.919	806.057	607.215
418.569	17.741	805.979	606.466
419.584	17.805	805.689	606.424
420.599	17.879	804.696	605.884
421.613	111.072	1295.246	1474.614
422.628	95.774	1366.711	1474.710
