DTS Sentinel unit serial number:	SN413079Multiplexer serial number:	ORYXHardware model number:	OX4-SRSoftware version number:	ORYX F/W v4.00 Oryx Data Collector v3.7.2.0data status	okinstallation	princeton_trtdifferential loss correction	single-endedforward channel	channel 1reverse channel	N/Adate	2019/09/11time	15:08:11forward acquisition time	60.00reverse acquisition time	0.00gamma	496.2192k internal	0.2291k external	0.2291temperature offset calibration	0.9990default loss term (dB/km)	0.3790temperature slope calibration	1.0000multiplexer offset coefficient	1.0000multiplexer slope coefficient	1.0000fibre end	0.00T internal ref (°C)	42.94T ext. ref 1 (°C)	0.94T ext. ref 2 (°C)	37.27length (m)	temperature (°C)	Stokes	anti-Stokes-747.200	800.000	0.005	-0.022
-746.185	260.911	-0.161	0.285
-745.171	-200.000	-0.003	0.052
-744.156	68.420	-0.282	0.296
-743.142	-200.000	0.011	-0.196
-742.127	39.092	0.277	0.253
-741.112	-79.143	0.200	0.070
-740.098	371.361	0.063	0.130
-739.083	34.966	-0.063	0.056
-738.069	800.000	-0.088	0.332
-737.054	605.006	0.074	0.188
-736.039	70.532	-0.148	-0.157
-735.025	800.000	-0.040	-0.143
-734.010	-63.463	-0.421	0.177
-732.996	-88.291	0.231	-0.071
-731.981	650.971	-0.135	-0.354
-730.966	-140.691	-0.111	-0.012
-729.952	-147.511	-0.210	-0.018
-728.937	-173.240	0.271	0.008
-727.923	-200.000	0.004	-0.083
-726.908	-84.103	-0.271	-0.088
-725.894	-99.756	-0.100	-0.026
-724.879	800.000	-0.069	0.205
-723.864	-200.000	0.057	-0.268
-722.850	72.584	-0.173	-0.185
-721.835	800.000	0.132	-0.374
-720.821	800.000	-0.091	-0.403
-719.806	-32.160	0.108	-0.062
-718.791	60.925	-0.153	-0.156
-717.777	800.000	-0.074	-0.210
-716.762	-76.985	-0.383	-0.137
-715.748	800.000	0.063	-0.219
-714.733	-119.840	0.440	0.077
-713.718	329.518	0.081	-0.160
-712.704	754.815	-0.032	-0.088
-711.689	224.063	-0.009	0.015
-710.675	-24.977	-0.140	0.085
-709.660	-131.616	-0.036	0.005
-708.645	-28.365	-0.193	0.114
-707.631	93.226	0.071	-0.082
-706.616	-48.072	-0.186	0.092
-705.602	-145.867	-0.210	-0.019
-704.587	95.201	0.041	-0.048
-703.572	42.382	-0.184	-0.171
-702.558	104.361	-0.086	0.104
-701.543	-119.364	-0.338	-0.060
-700.529	51.549	-0.207	-0.201
-699.514	411.273	-0.196	0.425
-698.499	-105.272	-0.113	-0.026
-697.485	-200.000	-0.007	0.211
-696.470	218.660	-0.077	-0.125
-695.456	-70.216	0.312	0.121
-694.441	122.175	0.171	0.218
-693.426	291.602	-0.079	-0.147
-692.412	-18.575	-0.226	-0.144
-691.397	-100.887	-0.284	-0.071
-690.383	800.000	-0.018	-0.056
-689.368	-32.601	-0.222	-0.127
-688.354	247.017	-0.266	-0.458
-687.339	-90.470	-0.153	-0.045
-686.324	-200.000	0.050	-0.305
-685.310	-120.795	0.140	-0.024
-684.295	-92.453	-0.238	0.068
-683.281	-83.391	0.072	-0.024
-682.266	-122.581	-0.382	-0.063
-681.251	-62.351	0.263	0.112
-680.237	-55.143	0.186	0.085
-679.222	-200.000	0.010	0.127
-678.208	-57.432	0.388	-0.174
-677.193	137.597	-0.056	0.075
-676.178	800.000	-0.056	0.236
-675.164	-147.891	0.320	0.027
-674.149	52.939	0.105	0.102
-673.135	-34.910	0.133	0.074
-672.120	-200.000	-0.081	-0.421
-671.105	800.000	0.011	-0.036
-670.091	-146.995	-0.288	-0.025
-669.076	-200.000	0.020	-0.196
-668.062	-200.000	-0.061	0.312
-667.047	-200.000	-0.023	0.215
-666.032	-6.346	-0.240	0.167
-665.018	-185.117	-0.240	0.004
-664.003	-128.586	-0.073	-0.011
-662.989	-200.000	0.022	-0.351
-661.974	293.006	-0.297	-0.554
-660.959	800.000	0.070	-0.232
-659.945	67.898	-0.324	-0.338
-658.930	-132.485	-0.183	0.024
-657.916	-35.458	0.050	0.028
-656.901	-123.917	0.154	0.025
-655.886	-48.451	-0.277	-0.136
-654.872	800.000	0.037	-0.114
-653.857	-159.038	-0.283	0.016
-652.843	265.695	-0.087	-0.154
-651.828	47.344	0.094	0.089
-650.814	-76.359	0.143	0.051
-649.799	-88.708	-0.149	-0.045
-648.784	-200.000	-0.014	-0.069
-647.770	-200.000	-0.021	-0.146
-646.755	-36.532	0.118	0.065
-645.741	246.663	-0.053	-0.091
-644.726	-84.207	0.177	0.057
-643.711	163.073	-0.195	0.279
-642.697	-28.528	-0.329	-0.193
-641.682	-200.000	0.036	-0.173
-640.668	-45.662	-0.160	-0.081
-639.653	-36.799	0.226	0.124
-638.638	72.121	-0.075	0.079
-637.624	-88.451	-0.167	0.051
-636.609	-200.000	-0.024	0.111
-635.595	-119.079	-0.113	-0.020
-634.580	-50.367	0.176	0.085
-633.565	-65.537	-0.203	0.083
-632.551	-118.408	-0.118	-0.021
-631.536	-103.955	-0.238	0.057
-630.522	-143.246	0.176	0.017
-629.507	-29.927	-0.174	0.101
-628.492	174.718	0.083	-0.122
-627.478	-164.960	-0.179	0.008
-626.463	-47.900	0.142	-0.070
-625.449	-200.000	0.004	0.073
-624.434	31.489	-0.099	-0.087
-623.419	174.252	-0.115	-0.170
-622.405	12.458	0.126	0.099
-621.390	-44.035	0.072	0.037
-620.376	60.052	-0.126	0.127
-619.361	-14.570	-0.144	-0.094
-618.346	-71.246	0.217	-0.083
-617.332	-200.000	-0.016	-0.240
-616.317	-200.000	0.010	-0.161
-615.303	-200.000	-0.037	0.224
-614.288	800.000	-0.046	-0.147
-613.273	23.245	-0.073	0.061
-612.259	800.000	0.073	-0.293
-611.244	-200.000	-0.012	-0.221
-610.230	-73.851	-0.156	0.058
-609.215	-58.812	0.241	0.106
-608.201	24.323	-0.149	-0.125
-607.186	313.317	-0.011	0.022
-606.171	-200.000	-0.034	-0.171
-605.157	-122.671	0.175	-0.029
-604.142	-117.463	0.113	-0.021
-603.128	-35.591	0.226	-0.125
-602.113	-53.336	0.209	0.098
-601.098	-106.265	0.079	0.018
-600.084	-54.356	0.170	0.079
-599.069	-24.056	-0.348	-0.212
-598.055	-6.466	0.258	0.179
-597.040	157.676	0.069	0.097
-596.025	100.439	-0.150	-0.177
-595.011	-149.090	-0.305	-0.025
-593.996	602.366	-0.069	0.175
-592.982	518.272	-0.115	-0.273
-591.967	-54.545	-0.230	-0.106
-590.952	-200.000	0.012	-0.099
-589.938	-58.287	-0.206	-0.091
-588.923	220.375	0.279	-0.455
-587.909	106.687	-0.119	-0.144
-586.894	693.195	-0.038	-0.102
-585.879	800.000	0.094	0.336
-584.865	567.484	-0.142	0.350
-583.850	-102.060	0.155	0.038
-582.836	8.766	-0.127	0.097
-581.821	-35.283	0.024	-0.013
-580.806	-49.076	0.040	-0.020
-579.792	113.345	-0.099	0.122
-578.777	-200.000	0.052	0.259
-577.763	73.830	-0.115	-0.122
-576.748	800.000	-0.036	-0.142
-575.733	237.955	-0.114	0.192
-574.719	112.438	0.165	-0.203
-573.704	800.000	0.025	-0.071
-572.690	471.338	0.068	-0.155
-571.675	220.236	0.126	-0.205
-570.661	-69.510	-0.074	0.029
-569.646	-46.716	-0.228	0.113
-568.631	-70.273	0.175	-0.068
-567.617	-25.838	0.283	-0.169
-566.602	28.324	-0.281	-0.241
-565.588	-19.578	-0.034	0.021
-564.573	-200.000	0.022	-0.177
-563.558	362.563	-0.096	-0.196
-562.544	88.500	0.146	-0.165
-561.529	-97.397	0.114	0.030
-560.515	36.986	0.186	-0.167
-559.500	-55.425	0.108	-0.049
-558.485	-200.000	0.025	0.156
-557.471	17.828	-0.296	-0.240
-556.456	35.124	-0.107	-0.095
-555.442	-57.246	-0.221	-0.099
-554.427	-200.000	0.029	0.174
-553.412	-200.000	0.034	-0.164
-552.398	-200.000	-0.018	-0.107
-551.383	75.130	-0.058	0.062
-550.369	-168.623	-0.138	0.005
-549.354	1.606	-0.100	-0.073
-548.339	-84.910	0.229	0.073
-547.325	800.000	0.049	0.174
-546.310	-113.772	0.077	0.015
-545.296	17.459	-0.202	-0.163
-544.281	-140.365	-0.203	0.022
-543.266	-200.000	0.032	-0.200
-542.252	800.000	0.061	0.180
-541.237	-92.290	0.172	-0.049
-540.223	218.390	-0.147	0.238
-539.208	-122.772	0.198	-0.033
-538.193	424.297	0.021	-0.045
-537.179	31.693	-0.248	-0.217
-536.164	-41.832	-0.279	-0.145
-535.150	-98.409	0.128	-0.033
-534.135	481.242	0.062	-0.143
-533.121	-200.000	0.006	-0.154
-532.106	-73.132	0.288	-0.107
-531.091	-200.000	-0.011	-0.144
-530.077	800.000	-0.057	0.233
-529.062	-131.515	-0.352	0.047
-528.048	277.144	-0.081	0.145
-527.033	-200.000	-0.014	-0.100
-526.018	-200.000	-0.000	0.081
-525.004	800.000	0.085	0.342
-523.989	250.519	0.191	0.329
-522.975	800.000	-0.076	0.334
-521.960	-200.000	-0.017	0.123
-520.945	227.269	0.139	-0.230
-519.931	800.000	0.173	0.545
-518.916	35.137	-0.107	0.095
-517.902	52.983	0.197	0.191
-516.887	-60.689	-0.077	0.033
-515.872	-144.999	0.298	0.028
-514.858	-162.564	0.163	0.008
-513.843	-200.000	-0.018	-0.108
-512.829	-94.362	0.024	-0.007
-511.814	800.000	-0.049	0.143
-510.799	372.291	-0.131	-0.269
-509.785	130.678	0.145	-0.189
-508.770	-194.538	0.446	-0.004
-507.756	-163.522	0.309	-0.015
-506.741	740.024	-0.123	0.335
-505.726	-200.000	-0.028	0.261
-504.712	221.759	-0.121	0.197
-503.697	-63.382	-0.054	-0.023
-502.683	-111.425	0.106	-0.022
-501.668	-200.000	0.001	-0.067
-500.653	-200.000	0.018	-0.364
-499.639	-200.000	-0.006	0.029
-498.624	763.456	0.072	-0.198
-497.610	761.578	-0.113	-0.310
-496.595	-51.160	0.317	-0.151
-495.581	275.007	-0.178	-0.320
-494.566	-20.947	-0.160	-0.099
-493.551	800.000	0.073	0.267
-492.537	-96.751	-0.193	0.051
-491.522	5.988	-0.279	0.209
-490.508	-153.968	0.199	0.014
-489.493	181.364	0.072	0.107
-488.478	229.968	-0.137	0.226
-487.464	434.851	-0.093	0.205
-486.449	3.347	-0.121	-0.089
-485.435	14.567	-0.228	-0.180
-484.420	162.262	0.011	-0.016
-483.405	-200.000	0.022	0.119
-482.391	-41.324	-0.056	0.029
-481.376	73.587	-0.242	-0.257
-480.362	-7.147	0.120	-0.082
-479.347	-200.000	-0.019	0.100
-478.332	3.345	0.077	0.057
-477.318	800.000	-0.075	-0.286
-476.303	-112.747	-0.120	-0.024
-475.289	64.448	0.162	-0.165
-474.274	-22.154	-0.156	0.096
-473.259	-200.000	-0.013	0.298
-472.245	8.522	0.230	0.175
-471.230	54.017	-0.056	0.054
-470.216	485.396	0.189	0.436
-469.201	-106.249	0.266	-0.060
-468.186	-107.818	-0.091	0.020
-467.172	-3.912	0.125	0.088
-466.157	-42.778	-0.168	0.087
-465.143	46.324	0.304	-0.285
-464.128	222.615	0.167	-0.272
-463.113	-91.403	0.305	-0.088
-462.099	-20.124	-0.049	0.031
-461.084	-200.000	0.028	-0.174
-460.070	-200.000	-0.024	-0.107
-459.055	338.268	0.098	-0.193
-458.040	-200.000	0.068	-0.514
-457.026	-111.218	0.128	0.026
-456.011	-192.227	0.290	0.003
-454.997	217.526	0.029	-0.047
-453.982	593.368	0.025	-0.062
-452.968	0.442	0.125	0.090
-451.953	-104.849	-0.116	0.027
-450.938	-21.572	0.025	-0.016
-449.924	-66.275	0.048	0.019
-448.909	-20.425	0.134	-0.083
-447.895	220.217	0.148	0.240
-446.880	-48.451	0.246	-0.120
-445.865	281.213	-0.138	-0.251
-444.851	172.627	-0.028	0.041
-443.836	255.009	-0.103	0.179
-442.822	498.437	-0.167	-0.389
-441.807	-3.803	0.548	-0.385
-440.792	-200.000	-0.040	0.324
-439.778	236.176	-0.054	-0.091
-438.763	-42.075	0.183	0.095
-437.749	-200.000	-0.014	-0.182
-436.734	-200.000	-0.018	-0.128
-435.719	-200.000	-0.010	0.047
-434.705	141.598	-0.060	0.081
-433.690	782.602	0.034	0.094
-432.676	84.709	0.157	-0.174
-431.661	-7.582	-0.266	0.182
-430.646	-200.000	-0.050	-0.226
-429.632	342.189	0.031	0.062
-428.617	-200.000	-0.024	-0.152
-427.603	-136.193	-0.303	0.036
-426.588	800.000	0.056	0.175
-425.573	131.460	-0.109	-0.141
-424.559	-144.162	-0.184	0.017
-423.544	116.538	-0.238	0.295
-422.530	-200.000	-0.024	0.270
-421.515	800.000	0.066	0.192
-420.500	354.024	-0.082	0.164
-419.486	181.072	-0.115	-0.170
-418.471	-183.128	-0.200	-0.004
-417.457	-86.469	0.424	-0.132
-416.442	-200.000	-0.000	-0.160
-415.428	800.000	0.037	-0.152
-414.413	-19.658	0.209	0.131
-413.398	11.447	0.185	-0.143
-412.384	-59.891	0.194	-0.084
-411.369	-38.186	-0.177	-0.095
-410.355	-4.712	0.237	-0.165
-409.340	-200.000	0.022	-0.329
-408.325	800.000	0.018	-0.050
-407.311	-42.140	-0.336	0.173
-406.296	-74.852	0.120	0.043
-405.282	-106.611	0.232	-0.052
-404.267	210.678	0.188	0.298
-403.252	-13.646	0.019	0.013
-402.238	-43.382	0.150	0.077
-401.223	254.287	-0.050	0.086
-400.209	-200.000	0.003	0.084
-399.194	173.348	-0.256	0.372
-398.179	-73.667	0.081	0.030
-397.165	94.167	0.087	-0.100
-396.150	245.065	0.230	-0.390
-395.136	26.392	0.302	-0.255
-394.121	94.910	0.071	0.082
-393.106	441.444	0.116	-0.256
-392.092	-83.152	-0.471	0.153
-391.077	380.477	-0.124	-0.258
-390.063	-200.000	-0.016	-0.116
-389.048	34.644	0.083	-0.074
-388.033	248.780	-0.035	0.059
-387.019	63.079	0.061	0.062
-386.004	800.000	-0.021	-0.079
-384.990	244.503	0.070	0.118
-383.975	-200.000	-0.002	0.068
-382.960	-117.661	-0.241	0.044
-381.946	-200.000	0.023	-0.389
-380.931	-12.205	0.181	-0.120
-379.917	-3.419	-0.192	0.135
-378.902	283.308	0.035	0.064
-377.888	-200.000	0.013	-0.206
-376.873	-193.420	0.132	0.001
-375.858	-131.037	0.152	-0.020
-374.844	21.581	0.087	0.072
-373.829	-21.865	-0.109	0.067
-372.815	-26.511	-0.224	0.133
-371.800	-24.536	-0.200	0.120
-370.785	664.778	0.006	0.014
-369.771	3.623	0.024	0.018
-368.756	56.508	0.130	0.127
-367.742	800.000	0.056	-0.218
-366.727	-66.838	-0.304	0.121
-365.712	489.924	-0.013	-0.031
-364.698	-72.862	-0.479	0.178
-363.683	682.041	-0.120	0.316
-362.669	-19.618	-0.123	-0.077
-361.654	265.215	-0.167	0.294
-360.639	88.027	0.064	-0.071
-359.625	-66.311	0.384	-0.154
-358.610	-68.727	-0.178	0.070
-357.596	-145.987	-0.075	-0.007
-356.581	-21.147	-0.353	0.217
-355.566	-200.000	-0.051	0.286
-354.552	800.000	0.067	0.262
-353.537	11.960	-0.018	-0.014
-352.523	800.000	0.095	-0.304
-351.508	-70.102	0.096	-0.037
-350.493	800.000	-0.061	-0.198
-349.479	67.023	0.200	0.205
-348.464	-55.734	-0.082	-0.037
-347.450	659.904	0.029	0.074
-346.435	-108.928	0.074	-0.016
-345.420	-200.000	-0.039	-0.393
-344.406	-51.925	0.244	0.114
-343.391	800.000	-0.055	0.223
-342.377	581.605	0.073	0.181
-341.362	-91.541	-0.314	0.090
-340.348	800.000	-0.030	-0.086
-339.333	165.775	0.128	-0.182
-338.318	-200.000	-0.005	0.076
-337.304	-0.705	-0.074	-0.053
-336.289	-49.761	0.070	-0.033
-335.275	800.000	-0.058	0.179
-334.260	-200.000	0.006	-0.067
-333.245	-200.000	-0.014	-0.314
-332.231	-34.686	0.196	0.108
-331.216	800.000	0.091	0.288
-330.202	-22.189	0.292	-0.178
-329.187	191.375	0.328	0.498
-328.172	-143.049	-0.016	-0.002
-327.158	247.614	0.207	-0.352
-326.143	-138.515	0.329	-0.036
-325.129	-38.535	0.087	-0.046
-324.114	308.539	0.055	-0.103
-323.099	-200.000	-0.055	-0.336
-322.085	-17.598	0.198	-0.125
-321.070	800.000	-0.029	0.099
-320.056	-97.746	0.143	0.037
-319.041	-11.380	0.095	-0.063
-318.026	-135.494	0.214	0.026
-317.012	-21.680	0.278	-0.171
-315.997	-43.599	0.098	0.050
-314.983	679.249	-0.050	0.131
-313.968	-149.350	0.022	0.002
-312.953	57.067	-0.159	-0.156
-311.939	7.074	0.066	-0.049
-310.924	-200.000	0.011	-0.203
-309.910	367.540	0.092	0.187
-308.895	800.000	0.029	0.097
-307.880	525.843	0.123	0.291
-306.866	4.630	-0.099	0.073
-305.851	36.826	0.101	-0.090
-304.837	391.348	-0.047	-0.099
-303.822	198.711	-0.102	0.158
-302.807	-91.948	0.300	0.086
-301.793	245.322	-0.093	0.158
-300.778	164.884	-0.034	-0.048
-299.764	176.267	-0.093	0.135
-298.749	394.207	0.180	0.377
-297.735	-200.000	-0.001	-0.023
-296.720	137.231	-0.070	-0.092
-295.705	107.126	0.100	-0.119
-294.691	-200.000	-0.002	0.043
-293.676	496.036	-0.100	-0.231
-292.662	-173.403	0.380	0.012
-291.647	-21.632	0.252	0.155
-290.632	800.000	-0.078	0.228
-289.618	63.237	-0.254	0.256
-288.603	167.822	-0.096	0.138
-287.589	-189.724	0.113	0.001
-286.574	158.893	-0.153	0.214
-285.559	294.606	0.175	-0.322
-284.545	-200.000	0.007	0.139
-283.530	-192.416	-0.186	0.002
-282.516	-91.899	-0.043	-0.012
-281.501	-149.607	0.124	-0.010
-280.486	600.940	-0.100	-0.249
-279.472	92.560	0.044	0.050
-278.457	-69.316	-0.272	-0.105
-277.443	88.967	-0.168	0.188
-276.428	16.168	0.257	-0.204
-275.413	57.146	0.140	0.137
-274.399	312.472	-0.042	0.079
-273.384	28.265	-0.208	0.176
-272.370	64.742	0.208	-0.211
-271.355	800.000	-0.073	-0.214
-270.340	-127.277	-0.365	-0.054
-269.326	155.405	0.122	0.169
-268.311	-200.000	-0.010	-0.112
-267.297	-51.728	0.182	0.085
-266.282	28.586	-0.281	-0.239
-265.267	192.803	-0.029	0.044
-264.253	-99.855	-0.175	0.044
-263.238	403.179	0.070	-0.149
-262.224	119.297	-0.114	-0.141
-261.209	-55.355	-0.280	-0.126
-260.195	602.444	-0.087	-0.216
-259.180	390.752	-0.048	-0.101
-258.165	-200.000	0.031	-0.137
-257.151	-9.840	-0.120	0.080
-256.136	-200.000	-0.012	0.143
-255.122	-56.575	-0.222	0.099
-254.107	-28.328	0.444	-0.258
-253.092	-191.281	-0.127	0.001
-252.078	451.372	-0.072	-0.159
-251.063	-125.695	-0.041	0.006
-250.049	-200.000	0.026	0.251
-249.034	-148.087	0.333	0.028
-248.019	-200.000	0.012	0.220
-247.005	441.598	0.045	0.100
-245.990	564.454	0.117	0.284
-244.976	86.705	-0.049	0.055
-243.961	96.967	-0.147	-0.169
-242.946	-4.337	0.027	-0.019
-241.932	492.400	-0.072	0.165
-240.917	555.177	-0.047	0.113
-239.903	-56.980	0.119	0.053
-238.888	-200.000	0.018	0.091
-237.873	-200.000	0.116	-0.523
-236.859	-52.797	-0.228	-0.105
-235.844	0.835	-0.285	-0.205
-234.830	157.304	-0.081	-0.112
-233.815	-117.244	-0.198	-0.036
-232.800	-3.034	0.129	-0.091
-231.786	-1.947	0.153	0.108
-230.771	560.870	-0.071	0.173
-229.757	723.192	0.071	0.190
-228.742	-23.265	0.079	0.048
-227.727	-97.278	-0.300	-0.079
-226.713	800.000	0.032	0.137
-225.698	-200.000	-0.013	0.119
-224.684	62.674	0.146	-0.146
-223.669	-26.839	0.345	0.202
-222.655	6.651	-0.196	0.146
-221.640	-79.587	0.131	-0.044
-220.625	18.916	0.081	0.065
-219.611	65.681	-0.250	0.254
-218.596	-89.217	-0.278	0.082
-217.582	42.761	0.329	0.301
-216.567	41.274	-0.148	0.134
-215.552	-78.657	-0.029	-0.010
-214.538	93.647	0.073	-0.083
-213.523	-20.583	-0.011	-0.007
-212.509	-200.000	0.003	-0.224
-211.494	131.576	-0.342	-0.441
-210.479	-25.381	0.307	0.182
-209.465	-200.000	0.029	0.290
-208.450	369.293	-0.041	0.083
-207.436	49.300	-0.311	0.293
-206.421	550.644	0.040	0.096
-205.406	-21.085	-0.038	-0.023
-204.392	-51.954	-0.149	0.070
-203.377	-200.000	-0.005	-0.331
-202.363	-200.000	0.002	-0.173
-201.348	800.000	0.016	-0.054
-200.333	800.000	-0.061	-0.188
-199.319	-200.000	-0.009	-0.122
-198.304	800.000	-0.065	0.272
-197.290	553.551	0.046	0.111
-196.275	-200.000	-0.038	0.236
-195.260	-55.496	-0.276	0.124
-194.246	154.819	0.098	0.135
-193.231	-79.303	-0.227	0.077
-192.217	-200.000	-0.024	0.137
-191.202	-88.552	0.234	-0.070
-190.187	99.754	0.064	0.074
-189.173	37.806	0.106	0.094
-188.158	178.420	-0.048	-0.071
-187.144	-200.000	0.040	0.376
-186.129	-200.000	-0.010	0.170
-185.114	-67.140	-0.145	0.057
-184.100	-154.333	-0.126	-0.008
-183.085	40.283	0.029	0.026
-182.071	-96.426	-0.397	0.105
-181.056	-200.000	-0.020	0.112
-180.042	125.955	0.156	-0.197
-179.027	-101.563	-0.290	-0.071
-178.012	392.525	-0.121	0.252
-176.998	484.217	-0.106	0.241
-175.983	-189.398	-0.053	-0.001
-174.969	-163.460	0.350	-0.017
-173.954	-7.827	0.217	0.147
-172.939	33.904	0.168	-0.146
-171.925	-141.227	-0.150	-0.015
-170.910	-58.894	0.107	-0.046
-169.896	503.658	-0.118	0.272
-168.881	-102.068	-0.257	-0.062
-167.866	-1.163	0.086	-0.061
-166.852	-200.000	-0.017	0.356
-165.837	-200.000	0.043	-0.258
-164.823	-126.849	-0.277	-0.041
-163.808	671.155	0.095	-0.245
-162.793	-200.000	-0.039	-0.347
-161.779	-78.485	0.208	-0.071
-160.764	22.001	-0.353	-0.288
-159.750	800.000	0.110	0.440
-158.735	130.399	0.285	0.366
-157.720	38.126	0.274	-0.244
-156.706	-28.394	0.105	-0.061
-155.691	-86.734	-0.133	-0.041
-154.677	118.976	-0.073	0.090
-153.662	-200.000	-0.049	0.330
-152.647	800.000	-0.074	0.220
-151.633	-106.078	-0.499	-0.112
-150.618	-200.000	0.048	-0.233
-149.604	-200.000	-0.037	0.178
-148.589	481.743	-0.074	-0.167
-147.574	71.705	0.198	0.205
-146.560	39.867	-0.170	0.153
-145.545	229.718	-0.063	0.103
-144.531	-96.066	0.207	0.055
-143.516	265.521	-0.026	-0.046
-142.502	-26.108	-0.154	0.090
-141.487	-86.930	0.010	0.003
-140.472	-115.625	-0.075	0.014
-139.458	800.000	-0.073	0.247
-138.443	42.179	-0.060	0.054
-137.429	104.004	-0.165	-0.194
-136.414	-34.292	0.296	-0.162
-135.399	85.934	0.234	0.257
-134.385	548.017	-0.066	-0.158
-133.370	-92.229	0.208	0.059
-132.356	-4.212	0.113	0.079
-131.341	730.280	-0.031	-0.084
-130.326	97.796	0.184	-0.211
-129.312	446.020	0.090	-0.197
-128.297	-23.463	0.246	0.148
-127.283	-72.447	0.285	-0.105
-126.268	227.529	0.100	0.163
-125.253	800.000	-0.060	0.260
-124.239	124.852	-0.177	0.223
-123.224	5.665	-0.148	0.109
-122.210	138.841	-0.194	-0.254
-121.195	567.876	0.017	-0.040
-120.180	-200.000	-0.049	0.333
-119.166	-90.138	0.136	0.040
-118.151	-80.153	-0.298	0.100
-117.137	-36.989	0.141	-0.075
-116.122	-109.543	0.090	-0.019
-115.107	-103.577	0.205	0.048
-114.093	749.092	-0.026	-0.069
-113.078	17.137	0.127	0.100
-112.064	800.000	0.095	0.400
-111.049	-90.292	-0.004	-0.001
-110.034	-189.359	-0.304	-0.004
-109.020	693.600	0.085	0.221
-108.005	800.000	0.047	0.203
-106.991	-62.673	-0.122	-0.051
-105.976	196.903	0.218	-0.332
-104.962	313.667	-0.038	-0.072
-103.947	81.622	0.033	0.035
-102.932	224.968	0.073	0.118
-101.918	800.000	-0.051	0.155
-100.903	132.070	-0.239	-0.307
-99.889	-51.918	-0.066	-0.031
-98.874	-119.684	0.280	0.048
-97.859	-200.000	0.010	-0.170
-96.845	-124.219	-0.267	0.042
-95.830	800.000	-0.096	0.299
-94.816	-200.000	0.018	0.103
-93.801	34.013	0.121	0.105
-92.786	696.223	-0.045	-0.117
-91.772	800.000	0.094	-0.262
-90.757	-200.000	0.007	-0.070
-89.743	203.144	-0.057	-0.088
-88.728	109.454	0.057	0.069
-87.713	-148.485	-0.515	-0.042
-86.699	390.263	-0.236	-0.488
-85.684	-140.004	-0.334	0.035
-84.670	800.000	0.062	-0.200
-83.655	-150.644	0.152	-0.012
-82.640	29.172	0.325	0.275
-81.626	-10.815	-0.188	0.124
-80.611	-200.000	-0.003	-0.094
-79.597	-200.000	-0.001	0.241
-78.582	-200.000	0.018	0.097
-77.567	58.544	0.187	0.184
-76.553	800.000	-0.064	0.273
-75.538	-16.451	0.419	0.265
-74.524	-200.000	-0.056	0.251
-73.509	123.172	-0.113	-0.142
-72.494	800.000	-0.096	0.300
-71.480	-110.254	0.104	-0.022
-70.465	-200.000	-0.006	-0.129
-69.451	182.451	-0.189	0.277
-68.436	35.876	0.260	0.228
-67.422	-30.613	-0.062	-0.035
-66.407	164.671	-0.137	-0.192
-65.392	599.354	-0.138	0.342
-64.378	-125.639	-0.196	0.030
-63.363	-53.055	-0.103	-0.047
-62.349	-4.819	0.269	-0.185
-61.334	91.349	-0.596	-0.668
-60.319	-200.000	0.041	0.199
-59.305	-200.000	0.038	-0.682
-58.290	543.746	0.210	0.499
-57.276	800.000	0.459	1.531
-56.261	-200.000	74.268	534.841
-55.246	580.813	1297.811	3169.856
-54.232	146.398	2523.246	3376.522
-53.217	122.796	2228.298	2778.735
-52.203	56.011	1667.469	1612.436
-51.188	47.213	1384.980	1284.906
-50.173	43.238	1336.637	1216.109
-49.159	61.518	1369.370	1357.275
-48.144	69.612	1388.296	1425.008
-47.130	47.340	1351.366	1254.292
-46.115	43.067	1334.886	1213.291
-45.100	42.895	1329.978	1207.755
-44.086	42.818	1327.731	1205.202
-43.071	42.808	1325.330	1202.916
-42.057	42.770	1323.182	1200.692
-41.042	42.723	1321.444	1198.785
-40.027	42.842	1319.744	1197.905
-39.013	42.959	1317.749	1196.742
-37.998	42.919	1315.685	1194.583
-36.984	42.948	1314.390	1193.530
-35.969	42.934	1312.207	1191.420
-34.954	43.087	1310.356	1190.595
-33.940	43.021	1309.371	1189.265
-32.925	42.951	1308.242	1187.775
-31.911	42.939	1306.716	1186.271
-30.896	43.057	1305.323	1185.659
-29.881	43.054	1303.295	1183.747
-28.867	43.041	1302.047	1182.492
-27.852	43.072	1300.439	1181.166
-26.838	43.124	1299.029	1180.144
-25.823	43.071	1297.665	1178.551
-24.809	42.953	1296.609	1176.852
-23.794	43.046	1295.299	1176.163
-22.779	43.033	1293.641	1174.532
-21.765	42.956	1292.553	1173.048
-20.750	43.010	1290.956	1171.870
-19.736	42.933	1289.610	1170.152
-18.721	42.913	1288.220	1168.728
-17.706	42.920	1287.125	1167.730
-16.692	42.923	1285.772	1166.472
-15.677	42.795	1284.744	1164.751
-14.663	42.811	1283.844	1163.981
-13.648	42.813	1282.865	1163.063
-12.633	42.755	1281.784	1161.697
-11.619	42.790	1281.081	1161.217
-10.604	42.908	1279.696	1160.598
-9.590	42.923	1278.907	1159.920
-8.575	42.870	1277.848	1158.613
-7.560	42.791	1277.010	1157.350
-6.546	42.870	1276.024	1156.867
-5.531	42.920	1274.876	1156.066
-4.517	42.843	1274.352	1155.103
-3.502	42.910	1273.368	1154.546
-2.487	42.997	1272.597	1154.302
-1.473	42.964	1269.213	1150.997
-0.458	42.041	1254.114	1132.046
0.556	37.346	1233.591	1090.006
1.571	32.947	1236.243	1067.453
2.586	32.017	1250.417	1074.278
3.600	30.655	1240.407	1057.840
4.615	21.950	1162.187	944.428
5.629	8.009	1077.054	805.160
6.644	1.345	1051.151	752.769
7.659	0.967	1048.127	748.670
8.673	0.702	1046.808	746.352
9.688	0.759	1045.260	745.465
10.702	1.189	1044.659	747.090
11.717	9.304	1056.625	795.883
12.731	20.582	1073.023	864.556
13.746	23.978	1076.270	884.001
14.761	23.375	1074.887	879.793
15.775	23.310	1074.019	878.683
16.790	23.057	1073.310	876.774
17.804	23.012	1072.711	875.980
18.819	22.971	1072.735	875.723
19.834	23.212	1071.558	875.877
20.848	23.078	1071.743	875.283
21.863	23.009	1071.619	874.766
22.877	23.174	1069.869	874.074
23.892	23.114	1069.136	873.100
24.907	23.165	1068.359	872.640
25.921	23.103	1067.677	871.703
26.936	23.049	1066.283	870.221
27.950	23.061	1064.840	869.027
28.965	22.852	1063.167	866.555
29.980	22.952	1061.404	865.534
30.994	23.194	1060.476	865.885
32.009	23.206	1059.160	864.795
33.023	22.975	1057.714	862.409
34.038	23.183	1056.827	862.622
35.053	23.250	1056.799	862.849
36.067	23.236	1055.457	861.609
37.082	23.123	1055.394	860.930
38.096	23.350	1054.663	861.365
39.111	23.384	1053.777	860.729
40.126	23.412	1052.163	859.468
41.140	22.986	1050.254	855.772
42.155	22.771	1048.928	853.576
43.169	22.880	1047.834	853.140
44.184	22.879	1047.292	852.614
45.199	22.732	1046.163	850.910
46.213	22.804	1045.298	850.478
47.228	23.007	1044.434	850.681
48.242	22.940	1043.706	849.686
49.257	23.042	1043.045	849.567
50.271	23.297	1041.996	849.861
51.286	23.252	1041.301	849.003
52.301	23.226	1040.591	848.226
53.315	23.204	1039.493	847.148
54.330	22.999	1038.871	845.587
55.344	23.145	1037.732	845.282
56.359	23.139	1036.881	844.483
57.374	23.010	1035.733	842.859
58.388	22.983	1034.992	842.053
59.403	22.893	1034.421	841.088
60.417	22.745	1033.140	839.266
61.432	22.847	1032.605	839.240
62.447	22.858	1032.382	839.040
63.461	22.888	1031.671	838.529
64.476	22.877	1030.337	837.320
65.490	22.755	1029.277	835.805
66.505	22.962	1028.432	836.025
67.520	23.012	1027.794	835.668
68.534	22.668	1027.020	833.340
69.549	22.331	1026.051	830.889
70.563	22.442	1025.229	830.673
71.578	22.316	1024.615	829.509
72.593	22.336	1023.202	828.386
73.607	22.473	1022.736	828.578
74.622	22.818	1022.274	829.754
75.636	22.802	1021.587	829.047
76.651	22.556	1021.241	827.540
77.666	22.498	1020.056	826.234
78.680	22.527	1019.493	825.842
79.695	22.794	1018.323	826.069
80.709	22.749	1018.070	825.580
81.724	22.714	1017.111	824.566
82.739	22.813	1016.626	824.561
83.753	23.208	1015.819	825.678
84.768	23.394	1015.354	826.095
85.782	23.590	1014.329	826.099
86.797	23.344	1013.288	824.035
87.812	23.215	1012.559	822.768
88.826	23.300	1011.495	822.226
89.841	23.448	1010.608	822.117
90.855	23.465	1009.713	821.398
91.870	23.426	1008.669	820.295
92.884	23.217	1007.610	818.394
93.899	23.085	1007.034	817.243
94.914	23.405	1005.880	817.713
95.928	23.297	1004.624	816.122
96.943	23.063	1003.081	813.720
97.957	22.905	1002.255	812.251
98.972	22.626	1001.438	810.235
99.987	22.942	1000.641	810.968
101.001	23.174	999.898	811.358
102.016	23.089	999.215	810.342
103.030	23.036	998.308	809.293
104.045	22.874	996.965	807.393
105.060	22.753	995.885	805.893
106.074	22.772	995.395	805.513
107.089	23.274	995.009	807.419
108.103	23.170	993.633	805.755
109.118	22.866	992.450	803.342
110.133	22.923	991.406	802.685
111.147	22.747	990.124	800.779
112.162	22.599	989.141	799.244
113.176	22.827	988.493	799.679
114.191	22.751	987.712	798.632
115.206	22.458	986.528	796.281
116.220	22.389	985.987	795.462
117.235	22.576	985.001	795.440
118.249	22.615	983.921	794.675
119.264	22.459	983.477	793.544
120.279	22.554	982.729	793.298
121.293	22.711	982.009	793.351
122.308	22.726	980.834	792.401
123.322	22.533	980.188	790.942
124.337	22.410	978.460	788.925
125.352	22.081	976.473	785.782
126.366	21.959	975.885	784.693
127.381	22.663	975.795	787.697
128.395	23.080	975.691	789.405
129.410	23.167	974.577	788.823
130.424	23.086	973.307	787.363
131.439	23.093	972.632	786.778
132.454	23.002	972.013	785.803
133.468	23.087	971.049	785.334
134.483	23.208	970.206	785.118
135.497	23.526	969.411	785.816
136.512	23.409	968.420	784.426
137.527	23.514	967.555	784.119
138.541	23.317	967.331	782.996
139.556	23.398	966.451	782.574
140.570	23.552	965.332	782.278
141.585	23.377	964.597	780.841
142.600	23.382	963.401	779.825
143.614	23.574	962.926	780.219
144.629	23.739	962.053	780.167
145.643	23.505	960.737	778.001
146.658	23.467	959.524	776.787
147.673	23.390	958.210	775.315
148.687	23.193	957.311	773.660
149.702	23.213	955.885	772.526
150.716	23.153	955.455	771.847
151.731	23.231	954.992	771.746
152.746	23.490	954.748	772.608
153.760	23.524	953.944	772.038
154.775	23.572	952.977	771.394
155.789	23.497	952.405	770.539
156.804	23.436	951.372	769.371
157.819	23.540	950.318	768.898
158.833	23.636	949.625	768.685
159.848	23.837	948.675	768.718
160.862	23.425	947.494	765.915
161.877	23.459	946.718	765.367
162.892	23.508	945.849	764.806
163.906	23.410	944.761	763.436
164.921	23.471	943.405	762.537
165.935	23.503	942.541	761.907
166.950	23.593	941.603	761.467
167.964	23.577	940.573	760.502
168.979	23.366	939.784	758.889
169.994	23.354	938.917	758.074
171.008	23.463	938.752	758.337
172.023	23.515	938.007	757.892
173.037	23.397	936.547	756.143
174.052	23.159	935.299	754.051
175.067	23.396	934.163	754.078
176.081	23.346	934.536	754.103
177.096	23.263	933.914	753.179
178.110	23.042	932.910	751.362
179.125	22.827	932.044	749.689
180.140	22.961	931.106	749.433
181.154	23.017	931.007	749.525
182.169	23.377	931.197	751.138
183.183	23.537	930.742	751.385
184.198	23.464	929.922	750.346
185.213	23.392	929.097	749.309
186.227	23.469	928.633	749.193
187.242	23.529	927.517	748.482
188.256	23.601	926.781	748.126
189.271	23.658	926.104	747.753
190.286	23.347	925.268	745.699
191.300	22.732	924.028	742.049
192.315	21.995	922.540	737.694
193.329	21.972	921.826	736.962
194.344	22.739	922.307	740.501
195.359	23.279	922.201	742.614
196.373	23.489	921.529	742.886
197.388	23.196	921.111	741.257
198.402	23.404	920.564	741.622
199.417	23.462	919.566	740.995
200.432	23.120	919.047	739.083
201.446	22.850	918.386	737.360
202.461	23.059	917.542	737.489
203.475	22.114	915.864	732.137
204.490	21.534	914.361	728.461
205.504	22.243	915.013	731.867
206.519	23.041	914.677	734.850
207.534	23.060	914.270	734.536
208.548	23.437	914.043	735.857
209.563	23.343	912.767	734.374
210.577	23.382	911.877	733.754
211.592	23.550	912.603	734.970
212.607	23.560	911.074	733.712
213.621	23.611	910.038	733.024
214.636	23.690	909.812	733.107
215.650	23.561	909.092	731.926
216.665	23.685	908.435	731.843
217.680	23.592	907.745	730.840
218.694	23.127	906.545	727.897
219.709	23.165	905.532	727.178
220.723	23.326	905.581	727.815
221.738	23.427	904.790	727.526
222.753	23.513	904.163	727.310
223.767	23.523	904.192	727.312
224.782	23.637	903.736	727.346
225.796	23.795	902.872	727.233
226.811	23.150	901.304	723.269
227.826	22.311	900.371	719.030
228.840	22.508	899.888	719.385
229.855	22.607	899.075	719.076
230.869	22.391	897.822	717.129
231.884	22.795	897.733	718.641
232.899	23.430	897.767	721.188
233.913	23.361	897.381	720.535
234.928	23.326	896.758	719.831
235.942	23.299	895.955	719.013
236.957	23.052	895.251	717.381
237.972	22.906	894.781	716.348
238.986	23.180	893.973	716.749
240.001	23.150	893.709	716.353
241.015	23.165	893.120	715.877
242.030	23.325	892.746	716.161
243.045	23.393	892.225	715.952
244.059	23.513	892.114	716.287
245.074	23.423	890.827	714.828
246.088	23.220	889.547	712.919
247.103	23.347	889.430	713.272
248.117	23.904	889.318	715.361
249.132	24.164	889.106	716.173
250.147	24.181	888.441	715.640
251.161	24.390	887.775	715.883
252.176	24.328	887.224	715.126
253.190	24.355	886.865	714.879
254.205	24.443	886.427	714.816
255.220	24.440	885.887	714.304
256.234	24.312	884.826	712.876
257.249	24.211	884.340	712.017
258.263	24.405	883.186	711.800
259.278	24.239	883.093	710.998
260.293	24.286	882.564	710.698
261.307	24.306	881.497	709.857
262.322	24.075	880.669	708.205
263.336	23.373	878.877	703.917
264.351	22.209	877.369	698.027
265.366	22.406	876.912	698.385
266.380	23.319	877.328	702.274
267.395	23.971	877.091	704.604
268.409	23.844	876.397	703.484
269.424	24.037	875.911	703.794
270.439	24.092	875.371	703.516
271.453	24.146	874.499	702.967
272.468	24.299	874.355	703.390
273.482	24.504	874.050	703.890
274.497	23.921	872.805	700.530
275.512	23.634	871.691	698.445
276.526	23.992	871.925	699.980
277.541	24.223	871.566	700.537
278.555	23.844	871.010	698.540
279.570	23.771	869.735	697.170
280.585	24.019	868.964	697.462
281.599	24.053	868.228	696.942
282.614	23.365	867.291	693.435
283.628	23.240	867.064	692.705
284.643	23.760	866.616	694.319
285.657	23.309	865.502	691.603
286.672	23.077	864.398	689.756
287.687	23.723	864.598	692.375
288.701	23.703	863.906	691.680
289.716	23.361	863.046	689.601
290.730	23.320	862.237	688.735
291.745	23.054	861.585	687.120
292.760	23.279	861.439	687.816
293.774	24.243	861.714	691.715
294.789	24.505	861.456	692.466
295.803	24.675	861.240	692.889
296.818	24.716	860.559	692.439
297.833	24.398	859.176	690.036
298.847	24.248	858.301	688.691
299.862	24.417	858.075	689.100
300.876	24.675	858.033	690.002
301.891	24.698	857.058	689.245
302.906	24.249	856.150	686.727
303.920	24.348	855.488	686.517
304.935	24.676	855.556	687.771
305.949	24.681	854.975	687.261
306.964	24.282	854.201	685.048
307.979	24.472	853.701	685.316
308.993	24.861	853.548	686.624
310.008	24.761	852.904	685.663
311.022	24.387	852.325	683.702
312.037	24.305	851.905	682.990
313.052	24.075	850.854	681.209
314.066	23.329	848.918	676.747
315.081	22.959	848.342	674.819
316.095	23.842	848.634	678.363
317.110	24.289	848.716	680.071
318.125	23.422	847.186	675.484
319.139	22.529	845.634	670.788
320.154	22.483	845.242	670.243
321.168	23.186	845.587	673.133
322.183	23.934	845.570	675.902
323.197	24.243	845.329	676.825
324.212	24.495	844.800	677.295
325.227	24.548	844.276	677.016
326.241	24.365	843.658	675.770
327.256	24.120	843.182	674.399
328.270	24.012	842.577	673.446
329.285	23.910	841.903	672.465
330.300	23.711	840.925	670.872
331.314	23.942	840.830	671.608
332.329	24.345	840.499	672.807
333.343	24.431	840.204	672.835
334.358	24.546	839.713	672.815
335.373	24.591	839.336	672.623
336.387	24.675	839.603	673.092
337.402	24.946	839.126	673.669
338.416	24.944	838.820	673.357
339.431	24.988	838.478	673.191
340.446	25.031	838.699	673.467
341.460	25.041	837.635	672.593
342.475	24.832	837.085	671.306
343.489	24.996	836.702	671.553
344.504	25.217	836.700	672.321
345.519	25.260	836.151	671.981
346.533	25.400	835.693	672.078
347.548	25.393	835.003	671.439
348.562	25.320	834.490	670.695
349.577	25.410	833.901	670.499
350.592	25.365	833.135	669.654
351.606	25.381	832.372	669.041
352.621	25.061	831.867	667.387
353.635	25.090	830.806	666.582
354.650	24.470	829.565	663.225
355.665	23.450	828.022	658.148
356.679	23.798	827.980	659.349
357.694	24.326	827.454	660.827
358.708	24.340	826.727	660.242
359.723	24.685	826.704	661.440
360.738	24.986	826.425	662.273
361.752	25.079	826.019	662.233
362.767	25.417	825.538	663.034
363.781	25.556	825.467	663.433
364.796	25.655	825.235	663.551
365.810	25.676	824.644	663.095
366.825	25.700	824.426	662.952
367.840	25.506	823.314	661.285
368.854	25.006	822.789	658.964
369.869	24.998	822.319	658.503
370.883	25.246	821.626	658.799
371.898	24.978	821.153	657.376
372.913	25.040	820.831	657.289
373.927	25.135	820.665	657.448
374.942	25.330	820.069	657.627
375.956	25.464	819.671	657.738
376.971	25.611	819.147	657.797
377.986	25.614	818.720	657.408
379.000	25.623	818.478	657.185
380.015	25.333	817.980	655.670
381.029	25.454	817.287	655.499
382.044	25.678	816.721	655.804
383.059	25.613	816.197	655.087
384.073	25.798	815.722	655.320
385.088	25.491	815.226	653.750
386.102	25.422	814.542	652.891
387.117	25.497	813.502	652.272
388.132	25.113	812.605	650.105
389.146	24.631	811.478	647.399
390.161	24.856	811.740	648.366
391.175	25.400	811.660	650.212
392.190	25.145	810.491	648.297
393.205	23.774	808.379	641.603
394.219	22.177	806.656	634.422
395.234	22.150	806.429	634.089
396.248	23.688	807.977	640.805
397.263	25.214	808.614	646.760
398.278	25.293	808.190	646.649
399.292	25.016	807.714	645.211
400.307	24.974	806.866	644.326
401.321	25.022	807.059	644.596
402.336	25.441	806.773	645.815
403.350	25.867	806.417	647.004
404.365	26.111	806.254	647.693
405.380	26.355	805.935	648.254
406.394	26.414	805.499	648.056
407.409	26.268	805.223	647.257
408.423	26.220	804.835	646.713
409.438	26.326	804.374	646.667
410.453	26.492	803.870	646.796
411.467	26.313	802.966	645.373
412.482	26.370	802.659	645.272
413.496	26.343	802.640	645.102
414.511	26.320	802.411	644.781
415.526	26.376	801.793	644.427
416.540	26.286	801.145	643.526
417.555	26.022	800.351	641.895
418.569	25.880	800.225	641.230
419.584	26.138	799.285	641.338
420.599	25.839	799.027	640.012
421.613	87.857	1247.187	1328.444
422.628	74.974	1312.493	1328.554
