DTS Sentinel unit serial number:	SN413079Multiplexer serial number:	ORYXHardware model number:	OX4-SRSoftware version number:	ORYX F/W v4.00 Oryx Data Collector v3.7.2.0data status	okinstallation	princeton_trtdifferential loss correction	single-endedforward channel	channel 1reverse channel	N/Adate	2019/09/14time	21:02:35forward acquisition time	60.00reverse acquisition time	0.00gamma	496.2192k internal	0.2317k external	0.2317temperature offset calibration	1.0015default loss term (dB/km)	0.3790temperature slope calibration	1.0000multiplexer offset coefficient	1.0000multiplexer slope coefficient	1.0000fibre end	0.00T internal ref (°C)	33.12T ext. ref 1 (°C)	4.77T ext. ref 2 (°C)	27.85length (m)	temperature (°C)	Stokes	anti-Stokes-747.200	321.909	0.115	0.222
-746.185	54.918	-0.060	0.059
-745.171	20.643	-0.114	-0.093
-744.156	40.031	-0.194	0.177
-743.142	40.829	-0.188	0.172
-742.127	-200.000	-0.036	-0.309
-741.112	9.643	0.155	-0.119
-740.098	800.000	0.171	0.506
-739.083	150.353	-0.204	0.280
-738.069	116.202	0.209	0.259
-737.054	207.640	0.135	0.213
-736.039	20.182	-0.204	-0.166
-735.025	-33.867	-0.136	0.076
-734.010	-42.947	-0.089	0.046
-732.996	-200.000	-0.023	0.293
-731.981	-153.978	-0.331	0.023
-730.966	113.319	-0.228	0.280
-729.952	-162.585	-0.177	0.009
-728.937	-143.680	0.293	-0.028
-727.923	-105.861	-0.484	-0.110
-726.908	35.583	-0.436	0.387
-725.894	-117.968	-0.189	0.034
-724.879	304.078	0.046	-0.085
-723.864	-200.000	-0.004	-0.155
-722.850	360.525	-0.055	-0.112
-721.835	800.000	-0.029	-0.106
-720.821	124.001	-0.183	-0.233
-719.806	142.940	0.252	-0.340
-718.791	-200.000	-0.002	0.320
-717.777	-94.522	0.215	0.059
-716.762	-200.000	-0.014	0.359
-715.748	-60.606	-0.180	-0.077
-714.733	-200.000	0.043	-0.242
-713.718	418.975	-0.168	-0.363
-712.704	172.539	-0.175	-0.255
-711.689	237.523	-0.072	-0.121
-710.675	800.000	0.043	-0.138
-709.660	-2.554	0.504	0.357
-708.645	-49.249	-0.151	-0.073
-707.631	-57.958	0.097	-0.043
-706.616	598.423	0.105	-0.264
-705.602	800.000	-0.060	-0.174
-704.587	-200.000	0.007	-0.093
-703.572	568.983	-0.034	-0.084
-702.558	-200.000	-0.080	-0.363
-701.543	-82.217	0.429	-0.141
-700.529	101.988	0.094	-0.111
-699.514	21.305	0.124	0.102
-698.499	800.000	0.080	-0.284
-697.485	-124.673	0.119	-0.019
-696.470	-200.000	0.014	0.109
-695.456	-123.172	-0.107	-0.017
-694.441	313.200	0.240	0.456
-693.426	-101.433	-0.168	-0.041
-692.412	25.325	0.358	0.300
-691.397	186.120	-0.063	0.094
-690.383	114.956	0.108	0.133
-689.368	-138.974	0.257	0.028
-688.354	95.249	-0.234	0.270
-687.339	-200.000	0.004	0.399
-686.324	-200.000	0.032	0.351
-685.310	800.000	0.040	0.118
-684.295	-107.230	-0.217	-0.048
-683.281	800.000	-0.111	0.415
-682.266	30.785	-0.136	-0.118
-681.251	800.000	-0.076	-0.326
-680.237	97.033	0.065	-0.075
-679.222	100.012	0.189	-0.221
-678.208	550.345	-0.099	-0.241
-677.193	-200.000	0.024	-0.189
-676.178	-200.000	-0.046	0.243
-675.164	-200.000	-0.045	-0.264
-674.149	-16.719	0.143	0.091
-673.135	-72.984	0.180	-0.067
-672.120	-52.535	-0.233	-0.109
-671.105	78.009	-0.323	0.348
-670.091	-88.717	0.076	0.023
-669.076	51.901	-0.107	-0.103
-668.062	-69.555	-0.395	0.153
-667.047	-37.656	-0.347	-0.187
-666.032	260.902	-0.182	-0.318
-665.018	-41.277	-0.345	0.180
-664.003	-163.014	-0.355	0.017
-662.989	-86.000	-0.102	-0.032
-661.974	266.395	0.070	-0.123
-660.959	-24.819	0.050	0.030
-659.945	79.143	0.159	-0.172
-658.930	-106.868	-0.308	-0.069
-657.916	-73.502	0.148	-0.055
-656.901	-57.270	0.096	-0.043
-655.886	456.283	0.129	0.290
-654.872	264.731	0.147	-0.259
-653.857	-31.770	0.329	0.186
-652.843	4.017	-0.209	0.154
-651.828	-200.000	0.012	-0.171
-650.814	-15.006	0.304	0.196
-649.799	-196.808	0.059	0.000
-648.784	-72.084	-0.081	0.031
-647.770	75.768	-0.120	0.128
-646.755	166.057	0.092	0.131
-645.741	262.889	0.138	-0.242
-644.726	-57.951	-0.198	0.087
-643.711	-200.000	0.026	0.162
-642.697	-200.000	0.043	0.258
-641.682	-200.000	-0.058	-0.284
-640.668	-157.967	-0.014	-0.001
-639.653	-76.981	0.289	-0.102
-638.638	2.902	0.152	-0.111
-637.624	-200.000	0.010	-0.182
-636.609	-54.032	0.299	-0.137
-635.595	103.810	-0.117	-0.138
-634.580	800.000	0.048	0.205
-633.565	-13.857	-0.148	0.096
-632.551	-19.541	-0.197	0.123
-631.536	-200.000	0.001	-0.243
-630.522	800.000	0.070	0.216
-629.507	-100.033	-0.284	-0.071
-628.492	515.534	-0.069	-0.161
-627.478	-200.000	-0.002	0.026
-626.463	63.776	-0.094	-0.096
-625.449	-200.000	0.015	-0.125
-624.434	467.531	0.109	0.245
-623.419	-146.204	0.242	-0.021
-622.405	-200.000	0.009	-0.209
-621.390	-47.398	0.112	-0.055
-620.376	-200.000	-0.018	0.205
-619.361	-36.176	-0.156	-0.085
-618.346	-69.197	0.205	0.079
-617.332	-57.140	0.278	0.123
-616.317	0.413	-0.147	0.106
-615.303	800.000	0.082	-0.327
-614.288	-142.711	0.190	-0.019
-613.273	-138.264	0.171	-0.019
-612.259	800.000	0.135	0.402
-611.244	-130.692	-0.098	-0.013
-610.230	-158.403	-0.182	0.011
-609.215	-32.311	0.267	-0.150
-608.201	-156.938	-0.331	-0.020
-607.186	-137.472	-0.107	-0.012
-606.171	800.000	-0.027	-0.096
-605.157	-200.000	0.023	-0.173
-604.142	159.947	-0.076	-0.107
-603.128	-120.425	-0.079	0.013
-602.113	-200.000	-0.044	-0.323
-601.098	-200.000	-0.039	-0.186
-600.084	151.653	-0.069	0.094
-599.069	88.454	-0.021	-0.024
-598.055	-200.000	0.015	0.073
-597.040	-200.000	0.014	0.177
-596.025	279.642	0.087	0.156
-595.011	-200.000	-0.037	-0.249
-593.996	67.966	0.055	0.057
-592.982	-200.000	-0.060	0.446
-591.967	502.948	0.065	-0.151
-590.952	-111.659	0.255	0.052
-589.938	361.201	0.129	0.260
-588.923	-154.211	-0.233	0.016
-587.909	800.000	-0.068	0.215
-586.894	419.031	-0.089	-0.192
-585.879	800.000	-0.008	-0.033
-584.865	-64.361	-0.103	0.042
-583.850	467.526	0.075	-0.168
-582.836	172.421	-0.134	0.194
-581.821	-86.013	-0.040	-0.012
-580.806	112.624	0.046	0.056
-579.792	-200.000	-0.001	-0.005
-578.777	-180.589	0.333	-0.007
-577.763	-153.078	-0.138	-0.010
-576.748	51.873	-0.290	-0.278
-575.733	175.988	-0.151	0.221
-574.719	4.639	-0.332	-0.245
-573.704	-115.517	0.154	-0.029
-572.690	67.141	-0.167	0.171
-571.675	-200.000	-0.036	-0.287
-570.661	90.276	0.182	-0.204
-569.646	43.054	-0.094	0.086
-568.631	-200.000	0.012	-0.147
-567.617	-59.008	-0.231	0.100
-566.602	-113.921	-0.322	-0.063
-565.588	63.304	-0.110	0.111
-564.573	199.014	0.127	0.195
-563.558	26.553	0.138	-0.116
-562.544	-45.167	0.188	-0.094
-561.529	7.727	-0.260	0.196
-560.515	800.000	0.056	0.191
-559.500	-160.985	-0.246	-0.013
-558.485	114.092	-0.147	-0.179
-557.471	-179.311	0.277	-0.006
-556.456	800.000	0.010	0.029
-555.442	79.376	0.199	-0.214
-554.427	-200.000	0.046	-0.295
-553.412	-86.833	0.084	-0.026
-552.398	-159.871	-0.190	-0.010
-551.383	-125.664	0.346	0.053
-550.369	397.692	0.103	-0.216
-549.354	-200.000	-0.020	-0.145
-548.339	3.585	-0.148	-0.108
-547.325	-200.000	0.063	0.297
-546.310	-99.885	0.194	-0.049
-545.296	-112.178	-0.368	-0.074
-544.281	-2.164	0.133	-0.094
-543.266	479.635	-0.194	-0.442
-542.252	-143.925	0.209	-0.020
-541.237	-67.351	0.157	-0.062
-540.223	-200.000	-0.023	-0.269
-539.208	-137.872	0.368	-0.041
-538.193	150.756	0.232	-0.317
-537.179	-130.379	0.409	-0.056
-536.164	68.080	0.144	0.148
-535.150	800.000	-0.039	0.135
-534.135	800.000	-0.118	0.370
-533.121	114.344	-0.196	0.240
-532.106	800.000	-0.061	-0.253
-531.091	-153.411	0.308	-0.021
-530.077	-46.758	0.081	0.040
-529.062	90.509	0.054	-0.061
-528.048	-61.756	0.185	-0.078
-527.033	48.359	0.155	-0.146
-526.018	321.072	-0.087	-0.165
-525.004	-200.000	-0.007	-0.100
-523.989	-109.208	-0.214	0.046
-522.975	-78.971	0.272	0.093
-521.960	-74.722	-0.151	-0.055
-520.945	151.875	0.199	-0.273
-519.931	800.000	-0.071	-0.290
-518.916	-21.150	-0.198	-0.122
-517.902	-41.717	0.147	-0.076
-516.887	800.000	-0.075	-0.318
-515.872	-107.062	0.039	0.009
-514.858	-135.689	-0.398	0.047
-513.843	154.236	-0.184	-0.253
-512.829	-190.132	-0.127	-0.001
-511.814	494.411	-0.115	-0.266
-510.799	-200.000	-0.009	0.130
-509.785	-75.683	-0.211	0.075
-508.770	-67.486	-0.220	-0.087
-507.756	-200.000	-0.009	-0.329
-506.741	-97.072	-0.240	0.063
-505.726	162.371	0.103	-0.144
-504.712	-200.000	0.023	-0.148
-503.697	800.000	-0.048	0.156
-502.683	-200.000	-0.062	-0.340
-501.668	-36.825	-0.288	-0.155
-500.653	-186.431	0.387	0.006
-499.639	-56.279	0.045	-0.020
-498.624	-98.595	-0.238	0.061
-497.610	-200.000	-0.016	-0.178
-496.595	797.147	-0.107	0.295
-495.581	276.403	-0.108	0.192
-494.566	246.604	0.143	-0.242
-493.551	-200.000	0.012	-0.152
-492.537	-149.347	-0.174	0.014
-491.522	800.000	-0.099	0.303
-490.508	-44.196	0.274	-0.138
-489.493	218.601	-0.248	0.397
-488.478	792.079	0.052	0.143
-487.464	691.304	0.038	-0.100
-486.449	196.396	-0.099	0.152
-485.435	-16.824	-0.084	0.053
-484.420	68.867	-0.051	-0.052
-483.405	484.063	0.211	-0.481
-482.391	64.139	0.248	-0.251
-481.376	-143.525	0.087	0.008
-480.362	-69.079	-0.164	-0.063
-479.347	103.906	0.032	-0.037
-478.332	800.000	0.038	-0.133
-477.318	121.713	0.161	0.202
-476.303	66.599	0.228	-0.232
-475.289	80.952	-0.059	-0.063
-474.274	-200.000	-0.011	-0.195
-473.259	-12.691	0.107	-0.070
-472.245	62.065	-0.270	-0.270
-471.230	16.185	0.162	0.128
-470.216	-200.000	0.011	-0.319
-469.201	-4.345	0.126	0.087
-468.186	800.000	-0.058	-0.173
-467.172	113.698	0.177	0.216
-466.157	800.000	0.076	0.286
-465.143	800.000	-0.053	0.213
-464.128	800.000	0.058	-0.211
-463.113	-22.539	0.190	-0.115
-462.099	-32.182	-0.096	-0.054
-461.084	420.687	0.051	-0.110
-460.070	800.000	0.053	-0.181
-459.055	96.323	-0.245	0.280
-458.040	-148.491	-0.416	-0.034
-457.026	-147.630	0.373	-0.031
-456.011	-111.954	-0.476	-0.096
-454.997	636.749	0.069	-0.176
-453.982	122.746	-0.128	0.160
-452.968	-61.476	0.082	0.034
-451.953	-112.092	-0.085	0.017
-450.938	-200.000	0.005	0.168
-449.924	175.673	-0.085	-0.124
-448.909	-200.000	-0.036	-0.166
-447.895	-3.727	-0.089	-0.062
-446.880	-177.727	-0.072	0.002
-445.865	85.458	0.057	-0.063
-444.851	133.795	0.071	0.092
-443.836	-136.973	-0.075	-0.009
-442.822	-165.876	-0.088	-0.004
-441.807	-92.744	0.028	-0.008
-440.792	343.126	0.142	0.278
-439.778	-200.000	-0.003	-0.195
-438.763	31.965	0.108	-0.093
-437.749	-102.389	-0.118	-0.028
-436.734	-40.045	-0.096	0.050
-435.719	390.855	-0.198	-0.412
-434.705	66.375	-0.255	-0.259
-433.690	-33.783	0.132	0.073
-432.676	39.784	0.140	-0.125
-431.661	101.322	-0.289	0.337
-430.646	-161.554	0.091	-0.005
-429.632	23.260	-0.241	-0.198
-428.617	417.503	-0.061	-0.130
-427.603	569.947	0.157	-0.382
-426.588	-91.657	-0.250	-0.071
-425.573	-200.000	-0.021	-0.134
-424.559	13.251	0.209	-0.162
-423.544	306.759	0.008	-0.015
-422.530	-64.816	-0.256	0.103
-421.515	-92.643	-0.163	-0.046
-420.500	757.413	0.028	-0.075
-419.486	-125.092	-0.329	-0.050
-418.471	-200.000	0.030	-0.243
-417.457	-146.921	-0.392	-0.034
-416.442	50.224	-0.173	-0.163
-415.428	-200.000	-0.038	-0.325
-414.413	263.291	0.126	0.219
-413.398	9.436	0.113	-0.086
-412.384	-200.000	-0.002	-0.321
-411.369	79.225	-0.245	-0.262
-410.355	1.238	0.276	-0.198
-409.340	-12.810	0.215	-0.140
-408.325	800.000	0.122	0.434
-407.311	604.988	0.083	-0.206
-406.296	-200.000	-0.031	0.185
-405.282	54.992	0.195	-0.188
-404.267	-16.746	0.208	-0.131
-403.252	-167.294	-0.267	0.011
-402.238	-200.000	-0.010	-0.104
-401.223	43.067	-0.126	0.115
-400.209	131.299	0.142	0.182
-399.194	-95.161	0.141	0.038
-398.179	-114.218	-0.183	0.035
-397.165	-118.501	-0.132	0.023
-396.150	-200.000	0.069	0.358
-395.136	141.360	0.148	-0.195
-394.121	26.972	-0.066	-0.055
-393.106	-48.995	-0.114	-0.055
-392.092	416.055	0.014	0.030
-391.077	-78.532	-0.182	-0.062
-390.063	800.000	-0.069	0.232
-389.048	-200.000	0.015	0.300
-388.033	139.192	-0.156	-0.205
-387.019	-151.126	-0.304	0.023
-386.004	-187.411	-0.384	0.005
-384.990	27.769	0.182	-0.153
-383.975	-200.000	0.026	-0.213
-382.960	225.719	-0.239	-0.386
-381.946	-161.666	0.243	-0.012
-380.931	-200.000	0.029	-0.205
-379.917	-160.659	0.212	0.011
-378.902	66.180	0.146	-0.148
-377.888	800.000	0.109	0.475
-376.873	-200.000	-0.059	0.263
-375.858	219.444	-0.164	-0.261
-374.844	-59.728	0.284	-0.122
-373.829	15.517	-0.039	0.031
-372.815	-134.587	0.076	-0.009
-371.800	608.671	-0.112	-0.279
-370.785	-200.000	0.030	-0.168
-369.771	480.495	-0.054	0.122
-368.756	135.696	0.202	0.263
-367.742	169.372	-0.052	-0.075
-366.727	567.982	-0.115	-0.278
-365.712	-200.000	0.034	0.319
-364.698	277.896	-0.271	0.482
-363.683	89.003	0.079	0.088
-362.669	466.366	-0.061	0.137
-361.654	800.000	0.047	0.152
-360.639	-200.000	0.001	0.067
-359.625	-43.562	0.092	-0.047
-358.610	-200.000	0.004	0.185
-357.596	800.000	-0.090	0.280
-356.581	-200.000	0.021	0.118
-355.566	800.000	-0.062	-0.207
-354.552	-95.422	0.162	-0.043
-353.537	-51.876	0.147	0.068
-352.523	-127.563	-0.332	-0.048
-351.508	-59.394	-0.210	0.090
-350.493	-133.283	-0.207	-0.026
-349.479	52.291	-0.117	0.111
-348.464	-200.000	0.058	0.327
-347.450	8.156	0.154	0.115
-346.435	329.948	0.057	0.110
-345.420	289.734	0.101	0.182
-344.406	140.473	-0.209	0.275
-343.391	-97.332	0.298	0.077
-342.377	-200.000	-0.006	0.143
-341.362	152.892	0.062	0.084
-340.348	165.214	0.287	0.404
-339.333	-115.132	0.365	-0.069
-338.318	232.064	-0.040	0.065
-337.304	-200.000	-0.026	0.156
-336.289	38.102	-0.254	0.225
-335.275	207.533	-0.081	0.126
-334.260	127.797	-0.105	0.133
-333.245	-51.888	0.163	-0.075
-332.231	325.746	0.123	0.234
-331.216	19.918	0.096	-0.077
-330.202	-76.978	-0.228	0.079
-329.187	-54.161	-0.190	-0.086
-328.172	-81.943	0.137	0.044
-327.158	34.048	0.335	0.291
-326.143	800.000	-0.013	0.043
-325.129	33.301	0.358	0.309
-324.114	136.186	-0.039	0.051
-323.099	104.032	-0.137	0.160
-322.085	-133.428	0.418	0.052
-321.070	-89.573	-0.153	-0.045
-320.056	800.000	0.094	-0.315
-319.041	-144.597	0.085	-0.008
-318.026	-12.876	-0.115	-0.074
-317.012	-105.539	-0.179	-0.040
-315.997	-38.090	-0.129	0.068
-314.983	-171.582	0.359	0.012
-313.968	263.205	0.192	0.332
-312.953	125.334	0.206	0.259
-311.939	-63.638	-0.115	0.047
-310.924	-26.628	0.199	0.116
-309.910	295.542	0.076	-0.138
-308.895	56.951	0.120	-0.117
-307.880	800.000	-0.148	-0.612
-306.866	4.850	-0.230	-0.168
-305.851	133.313	0.110	0.141
-304.837	-145.606	0.424	-0.038
-303.822	279.253	0.074	0.132
-302.807	177.934	-0.110	0.159
-301.793	-124.615	0.178	0.028
-300.778	33.648	0.380	-0.329
-299.764	311.019	0.202	-0.377
-298.749	8.894	0.042	-0.031
-297.735	37.193	-0.040	-0.035
-296.720	800.000	-0.069	0.258
-295.705	32.998	-0.267	-0.230
-294.691	480.815	0.157	-0.354
-293.676	-165.565	0.091	-0.004
-292.662	-25.506	-0.371	-0.218
-291.647	107.292	0.201	-0.238
-290.632	-156.873	-0.443	-0.027
-289.618	-171.358	0.145	0.005
-288.603	17.374	0.072	-0.057
-287.589	4.363	-0.024	0.018
-286.574	626.128	0.052	-0.130
-285.559	705.026	0.103	0.269
-284.545	-111.666	-0.244	0.049
-283.530	5.215	0.187	0.137
-282.516	378.096	-0.057	0.116
-281.501	145.921	0.156	0.207
-280.486	800.000	0.045	0.155
-279.472	-124.209	0.104	-0.016
-278.457	-200.000	-0.000	0.025
-277.443	-72.862	-0.107	0.039
-276.428	-200.000	0.059	0.346
-275.413	58.308	0.117	-0.114
-274.399	-56.102	0.238	0.105
-273.384	-72.321	0.215	-0.079
-272.370	463.169	-0.048	0.106
-271.355	3.589	-0.128	-0.093
-270.340	-200.000	-0.014	0.066
-269.326	-200.000	0.010	0.055
-268.311	-38.082	-0.195	0.103
-267.297	558.674	0.040	-0.096
-266.282	486.381	-0.063	0.142
-265.267	-111.863	-0.111	0.022
-264.253	-165.395	-0.291	-0.013
-263.238	-200.000	0.042	-0.337
-262.224	-96.816	-0.121	-0.032
-261.209	-59.007	0.108	0.046
-260.195	-200.000	-0.076	0.347
-259.180	-151.227	-0.155	-0.012
-258.165	-77.325	-0.155	0.053
-257.151	-104.212	0.438	-0.101
-256.136	164.229	0.154	0.216
-255.122	-51.841	0.058	-0.027
-254.107	182.381	-0.056	0.082
-253.092	6.069	0.130	-0.096
-252.078	16.628	0.132	-0.103
-251.063	-200.000	0.017	0.323
-250.049	11.082	-0.105	0.080
-249.034	-116.749	0.080	-0.015
-248.019	-103.642	-0.320	-0.074
-247.005	-57.822	0.490	0.213
-245.990	214.750	0.050	0.079
-244.976	-120.827	-0.218	0.036
-243.961	207.942	0.052	0.080
-242.946	213.448	-0.109	-0.171
-241.932	-200.000	0.015	0.311
-240.917	275.276	0.115	0.202
-239.903	-200.000	-0.022	0.172
-238.888	-105.715	-0.285	-0.064
-237.873	305.677	0.180	0.333
-236.859	294.868	-0.129	0.235
-235.844	-200.000	-0.024	0.135
-234.830	800.000	0.061	0.241
-233.815	434.023	0.056	-0.122
-232.800	343.740	0.248	0.483
-231.786	800.000	0.049	0.137
-230.771	102.306	-0.161	0.187
-229.757	137.662	0.050	0.065
-228.742	-7.949	0.216	-0.144
-227.727	-100.317	0.189	-0.047
-226.713	800.000	-0.035	0.100
-225.698	800.000	-0.056	0.195
-224.684	-16.254	-0.241	-0.152
-223.669	-200.000	-0.029	-0.409
-222.655	17.999	-0.186	0.147
-221.640	144.140	-0.317	-0.419
-220.625	-95.892	-0.088	0.023
-219.611	102.917	0.143	0.167
-218.596	293.469	-0.160	-0.290
-217.582	-54.214	-0.091	-0.041
-216.567	-105.650	-0.051	0.011
-215.552	-20.626	-0.259	-0.158
-214.538	721.011	-0.077	0.204
-213.523	110.390	0.218	-0.259
-212.509	-15.662	-0.150	0.095
-211.494	510.310	-0.129	-0.297
-210.479	189.436	0.152	0.227
-209.465	-170.065	-0.372	-0.013
-208.450	-96.741	-0.377	-0.098
-207.436	-28.148	0.110	-0.063
-206.421	-200.000	-0.007	0.184
-205.406	182.377	-0.084	0.123
-204.392	354.094	-0.037	0.072
-203.377	-200.000	-0.010	0.563
-202.363	373.718	-0.057	0.114
-201.348	88.465	-0.081	0.089
-200.333	629.148	0.036	0.090
-199.319	-169.151	0.112	0.004
-198.304	69.713	0.230	-0.234
-197.290	800.000	-0.064	0.190
-196.275	38.761	-0.008	0.007
-195.260	6.883	-0.027	-0.020
-194.246	-87.540	0.223	0.067
-193.231	149.337	-0.082	0.110
-192.217	-0.221	0.200	0.141
-191.202	337.394	-0.046	0.089
-190.187	800.000	0.031	-0.134
-189.173	-200.000	0.007	-0.050
-188.158	783.678	-0.032	-0.088
-187.144	631.987	-0.134	-0.336
-186.129	-106.246	0.385	-0.085
-185.114	557.007	0.026	0.063
-184.100	5.899	-0.249	0.182
-183.085	-139.774	0.081	-0.009
-182.071	-102.145	-0.155	-0.037
-181.056	-200.000	0.026	0.000
-180.042	-121.033	0.138	-0.023
-179.027	-137.884	-0.236	0.026
-178.012	66.132	0.234	0.235
-176.998	-133.315	-0.120	0.015
-175.983	-58.969	0.174	0.074
-174.969	800.000	0.069	-0.212
-173.954	-200.000	-0.001	-0.102
-172.939	-129.422	0.229	0.031
-171.925	-98.109	-0.050	-0.013
-170.910	148.515	-0.122	-0.164
-169.896	178.346	-0.047	-0.068
-168.881	-13.159	0.015	-0.010
-167.866	130.598	-0.084	0.107
-166.852	-200.000	-0.013	0.241
-165.837	44.645	-0.140	0.128
-164.823	800.000	0.034	-0.107
-163.808	800.000	-0.052	0.190
-162.793	-126.367	0.063	-0.009
-161.779	20.674	0.271	0.217
-160.764	154.998	-0.251	0.341
-159.750	495.228	0.055	-0.124
-158.735	-155.718	-0.141	-0.009
-157.720	42.888	0.204	0.184
-156.706	178.651	-0.157	0.227
-155.691	-53.087	0.283	0.129
-154.677	-79.657	-0.278	0.093
-153.662	-80.508	0.481	0.159
-152.647	-20.660	0.264	0.160
-151.633	42.884	0.116	0.105
-150.618	-8.999	-0.251	0.166
-149.604	43.230	-0.118	0.107
-148.589	800.000	-0.069	0.217
-147.574	-55.107	-0.100	-0.044
-146.560	636.146	0.018	-0.045
-145.545	114.111	0.218	-0.262
-144.531	62.382	-0.179	-0.177
-143.516	7.201	-0.167	-0.124
-142.502	-200.000	0.015	0.299
-141.487	-63.968	0.205	-0.083
-140.472	-62.941	-0.257	0.105
-139.458	-200.000	0.002	0.280
-138.443	-131.184	-0.236	0.031
-137.429	207.908	0.068	-0.105
-136.414	-134.892	0.245	0.029
-135.399	143.526	0.206	-0.271
-134.385	498.799	0.198	0.450
-133.370	800.000	0.056	0.169
-132.356	337.449	0.095	-0.182
-131.341	320.160	-0.110	0.207
-130.326	421.044	0.074	-0.156
-129.312	800.000	-0.053	-0.148
-128.297	36.481	0.135	-0.118
-127.283	800.000	-0.039	-0.161
-126.268	139.949	0.020	-0.026
-125.253	548.603	-0.071	-0.168
-124.239	-200.000	-0.065	-0.344
-123.224	0.057	-0.072	0.051
-122.210	62.880	0.110	-0.108
-121.195	-80.323	0.303	0.100
-120.180	800.000	0.041	0.117
-119.166	-118.225	-0.103	0.018
-118.151	-190.247	-0.254	0.003
-117.137	800.000	0.113	-0.386
-116.122	800.000	-0.031	0.105
-115.107	170.739	0.065	-0.092
-114.093	800.000	0.034	-0.110
-113.078	-200.000	0.026	0.238
-112.064	-200.000	0.219	-0.000
-111.049	108.033	-0.188	-0.222
-110.034	23.566	-0.097	0.079
-109.020	-10.215	-0.079	0.051
-108.005	1.720	0.111	0.079
-106.991	348.234	0.088	-0.171
-105.976	12.449	0.084	-0.064
-104.962	-103.310	0.476	-0.111
-103.947	800.000	0.066	-0.258
-102.932	208.786	-0.289	-0.446
-101.918	800.000	0.027	0.086
-100.903	-107.685	-0.211	0.046
-99.889	-200.000	0.002	-0.238
-98.874	-116.844	0.074	-0.013
-97.859	271.883	0.103	0.179
-96.845	-200.000	-0.023	-0.345
-95.830	115.231	0.167	-0.201
-94.816	-57.793	-0.339	0.147
-93.801	-74.607	-0.268	-0.095
-92.786	800.000	0.056	0.176
-91.772	279.106	0.101	-0.177
-90.757	-200.000	-0.092	-0.463
-89.743	-36.345	-0.372	0.198
-88.728	-200.000	-0.025	-0.156
-87.713	-85.397	0.024	0.008
-86.699	-64.303	-0.346	-0.139
-85.684	-11.048	0.409	-0.266
-84.670	62.851	0.092	-0.091
-83.655	-200.000	0.072	0.414
-82.640	-200.000	0.007	0.122
-81.626	-155.375	-0.139	0.009
-80.611	606.264	-0.032	-0.078
-79.597	227.752	0.161	0.258
-78.582	800.000	-0.069	-0.259
-77.567	73.267	0.098	0.101
-76.553	800.000	-0.045	-0.166
-75.538	-129.027	-0.415	0.057
-74.524	162.101	-0.233	-0.322
-73.509	-42.963	-0.285	0.142
-72.494	-128.547	0.264	0.037
-71.480	-200.000	-0.056	-0.337
-70.465	207.896	0.123	0.190
-69.451	800.000	0.017	0.061
-68.436	800.000	-0.063	-0.196
-67.422	296.232	-0.199	0.360
-66.407	186.881	-0.191	0.281
-65.392	-200.000	0.021	-0.195
-64.378	372.246	0.038	-0.077
-63.363	82.833	-0.093	-0.100
-62.349	-200.000	-0.047	0.351
-61.334	208.668	-0.881	-1.359
-60.319	108.893	0.593	0.699
-59.305	800.000	-0.190	-0.723
-58.290	294.248	0.510	0.919
-57.276	-200.000	0.357	1.548
-56.261	-200.000	95.923	570.613
-55.246	637.806	1382.359	3462.248
-54.232	196.450	2558.011	3839.549
-53.217	119.598	2146.084	2619.438
-52.203	44.794	1608.831	1458.672
-51.188	36.650	1347.008	1172.144
-50.173	33.464	1304.532	1116.402
-49.159	56.318	1351.249	1293.715
-48.144	58.162	1368.370	1321.086
-47.130	36.861	1326.775	1155.616
-46.115	33.268	1309.750	1119.530
-45.100	33.125	1305.046	1114.622
-44.086	33.006	1302.359	1111.583
-43.071	33.008	1300.547	1110.007
-42.057	33.032	1298.091	1108.005
-41.042	33.064	1296.269	1106.594
-40.027	33.096	1295.399	1105.990
-39.013	33.022	1293.361	1103.778
-37.998	32.982	1291.707	1102.086
-36.984	33.095	1289.778	1101.054
-35.969	33.146	1287.762	1099.588
-34.954	33.151	1286.513	1098.510
-33.940	33.182	1284.894	1097.263
-32.925	33.185	1283.666	1096.188
-31.911	33.136	1282.430	1094.803
-30.896	33.200	1280.900	1093.827
-29.881	33.322	1279.503	1093.293
-28.867	33.223	1277.927	1091.330
-27.852	33.196	1276.682	1090.069
-26.838	33.192	1275.430	1088.937
-25.823	33.237	1273.598	1087.588
-24.809	33.214	1272.328	1086.326
-23.794	33.218	1271.160	1085.306
-22.779	33.289	1269.464	1084.226
-21.765	33.286	1268.189	1083.073
-20.750	33.240	1267.454	1082.139
-19.736	33.071	1265.856	1079.768
-18.721	33.018	1265.498	1079.116
-17.706	33.180	1263.763	1078.518
-16.692	33.074	1262.904	1077.137
-15.677	33.091	1261.839	1076.283
-14.663	33.098	1260.470	1075.113
-13.648	32.990	1259.865	1073.939
-12.633	33.128	1258.489	1073.512
-11.619	33.089	1257.951	1072.790
-10.604	33.007	1257.291	1071.714
-9.590	33.036	1255.624	1070.415
-8.575	33.077	1255.111	1070.169
-7.560	33.022	1254.261	1069.091
-6.546	33.084	1253.243	1068.533
-5.531	33.015	1252.587	1067.542
-4.517	33.050	1251.853	1067.069
-3.502	33.153	1251.011	1066.893
-2.487	33.153	1249.710	1065.741
-1.473	32.993	1246.272	1061.864
-0.458	31.592	1230.954	1040.985
0.556	27.232	1213.718	1002.480
1.571	23.334	1219.304	985.366
2.586	22.320	1234.789	992.077
3.600	21.871	1222.743	979.804
4.615	16.649	1152.151	895.597
5.629	8.473	1078.055	797.291
6.644	4.863	1058.288	764.900
7.659	4.707	1055.696	762.195
8.673	4.722	1055.116	761.785
9.688	4.798	1053.402	760.848
10.702	4.877	1051.911	760.091
11.717	9.296	1058.153	786.184
12.731	16.640	1068.129	829.654
13.746	19.379	1070.855	845.141
14.761	18.551	1069.145	839.661
15.775	17.577	1067.402	833.457
16.790	16.552	1064.965	826.471
17.804	15.782	1063.407	821.434
18.819	15.435	1062.387	818.878
19.834	15.169	1061.445	816.786
20.848	14.810	1060.808	814.470
21.863	14.725	1059.832	813.236
22.877	14.648	1059.291	812.375
23.892	14.537	1058.455	811.122
24.907	14.587	1057.634	810.666
25.921	14.612	1056.450	809.804
26.936	14.636	1055.073	808.793
27.950	14.774	1053.799	808.414
28.965	14.799	1052.406	807.396
29.980	14.797	1051.199	806.387
30.994	14.902	1049.996	805.902
32.009	14.843	1049.534	805.189
33.023	14.919	1047.811	804.161
34.038	14.847	1046.883	803.035
35.053	14.707	1046.283	801.831
36.067	14.856	1045.076	801.547
37.082	14.734	1044.349	800.337
38.096	14.836	1043.555	800.146
39.111	14.861	1043.125	799.863
40.126	14.740	1041.444	797.923
41.140	14.557	1039.946	795.833
42.155	14.570	1038.508	794.727
43.169	14.470	1037.737	793.590
44.184	14.532	1037.164	793.376
45.199	14.499	1036.012	792.269
46.213	14.631	1034.871	791.953
47.228	14.772	1034.022	791.898
48.242	14.737	1033.179	791.018
49.257	14.714	1032.197	790.089
50.271	14.757	1031.038	789.332
51.286	14.943	1030.092	789.417
52.301	14.680	1029.320	787.518
53.315	14.654	1028.589	786.764
54.330	14.595	1027.172	785.335
55.344	14.647	1026.471	784.973
56.359	14.708	1025.424	784.388
57.374	14.606	1024.667	783.264
58.388	14.498	1024.058	782.222
59.403	14.360	1023.540	781.110
60.417	14.480	1022.225	780.598
61.432	14.385	1021.595	779.605
62.447	14.348	1020.620	778.616
63.461	14.368	1019.729	777.962
64.476	14.434	1018.906	777.573
65.490	14.318	1018.281	776.488
66.505	14.428	1017.266	776.155
67.520	14.470	1016.838	775.955
68.534	14.517	1015.925	775.408
69.549	14.458	1014.921	774.299
70.563	14.560	1013.964	773.976
71.578	14.317	1013.559	772.469
72.593	14.258	1013.050	771.741
73.607	14.157	1012.458	770.754
74.622	14.315	1011.668	770.815
75.636	14.369	1011.014	770.497
76.651	14.373	1010.120	769.766
77.666	14.249	1010.003	769.040
78.680	14.400	1008.354	768.411
79.695	14.443	1008.041	768.302
80.709	14.440	1007.472	767.787
81.724	14.477	1007.306	767.764
82.739	14.761	1006.020	768.019
83.753	14.738	1005.402	767.375
84.768	14.926	1004.435	767.431
85.782	14.836	1004.016	766.629
86.797	14.916	1002.885	766.066
87.812	14.691	1002.410	764.607
88.826	14.804	1001.143	764.088
89.841	14.809	1000.345	763.436
90.855	14.871	999.332	762.875
91.870	14.773	998.828	761.979
92.884	14.867	997.812	761.561
93.899	14.878	997.056	760.969
94.914	14.931	996.309	760.572
95.928	14.967	995.314	759.908
96.943	14.822	994.545	758.595
97.957	14.774	993.811	757.751
98.972	14.847	992.483	757.002
99.987	14.997	991.823	757.112
101.001	14.836	990.974	755.668
102.016	14.857	990.270	755.159
103.030	14.922	989.349	754.684
104.045	14.859	988.725	753.857
105.060	14.833	987.999	753.118
106.074	14.723	986.797	751.641
107.089	14.613	985.683	750.232
108.103	14.592	985.371	749.832
109.118	14.548	984.124	748.620
110.133	14.552	983.277	747.930
111.147	14.520	982.112	746.832
112.162	14.601	981.898	746.967
113.176	14.616	981.377	746.571
114.191	14.704	980.459	746.201
115.206	14.678	979.619	745.381
116.220	14.652	978.516	744.358
117.235	14.678	977.574	743.690
118.249	14.622	976.762	742.758
119.264	14.549	976.319	742.033
120.279	14.609	975.549	741.648
121.293	14.508	974.630	740.436
122.308	14.562	973.909	740.062
123.322	14.376	973.298	738.705
124.337	14.513	971.876	738.170
125.352	14.515	970.722	737.233
126.366	14.502	970.068	736.617
127.381	14.321	969.575	735.379
128.395	14.539	967.631	734.797
129.410	14.487	967.540	734.434
130.424	14.518	966.778	733.926
131.439	14.704	965.508	733.716
132.454	14.600	964.983	732.795
133.468	14.697	964.208	732.567
134.483	14.788	963.168	732.111
135.497	14.625	962.477	730.808
136.512	14.645	961.444	730.046
137.527	14.757	960.823	730.002
138.541	14.693	959.849	728.916
139.556	14.755	959.564	728.905
140.570	14.831	958.670	728.493
141.585	15.011	957.766	728.526
142.600	14.964	956.632	727.391
143.614	15.053	956.137	727.341
144.629	14.974	955.851	726.715
145.643	14.938	954.393	725.385
146.658	14.845	953.546	724.274
147.673	14.798	952.582	723.273
148.687	14.762	951.765	722.434
149.702	14.712	950.712	721.354
150.716	14.637	950.254	720.619
151.731	14.827	949.308	720.660
152.746	14.775	948.865	720.037
153.760	14.880	948.205	719.924
154.775	15.003	947.541	719.884
155.789	15.109	947.095	719.937
156.804	14.926	946.361	718.528
157.819	15.028	945.563	718.297
158.833	15.082	945.198	718.189
159.848	15.092	944.489	717.630
160.862	14.963	942.931	715.828
161.877	14.843	942.282	714.763
162.892	14.827	941.330	713.907
163.906	14.847	940.359	713.192
164.921	14.744	939.693	712.186
165.935	14.812	939.057	711.929
166.950	14.969	937.907	711.663
167.964	14.903	936.937	710.584
168.979	14.882	935.978	709.707
169.994	15.019	934.908	709.413
171.008	14.937	934.903	708.997
172.023	15.046	934.255	708.903
173.037	15.114	933.005	708.181
174.052	15.050	932.730	707.641
175.067	14.881	932.048	706.344
176.081	14.904	930.841	705.465
177.096	14.936	930.419	705.216
178.110	14.986	930.296	705.274
179.125	14.941	929.242	704.221
180.140	15.086	928.969	704.564
181.154	15.013	928.479	703.821
182.169	15.116	927.983	703.818
183.183	15.114	927.625	703.476
184.198	15.184	926.624	702.947
185.213	15.086	926.132	702.099
186.227	15.246	925.083	701.912
187.242	15.295	924.589	701.682
188.256	15.279	924.424	701.429
189.271	15.325	923.489	700.849
190.286	15.192	922.051	699.138
191.300	14.922	922.013	697.924
192.315	14.913	921.064	697.104
193.329	15.028	920.410	697.028
194.344	14.954	919.921	696.286
195.359	15.186	919.247	696.679
196.373	15.200	918.695	696.260
197.388	15.350	918.523	696.688
198.402	15.458	917.846	696.562
199.417	15.519	917.465	696.464
200.432	15.459	916.665	695.547
201.446	15.542	916.590	695.772
202.461	15.493	915.990	695.054
203.475	15.449	915.775	694.646
204.490	15.459	914.386	693.573
205.504	15.405	913.577	692.674
206.519	15.385	912.809	691.950
207.534	15.478	912.004	691.659
208.548	15.521	911.284	691.230
209.563	15.535	910.747	690.819
210.577	15.486	910.440	690.324
211.592	15.529	909.720	689.892
212.607	15.602	909.113	689.672
213.621	15.678	907.985	689.066
214.636	15.588	907.354	688.156
215.650	15.540	906.917	687.569
216.665	15.705	906.172	687.619
217.680	15.771	905.763	687.515
218.694	15.672	905.195	686.620
219.709	15.695	904.524	686.143
220.723	15.777	903.632	685.740
221.738	15.637	903.094	684.702
222.753	15.674	902.469	684.318
223.767	15.751	901.725	684.007
224.782	15.890	901.466	684.313
225.796	15.931	900.850	683.954
226.811	15.785	899.890	682.573
227.826	15.745	899.280	681.886
228.840	15.634	898.374	680.687
229.855	15.730	897.454	680.320
230.869	15.724	896.832	679.763
231.884	15.742	896.189	679.291
232.899	15.635	895.710	678.435
233.913	15.528	895.001	677.405
234.928	15.538	894.419	676.943
235.942	15.731	893.692	677.113
236.957	15.562	893.258	676.043
237.972	15.641	892.556	675.769
238.986	15.666	892.075	675.446
240.001	15.633	891.697	674.969
241.015	15.700	890.692	674.415
242.030	15.709	890.329	674.119
243.045	15.692	889.795	673.587
244.059	15.829	889.410	673.783
245.074	15.811	888.363	672.860
246.088	15.852	887.710	672.467
247.103	16.085	886.607	672.505
248.117	16.135	886.498	672.559
249.132	16.237	886.323	672.773
250.147	16.210	885.885	672.274
251.161	16.309	884.958	671.905
252.176	16.276	884.463	671.338
253.190	16.404	883.952	671.400
254.205	16.310	883.328	670.493
255.220	16.450	882.237	670.162
256.234	16.392	881.785	669.530
257.249	16.305	881.288	668.747
258.263	16.268	880.683	668.084
259.278	16.398	879.649	667.754
260.293	16.443	878.935	667.332
261.307	16.489	878.950	667.465
262.322	16.497	878.316	666.957
263.336	16.526	877.445	666.351
264.351	16.589	876.609	665.904
265.366	16.586	875.757	665.187
266.380	16.585	875.402	664.855
267.395	16.483	874.764	663.908
268.409	16.510	873.663	663.120
269.424	16.512	873.155	662.686
270.439	16.458	872.744	662.103
271.453	16.478	871.678	661.314
272.468	16.527	871.288	661.150
273.482	16.621	870.574	660.916
274.497	16.355	870.503	659.768
275.512	16.528	869.553	659.662
276.526	16.610	868.928	659.451
277.541	16.512	868.463	658.656
278.555	16.631	868.246	658.895
279.570	16.761	867.360	658.671
280.585	16.776	866.437	657.970
281.599	16.731	865.593	657.098
282.614	16.630	864.858	656.090
283.628	16.676	864.469	655.916
284.643	16.619	864.153	655.396
285.657	16.713	863.300	655.054
286.672	16.681	862.631	654.366
287.687	16.716	862.368	654.242
288.701	16.743	861.705	653.787
289.716	16.691	861.134	653.095
290.730	16.813	860.667	653.155
291.745	16.771	860.292	652.650
292.760	16.782	859.508	652.040
293.774	16.713	859.083	651.392
294.789	16.945	858.104	651.485
295.803	16.773	857.706	650.466
296.818	16.885	856.858	650.194
297.833	16.822	856.108	649.327
298.847	16.719	855.648	648.524
299.862	16.909	855.169	648.831
300.876	16.988	854.445	648.529
301.891	16.967	853.837	647.929
302.906	17.005	853.382	647.670
303.920	17.072	853.258	647.776
304.935	17.171	852.464	647.493
305.949	17.134	852.010	646.950
306.964	17.165	851.037	646.272
307.979	17.116	850.579	645.681
308.993	17.114	850.271	645.380
310.008	17.340	849.532	645.620
311.022	17.138	848.777	644.225
312.037	17.071	848.481	643.688
313.052	17.045	847.544	642.824
314.066	16.958	847.436	642.355
315.081	16.951	846.534	641.586
316.095	17.024	845.985	641.392
317.110	16.909	845.730	640.705
318.125	16.944	845.054	640.271
319.139	17.151	844.276	640.403
320.154	17.151	844.090	640.205
321.168	17.148	843.470	639.666
322.183	17.081	843.208	639.161
323.197	17.319	842.299	639.309
324.212	17.232	841.602	638.396
325.227	17.292	841.126	638.204
326.241	17.157	840.757	637.360
327.256	17.301	839.575	636.948
328.270	17.156	839.840	636.550
329.285	17.126	838.993	635.740
330.300	17.136	838.273	635.174
331.314	17.086	838.126	634.820
332.329	17.121	837.852	634.687
333.343	17.390	837.152	635.105
334.358	17.293	836.618	634.281
335.373	17.404	836.239	634.353
336.387	17.430	836.049	634.249
337.402	17.452	835.894	634.158
338.416	17.458	835.281	633.659
339.431	17.486	834.929	633.437
340.446	17.463	834.848	633.235
341.460	17.507	834.838	633.336
342.475	17.695	833.794	633.186
343.489	17.717	833.354	632.879
344.504	17.691	833.106	632.536
345.519	17.745	832.760	632.419
346.533	17.830	831.711	631.880
347.548	17.708	831.035	630.861
348.562	17.565	830.682	630.007
349.577	17.507	830.246	629.407
350.592	17.667	829.272	629.204
351.606	17.553	828.583	628.205
352.621	17.612	828.001	627.926
353.635	17.511	827.783	627.330
354.650	17.620	827.138	627.190
355.665	17.569	826.593	626.532
356.679	17.814	825.750	626.738
357.694	17.812	825.030	626.129
358.708	17.690	824.643	625.331
359.723	17.761	824.065	625.099
360.738	17.807	823.341	624.664
361.752	17.781	822.912	624.186
362.767	17.997	822.106	624.309
363.781	18.041	821.537	623.982
364.796	17.983	821.612	623.774
365.810	17.944	821.366	623.388
366.825	18.121	820.553	623.363
367.840	18.054	820.329	622.892
368.854	17.921	819.903	622.029
369.869	17.999	819.380	621.863
370.883	17.905	818.949	621.138
371.898	18.008	818.497	621.112
372.913	18.116	818.167	621.201
373.927	18.170	817.422	620.776
374.942	18.085	817.232	620.268
375.956	18.144	817.043	620.285
376.971	18.187	816.363	619.870
377.986	18.213	815.720	619.421
379.000	18.290	815.310	619.334
380.015	18.262	815.249	619.131
381.029	18.215	814.437	618.291
382.044	18.285	813.668	617.902
383.059	18.455	813.327	618.203
384.073	18.268	812.197	616.615
385.088	18.128	812.079	615.969
386.102	18.113	811.311	615.275
387.117	18.097	810.347	614.432
388.132	18.294	809.913	614.757
389.146	18.275	809.753	614.515
390.161	18.364	809.162	614.330
391.175	18.293	809.058	613.943
392.190	18.142	808.327	612.794
393.205	18.326	807.973	613.129
394.219	18.177	808.074	612.617
395.234	18.025	807.581	611.644
396.248	18.105	806.865	611.335
397.263	18.100	806.181	610.744
398.278	18.053	806.168	610.513
399.292	17.995	805.633	609.846
400.307	18.137	804.887	609.733
401.321	18.175	804.456	609.490
402.336	18.402	803.872	609.799
403.350	18.338	803.644	609.346
404.365	18.409	803.085	609.121
405.380	18.418	802.664	608.778
406.394	18.556	802.108	608.795
407.409	18.524	801.803	608.396
408.423	18.689	801.575	608.753
409.438	18.694	801.243	608.464
410.453	18.839	800.348	608.244
411.467	18.767	800.364	607.947
412.482	18.649	800.305	607.431
413.496	18.719	800.003	607.397
414.511	18.903	799.105	607.312
415.526	18.866	798.727	606.838
416.540	18.773	798.278	606.118
417.555	18.651	797.970	605.400
418.569	18.827	797.281	605.444
419.584	18.886	796.986	605.375
420.599	18.743	796.657	604.565
421.613	156.090	1371.252	1792.631
422.628	135.205	1454.977	1792.726
