DTS Sentinel unit serial number:	SN413079Multiplexer serial number:	ORYXHardware model number:	OX4-SRSoftware version number:	ORYX F/W v4.00 Oryx Data Collector v3.7.2.0data status	okinstallation	princeton_trtdifferential loss correction	single-endedforward channel	channel 1reverse channel	N/Adate	2019/09/14time	21:58:35forward acquisition time	60.00reverse acquisition time	0.00gamma	496.2192k internal	0.2318k external	0.2318temperature offset calibration	1.0006default loss term (dB/km)	0.3790temperature slope calibration	1.0000multiplexer offset coefficient	1.0000multiplexer slope coefficient	1.0000fibre end	0.00T internal ref (°C)	32.69T ext. ref 1 (°C)	4.72T ext. ref 2 (°C)	27.67length (m)	temperature (°C)	Stokes	anti-Stokes-747.200	-164.374	0.308	0.014
-746.185	344.902	-0.081	0.160
-745.171	-107.200	-0.094	0.021
-744.156	-126.813	-0.413	0.062
-743.142	800.000	0.065	0.223
-742.127	800.000	-0.022	0.064
-741.112	-73.438	0.093	-0.034
-740.098	306.147	-0.114	0.214
-739.083	-86.367	0.085	0.026
-738.069	77.679	0.042	0.045
-737.054	700.679	-0.101	-0.270
-736.039	649.840	-0.058	-0.151
-735.025	423.595	0.178	0.387
-734.010	-200.000	0.061	-0.321
-732.996	384.165	0.147	-0.307
-731.981	-69.083	0.239	0.093
-730.966	-200.000	0.008	-0.324
-729.952	-20.533	-0.302	-0.188
-728.937	800.000	-0.085	-0.248
-727.923	95.085	0.131	0.151
-726.908	680.158	0.027	0.070
-725.894	419.796	0.098	-0.213
-724.879	113.758	-0.055	-0.068
-723.864	-42.192	-0.326	-0.169
-722.850	50.051	-0.205	0.195
-721.835	-200.000	0.012	-0.277
-720.821	-200.000	-0.016	-0.240
-719.806	289.350	-0.118	-0.217
-718.791	184.877	0.178	-0.266
-717.777	-200.000	0.026	0.206
-716.762	-27.581	-0.090	0.053
-715.748	64.780	-0.011	0.011
-714.733	-50.714	-0.113	-0.054
-713.718	348.438	0.181	0.361
-712.704	143.285	0.182	-0.245
-711.689	-200.000	-0.034	0.153
-710.675	-146.890	0.082	-0.007
-709.660	27.665	-0.102	0.087
-708.645	-105.544	-0.243	0.056
-707.631	-200.000	-0.051	0.355
-706.616	8.623	-0.229	-0.174
-705.602	800.000	0.083	0.245
-704.587	-134.756	-0.266	0.033
-703.572	-108.419	0.322	-0.070
-702.558	59.898	-0.140	0.140
-701.543	-65.740	-0.159	0.064
-700.529	56.503	0.049	-0.048
-699.514	-200.000	0.013	-0.135
-698.499	392.528	0.042	-0.089
-697.485	-136.607	-0.176	-0.021
-696.470	800.000	-0.042	-0.174
-695.456	219.622	-0.150	-0.243
-694.441	-107.599	0.079	0.017
-693.426	52.892	-0.065	-0.063
-692.412	-67.333	-0.117	0.047
-691.397	-60.236	0.380	0.163
-690.383	-26.350	0.196	0.116
-689.368	-173.251	0.235	-0.007
-688.354	37.703	-0.125	0.112
-687.339	-170.669	0.175	0.006
-686.324	-200.000	0.005	-0.109
-685.310	-103.937	0.344	0.081
-684.295	-200.000	0.005	0.022
-683.281	-79.296	-0.129	-0.044
-682.266	-158.843	0.100	-0.006
-681.251	28.028	-0.059	0.051
-680.237	-200.000	0.020	0.110
-679.222	-147.916	0.034	0.003
-678.208	280.810	-0.098	-0.176
-677.193	-31.838	-0.197	0.112
-676.178	111.669	0.224	-0.272
-675.164	-64.059	0.157	0.065
-674.149	-200.000	0.032	0.278
-673.135	800.000	0.035	-0.146
-672.120	-114.191	0.330	-0.064
-671.105	-85.692	0.239	-0.075
-670.091	-88.192	-0.270	-0.082
-669.076	36.940	-0.121	0.108
-668.062	182.371	-0.167	0.249
-667.047	607.879	0.072	-0.181
-666.032	15.732	-0.074	-0.058
-665.018	260.876	-0.039	-0.068
-664.003	-14.014	0.070	-0.046
-662.989	-87.559	-0.159	-0.049
-661.974	-163.768	-0.374	0.018
-660.959	-200.000	0.009	0.162
-659.945	-110.388	0.275	0.058
-658.930	162.192	0.102	0.144
-657.916	-173.372	-0.394	0.012
-656.901	-200.000	-0.013	0.224
-655.886	-200.000	0.051	-0.551
-654.872	715.216	-0.057	0.152
-653.857	254.773	0.065	-0.112
-652.843	-48.321	-0.134	-0.065
-651.828	112.100	0.117	0.142
-650.814	688.876	-0.083	0.219
-649.799	-200.000	0.008	-0.127
-648.784	-113.843	-0.261	0.051
-647.770	-67.109	-0.212	0.084
-646.755	-152.218	0.221	-0.016
-645.741	800.000	0.020	-0.077
-644.726	-160.232	0.302	-0.016
-643.711	-64.762	0.342	-0.140
-642.697	65.839	0.109	0.111
-641.682	5.388	-0.104	-0.077
-640.668	-20.882	-0.059	-0.036
-639.653	1.317	-0.393	0.285
-638.638	-200.000	0.014	-0.187
-637.624	-35.366	-0.138	-0.076
-636.609	-91.369	-0.304	0.087
-635.595	-200.000	-0.002	-0.048
-634.580	-200.000	-0.045	-0.468
-633.565	-110.952	-0.107	-0.022
-632.551	77.913	0.079	-0.085
-631.536	-63.133	-0.150	-0.062
-630.522	-10.717	0.117	0.078
-629.507	-200.000	0.008	-0.038
-628.492	-200.000	0.002	-0.088
-627.478	131.575	-0.156	-0.202
-626.463	-45.565	0.267	-0.133
-625.449	-61.580	0.277	-0.117
-624.434	-130.049	-0.102	-0.014
-623.419	-200.000	0.050	0.232
-622.405	-118.977	-0.226	0.040
-621.390	495.959	0.034	-0.078
-620.376	-25.612	0.099	-0.059
-619.361	-3.893	0.181	-0.127
-618.346	85.415	0.124	-0.138
-617.332	-200.000	-0.011	-0.050
-616.317	-200.000	0.030	0.225
-615.303	14.096	0.240	-0.188
-614.288	-117.762	0.433	0.078
-613.273	-200.000	0.006	-0.273
-612.259	754.816	0.051	-0.139
-611.244	-121.257	-0.130	0.022
-610.230	88.922	-0.115	0.129
-609.215	-115.766	-0.163	-0.031
-608.201	-200.000	-0.008	-0.341
-607.186	-131.243	-0.009	0.001
-606.171	-12.335	0.248	-0.163
-605.157	-58.431	0.365	-0.160
-604.142	-200.000	-0.036	-0.345
-603.128	503.839	-0.023	-0.054
-602.113	-145.546	-0.185	-0.017
-601.098	255.524	-0.122	-0.211
-600.084	-75.976	-0.379	0.135
-599.069	-13.636	-0.245	-0.160
-598.055	-65.870	0.082	-0.033
-597.040	1.730	0.127	0.092
-596.025	-89.700	0.108	-0.032
-595.011	-200.000	-0.004	-0.108
-593.996	-60.709	-0.123	0.053
-592.982	164.201	0.117	-0.165
-591.967	-69.752	-0.282	-0.108
-590.952	144.076	0.054	-0.072
-589.938	-26.487	-0.201	-0.118
-588.923	20.901	-0.075	-0.061
-587.909	300.212	0.222	-0.412
-586.894	800.000	0.032	-0.119
-585.879	615.672	0.039	-0.099
-584.865	800.000	0.056	-0.227
-583.850	-200.000	0.001	-0.067
-582.836	-25.690	0.172	-0.102
-581.821	800.000	-0.056	-0.159
-580.806	800.000	-0.074	-0.241
-579.792	-58.200	-0.227	0.100
-578.777	55.267	-0.105	-0.102
-577.763	-63.836	-0.213	0.088
-576.748	622.395	-0.123	0.312
-575.733	391.869	-0.157	0.328
-574.719	-93.152	0.125	-0.035
-573.704	644.609	-0.113	-0.291
-572.690	-200.000	0.010	0.173
-571.675	-127.203	0.352	-0.052
-570.661	396.522	-0.036	-0.076
-569.646	-84.023	-0.281	-0.090
-568.631	-59.233	-0.139	0.060
-567.617	-84.711	-0.085	-0.027
-566.602	464.126	-0.095	0.214
-565.588	800.000	-0.119	-0.373
-564.573	455.256	0.188	-0.419
-563.558	-0.808	-0.176	0.126
-562.544	-98.014	0.077	-0.020
-561.529	-69.035	-0.059	0.023
-560.515	-81.201	-0.198	-0.066
-559.500	-144.244	0.365	0.034
-558.485	800.000	-0.099	0.326
-557.471	-200.000	0.007	0.082
-556.456	-10.150	-0.203	-0.135
-555.442	800.000	0.037	0.104
-554.427	800.000	0.072	0.212
-553.412	12.743	0.063	-0.049
-552.398	-47.363	0.139	0.068
-551.383	98.214	0.102	0.118
-550.369	-93.453	-0.215	-0.060
-549.354	185.288	-0.093	0.139
-548.339	-84.012	-0.188	0.060
-547.325	251.642	-0.030	0.052
-546.310	800.000	-0.044	-0.149
-545.296	-200.000	-0.008	0.257
-544.281	188.659	0.160	0.240
-543.266	212.857	-0.071	0.113
-542.252	-36.978	0.220	0.118
-541.237	800.000	-0.088	0.292
-540.223	-77.788	0.310	0.108
-539.208	800.000	-0.064	-0.269
-538.193	-200.000	-0.019	-0.121
-537.179	143.249	-0.179	-0.239
-536.164	-200.000	-0.038	0.447
-535.150	-200.000	-0.002	0.242
-534.135	-2.895	0.403	-0.282
-533.121	90.099	0.172	-0.193
-532.106	15.265	0.379	-0.298
-531.091	-109.048	-0.283	0.061
-530.077	-116.322	-0.418	0.078
-529.062	178.813	0.125	0.183
-528.048	-26.192	0.168	-0.099
-527.033	-58.072	-0.341	0.149
-526.018	147.088	0.227	0.307
-525.004	-159.038	0.164	-0.009
-523.989	-200.000	-0.021	-0.203
-522.975	111.420	0.147	0.178
-521.960	-106.937	0.120	0.027
-520.945	261.654	0.070	0.122
-519.931	-110.463	-0.328	-0.068
-518.916	669.343	-0.068	-0.177
-517.902	-200.000	-0.041	0.184
-516.887	527.406	0.103	0.244
-515.872	-114.967	-0.114	0.022
-514.858	-200.000	-0.010	-0.205
-513.843	-60.135	0.080	-0.034
-512.829	470.693	0.026	0.059
-511.814	-43.193	0.105	-0.053
-510.799	38.455	0.209	-0.187
-509.785	31.905	0.323	0.279
-508.770	5.295	-0.337	0.249
-507.756	290.495	-0.028	-0.051
-506.741	29.705	0.126	0.107
-505.726	149.080	0.186	-0.253
-504.712	-84.374	-0.219	-0.070
-503.697	409.163	0.018	0.039
-502.683	-200.000	-0.009	0.058
-501.668	118.941	-0.133	0.165
-500.653	-70.362	0.126	0.048
-499.639	-11.823	0.282	-0.185
-498.624	143.151	-0.337	0.450
-497.610	287.134	0.053	0.095
-496.595	729.013	-0.065	-0.175
-495.581	185.508	0.104	0.154
-494.566	123.407	-0.208	0.262
-493.551	425.108	-0.053	-0.114
-492.537	-121.862	-0.077	0.013
-491.522	-68.649	0.228	-0.088
-490.508	-56.217	-0.163	-0.073
-489.493	73.076	0.166	0.174
-488.478	-121.149	-0.141	-0.024
-487.464	-200.000	0.023	-0.121
-486.449	45.920	-0.148	-0.137
-485.435	-118.091	-0.380	-0.068
-484.420	800.000	0.038	-0.149
-483.405	10.613	-0.119	0.091
-482.391	-115.691	0.460	0.086
-481.376	536.770	-0.043	0.102
-480.362	800.000	0.046	0.147
-479.347	-200.000	-0.004	-0.091
-478.332	-64.726	-0.276	0.112
-477.318	-33.185	-0.367	0.203
-476.303	365.459	0.057	0.116
-475.289	-37.149	-0.188	0.101
-474.274	-55.211	0.145	-0.065
-473.259	224.869	-0.066	-0.107
-472.245	-200.000	-0.047	0.225
-471.230	8.967	0.030	-0.022
-470.216	145.570	0.189	-0.254
-469.201	6.332	-0.225	0.167
-468.186	64.101	-0.198	0.200
-467.172	-200.000	-0.026	0.233
-466.157	550.028	-0.039	0.093
-465.143	-200.000	-0.043	-0.381
-464.128	-200.000	0.006	0.103
-463.113	208.648	-0.164	-0.257
-462.099	-8.060	0.093	-0.063
-461.084	800.000	-0.012	0.049
-460.070	397.018	0.094	0.197
-459.055	397.242	0.093	-0.195
-458.040	-200.000	0.002	-0.208
-457.026	69.083	0.045	0.046
-456.011	-59.851	-0.034	0.015
-454.997	-200.000	-0.058	0.442
-453.982	-33.924	0.301	-0.166
-452.968	-83.458	0.154	-0.049
-451.953	-200.000	-0.005	0.076
-450.938	13.966	0.299	-0.232
-449.924	-161.021	-0.339	-0.018
-448.909	-67.792	0.027	0.011
-447.895	-200.000	-0.026	0.137
-446.880	800.000	0.028	0.110
-445.865	-116.851	0.151	-0.028
-444.851	-48.129	0.246	0.119
-443.836	-200.000	0.029	-0.142
-442.822	-200.000	-0.018	-0.324
-441.807	49.265	0.086	-0.080
-440.792	-10.150	0.143	0.095
-439.778	-0.037	0.143	0.102
-438.763	101.759	0.093	0.108
-437.749	132.443	0.101	-0.130
-436.734	504.152	-0.003	0.007
-435.719	20.766	0.286	-0.231
-434.705	382.672	-0.153	-0.314
-433.690	30.765	0.242	-0.207
-432.676	800.000	-0.038	-0.150
-431.661	-25.371	-0.078	0.046
-430.646	39.556	-0.283	0.253
-429.632	-200.000	-0.039	0.453
-428.617	82.716	-0.062	0.067
-427.603	-38.646	-0.109	0.057
-426.588	113.327	0.022	0.027
-425.573	-100.729	-0.080	0.020
-424.559	-187.551	-0.114	0.002
-423.544	67.890	0.105	-0.108
-422.530	267.459	0.122	-0.214
-421.515	264.258	0.139	-0.242
-420.500	270.046	-0.052	-0.091
-419.486	43.334	0.189	-0.173
-418.471	134.569	0.019	-0.024
-417.457	800.000	0.078	-0.292
-416.442	73.211	-0.214	-0.223
-415.428	19.986	0.088	0.071
-414.413	-121.050	-0.299	-0.050
-413.398	-200.000	0.054	0.241
-412.384	-150.266	-0.094	-0.007
-411.369	-141.822	-0.128	0.013
-410.355	728.139	-0.046	0.122
-409.340	327.818	0.101	-0.193
-408.325	281.688	0.034	0.060
-407.311	285.009	0.159	0.285
-406.296	161.313	0.221	0.308
-405.282	-7.481	-0.152	0.103
-404.267	562.936	-0.121	0.292
-403.252	38.952	0.169	-0.150
-402.238	152.720	-0.153	-0.209
-401.223	800.000	0.066	-0.204
-400.209	211.040	-0.178	0.279
-399.194	-25.871	-0.038	0.022
-398.179	-108.775	-0.259	-0.055
-397.165	800.000	0.065	0.187
-396.150	312.493	-0.141	0.265
-395.136	70.685	-0.158	-0.163
-394.121	-99.773	-0.121	-0.030
-393.106	30.975	-0.274	0.234
-392.092	4.186	-0.083	0.061
-391.077	432.608	0.099	-0.215
-390.063	-200.000	-0.029	0.155
-389.048	245.688	0.183	0.308
-388.033	-83.105	-0.186	0.060
-387.019	-200.000	-0.020	0.122
-386.004	3.330	0.243	0.176
-384.990	-48.894	0.211	-0.101
-383.975	-29.759	-0.177	0.101
-382.960	47.837	-0.065	-0.061
-381.946	800.000	0.072	-0.252
-380.931	370.541	-0.110	-0.222
-379.917	173.890	-0.149	-0.215
-378.902	-2.080	0.212	0.149
-377.888	-87.190	0.279	-0.085
-376.873	-200.000	0.015	-0.295
-375.858	69.094	0.092	0.094
-374.844	484.060	0.141	0.321
-373.829	-81.410	-0.243	0.080
-372.815	-178.371	-0.371	0.009
-371.800	800.000	-0.060	-0.202
-370.785	-96.395	-0.247	-0.065
-369.771	173.349	0.114	0.164
-368.756	18.566	0.255	-0.203
-367.742	159.728	-0.030	-0.042
-366.727	297.073	-0.070	0.128
-365.712	-200.000	0.003	-0.113
-364.698	-200.000	0.016	0.219
-363.683	-38.431	0.262	0.138
-362.669	34.368	-0.171	0.148
-361.654	48.067	-0.032	-0.030
-360.639	-24.326	0.134	-0.080
-359.625	290.495	-0.129	-0.234
-358.610	-123.358	-0.229	0.036
-357.596	800.000	0.105	0.393
-356.581	-200.000	0.042	0.311
-355.566	289.651	-0.016	0.029
-354.552	301.032	0.144	-0.266
-353.537	-87.990	0.165	0.049
-352.523	188.334	0.277	-0.413
-351.508	800.000	-0.035	-0.107
-350.493	242.174	0.112	0.187
-349.479	-200.000	0.071	0.337
-348.464	-121.925	0.108	-0.018
-347.450	-168.042	0.125	-0.005
-346.435	-80.599	0.206	0.068
-345.420	-104.748	0.219	-0.050
-344.406	12.147	0.037	-0.028
-343.391	-46.497	-0.158	-0.077
-342.377	-1.779	0.080	0.056
-341.362	230.392	0.173	0.282
-340.348	69.027	-0.154	0.158
-339.333	216.629	-0.155	-0.246
-338.318	-56.555	-0.109	-0.048
-337.304	94.361	0.131	0.148
-336.289	-102.620	-0.127	0.030
-335.275	-0.452	-0.163	0.115
-334.260	281.952	-0.069	0.123
-333.245	-95.628	0.354	0.094
-332.231	34.705	-0.214	0.186
-331.216	-200.000	-0.041	-0.291
-330.202	-49.673	0.281	0.133
-329.187	-17.179	-0.219	0.137
-328.172	-88.100	0.169	-0.051
-327.158	49.337	0.152	0.143
-326.143	-72.934	-0.252	0.092
-325.129	692.334	-0.077	0.202
-324.114	20.617	0.136	-0.110
-323.099	164.097	0.118	0.166
-322.085	-65.451	-0.275	0.110
-321.070	183.490	0.119	-0.174
-320.056	97.983	-0.133	-0.152
-319.041	158.146	-0.157	-0.216
-318.026	259.464	0.099	0.171
-317.012	-60.410	-0.155	-0.066
-315.997	375.161	-0.023	-0.047
-314.983	363.431	0.132	-0.263
-313.968	-156.177	-0.024	0.002
-312.953	-200.000	-0.036	-0.179
-311.939	93.633	0.214	0.241
-310.924	-61.607	-0.182	0.076
-309.910	-197.547	-0.164	-0.001
-308.895	336.422	0.160	0.308
-307.880	172.554	0.242	-0.347
-306.866	-200.000	-0.045	0.333
-305.851	-145.374	0.149	-0.013
-304.837	669.585	-0.077	-0.199
-303.822	87.372	-0.089	0.098
-302.807	640.307	0.023	-0.058
-301.793	800.000	-0.069	-0.195
-300.778	-97.754	0.124	-0.032
-299.764	293.056	0.149	0.271
-298.749	712.259	0.024	-0.064
-297.735	-44.038	0.106	-0.053
-296.720	33.273	-0.278	0.240
-295.705	147.306	0.103	0.137
-294.691	235.836	0.141	0.231
-293.676	-200.000	-0.031	-0.199
-292.662	-182.303	-0.127	-0.002
-291.647	-51.089	0.288	0.134
-290.632	800.000	-0.125	-0.345
-289.618	800.000	-0.049	-0.204
-288.603	416.010	-0.117	0.248
-287.589	97.325	-0.134	0.153
-286.574	75.503	0.044	0.046
-285.559	-200.000	0.011	0.071
-284.545	-159.351	-0.261	-0.015
-283.530	-197.126	0.205	-0.001
-282.516	151.805	-0.313	0.423
-281.501	115.145	0.087	0.106
-280.486	-76.029	0.130	0.046
-279.472	-200.000	0.039	0.497
-278.457	-37.450	0.431	-0.229
-277.443	800.000	-0.074	0.255
-276.428	87.485	0.139	-0.153
-275.413	-29.502	-0.318	-0.180
-274.399	-123.266	-0.255	-0.040
-273.384	106.745	-0.278	-0.328
-272.370	800.000	0.109	0.333
-271.355	-200.000	-0.001	0.094
-270.340	-118.465	-0.312	0.055
-269.326	-200.000	-0.032	-0.273
-268.311	-51.797	0.170	0.079
-267.297	141.095	-0.128	-0.169
-266.282	-200.000	-0.027	-0.268
-265.267	78.748	-0.042	0.044
-264.253	800.000	-0.065	0.193
-263.238	34.789	-0.090	-0.078
-262.224	-25.875	-0.159	0.093
-261.209	125.544	0.155	0.195
-260.195	392.006	0.033	0.068
-259.180	-8.621	-0.031	-0.020
-258.165	530.462	-0.076	-0.179
-257.151	-158.100	-0.048	-0.003
-256.136	58.761	0.089	-0.087
-255.122	-41.987	0.134	0.068
-254.107	47.504	-0.168	0.155
-253.092	-113.885	-0.241	-0.046
-252.078	-57.733	0.346	0.150
-251.063	-20.060	-0.065	0.040
-250.049	9.341	0.151	0.114
-249.034	-9.610	-0.411	0.272
-248.019	379.013	-0.202	0.411
-247.005	-158.312	-0.267	-0.015
-245.990	-124.744	0.272	-0.042
-244.976	800.000	-0.097	-0.327
-243.961	304.602	0.085	-0.156
-242.946	-200.000	-0.004	0.029
-241.932	-53.666	-0.272	0.123
-240.917	1.708	-0.044	-0.032
-239.903	-67.965	0.176	-0.068
-238.888	148.705	0.137	-0.184
-237.873	-56.928	0.254	-0.111
-236.859	152.197	-0.104	0.141
-235.844	281.038	0.054	-0.097
-234.830	40.767	0.072	0.064
-233.815	-152.960	-0.085	0.006
-232.800	314.424	-0.055	-0.102
-231.786	-112.948	-0.321	-0.063
-230.771	28.604	0.107	-0.090
-229.757	-200.000	0.012	-0.272
-228.742	3.058	0.066	0.048
-227.727	-68.606	0.415	0.160
-226.713	2.246	0.189	0.136
-225.698	-32.382	-0.211	0.117
-224.684	-120.172	0.269	0.046
-223.669	77.638	0.127	0.134
-222.655	302.387	0.170	0.313
-221.640	-63.047	-0.161	0.066
-220.625	181.237	-0.129	0.187
-219.611	-21.718	-0.214	-0.129
-218.596	-200.000	0.008	0.141
-217.582	-200.000	-0.050	-0.342
-216.567	337.828	-0.096	-0.185
-215.552	-123.349	-0.159	-0.025
-214.538	151.459	-0.229	0.310
-213.523	477.491	-0.119	-0.267
-212.509	-10.921	-0.171	-0.112
-211.494	-200.000	0.001	0.348
-210.479	-113.513	-0.225	-0.044
-209.465	-129.195	0.074	0.010
-208.450	-170.117	0.400	-0.014
-207.436	-21.294	-0.150	0.091
-206.421	7.331	0.331	-0.245
-205.406	-166.285	-0.132	0.006
-204.392	-200.000	0.021	-0.098
-203.377	800.000	-0.056	0.157
-202.363	-200.000	-0.008	-0.065
-201.348	-24.843	0.188	0.111
-200.333	-97.326	0.214	-0.055
-199.319	-200.000	-0.037	-0.230
-198.304	66.040	0.058	0.059
-197.290	-86.909	0.228	-0.069
-196.275	-200.000	0.040	-0.289
-195.260	-12.041	0.148	0.096
-194.246	-90.044	-0.105	0.030
-193.231	-3.839	-0.116	-0.080
-192.217	514.999	0.054	-0.125
-191.202	800.000	0.069	0.297
-190.187	800.000	-0.137	0.443
-189.173	-200.000	-0.013	-0.113
-188.158	71.581	-0.094	-0.097
-187.144	-78.534	-0.074	0.025
-186.129	800.000	0.053	-0.168
-185.114	-84.242	0.257	0.080
-184.100	171.536	-0.124	-0.176
-183.085	-98.558	0.344	-0.087
-182.071	-200.000	0.004	0.245
-181.056	800.000	0.013	0.049
-180.042	-200.000	0.006	0.107
-179.027	-47.854	0.319	-0.153
-178.012	14.052	0.176	-0.136
-176.998	-184.692	-0.123	0.002
-175.983	-200.000	-0.013	-0.158
-174.969	800.000	-0.034	-0.135
-173.954	74.058	0.177	0.184
-172.939	141.945	0.124	-0.163
-171.925	-31.587	-0.183	-0.102
-170.910	-200.000	0.007	-0.033
-169.896	96.422	0.084	-0.095
-168.881	52.059	0.130	0.123
-167.866	717.163	-0.096	-0.253
-166.852	-116.810	-0.301	0.055
-165.837	-166.709	0.104	-0.004
-164.823	238.936	-0.046	-0.076
-163.808	-17.925	0.281	-0.174
-162.793	-46.031	0.037	0.018
-161.779	-134.849	0.342	-0.041
-160.764	-200.000	0.033	-0.167
-159.750	305.224	-0.072	0.133
-158.735	-28.699	0.185	0.106
-157.720	-91.042	-0.077	0.022
-156.706	-200.000	0.003	-0.040
-155.691	-23.161	-0.239	0.142
-154.677	-107.767	0.008	0.002
-153.662	47.213	-0.274	-0.253
-152.647	-58.740	0.163	-0.070
-151.633	800.000	-0.054	0.173
-150.618	-200.000	0.057	0.359
-149.604	240.882	0.104	0.172
-148.589	194.378	-0.087	-0.130
-147.574	32.533	-0.068	0.058
-146.560	167.544	0.068	0.096
-145.545	800.000	0.103	0.386
-144.531	-173.082	-0.209	-0.006
-143.516	-153.080	0.049	-0.003
-142.502	-41.780	-0.177	0.090
-141.487	-200.000	0.006	-0.243
-140.472	-159.017	-0.130	0.007
-139.458	-93.197	0.127	-0.035
-138.443	31.412	-0.090	-0.076
-137.429	-200.000	-0.028	0.141
-136.414	413.306	-0.040	0.084
-135.399	-200.000	0.047	0.255
-134.385	-200.000	-0.056	-0.251
-133.370	-200.000	0.038	0.174
-132.356	-200.000	0.002	-0.229
-131.341	-200.000	-0.006	0.124
-130.326	-200.000	0.010	-0.047
-129.312	162.624	0.238	0.330
-128.297	-0.486	0.354	-0.248
-127.283	15.163	-0.024	0.019
-126.268	-146.647	0.305	-0.026
-125.253	135.324	0.059	0.076
-124.239	-70.429	0.257	-0.096
-123.224	15.750	-0.214	-0.166
-122.210	-152.864	-0.404	0.028
-121.195	-117.379	-0.071	0.013
-120.180	-155.243	0.303	0.019
-119.166	756.370	0.079	-0.210
-118.151	800.000	0.014	0.041
-117.137	125.494	-0.155	0.194
-116.122	80.695	0.027	0.029
-115.107	508.110	0.047	0.108
-114.093	498.683	0.047	0.106
-113.078	-200.000	0.057	-0.283
-112.064	-53.690	0.143	-0.065
-111.049	15.219	0.238	0.184
-110.034	-200.000	-0.099	0.446
-109.020	66.407	0.343	0.344
-108.005	-48.802	0.200	0.095
-106.991	-200.000	-0.010	0.365
-105.976	-175.519	0.162	0.004
-104.962	-128.942	-0.020	-0.003
-103.947	264.682	-0.124	0.214
-102.932	-200.000	-0.016	0.284
-101.918	800.000	0.059	-0.225
-100.903	12.287	-0.254	0.193
-99.889	50.366	-0.098	-0.092
-98.874	-124.817	-0.077	0.012
-97.859	-133.889	0.407	0.050
-96.845	286.592	0.090	0.160
-95.830	-7.943	-0.221	0.147
-94.816	-200.000	0.087	-0.491
-93.801	473.093	0.054	-0.119
-92.786	800.000	-0.012	0.044
-91.772	106.654	0.098	0.115
-90.757	-92.391	-0.109	-0.030
-89.743	-200.000	-0.011	0.251
-88.728	727.425	0.044	-0.115
-87.713	-5.850	-0.110	0.074
-86.699	-49.196	0.111	0.052
-85.684	270.825	-0.050	-0.087
-84.670	60.255	0.236	0.230
-83.655	45.768	-0.350	-0.319
-82.640	93.507	0.142	0.158
-81.626	76.425	0.201	0.210
-80.611	117.951	0.221	0.269
-79.597	800.000	0.065	-0.202
-78.582	619.702	0.137	-0.339
-77.567	-200.000	0.003	0.058
-76.553	-53.550	0.326	-0.147
-75.538	-167.455	0.354	0.014
-74.524	-148.192	-0.061	0.005
-73.509	323.532	-0.136	0.255
-72.494	149.788	-0.251	-0.336
-71.480	-77.005	-0.047	0.016
-70.465	-136.843	0.209	-0.024
-69.451	800.000	0.038	-0.111
-68.436	800.000	0.096	-0.368
-67.422	210.224	0.192	-0.296
-66.407	-79.958	0.307	-0.101
-65.392	281.797	-0.102	0.181
-64.378	-200.000	-0.006	-0.295
-63.363	-66.687	0.141	-0.055
-62.349	68.832	-0.147	0.148
-61.334	-29.072	-1.121	-0.634
-60.319	-56.351	0.456	0.199
-59.305	-200.000	-0.115	-1.078
-58.290	274.239	0.447	0.780
-57.276	383.076	0.725	1.468
-56.261	-200.000	95.382	572.885
-55.246	645.730	1374.527	3456.808
-54.232	199.256	2544.757	3841.448
-53.217	119.775	2140.799	2612.943
-52.203	44.535	1604.972	1452.469
-51.188	36.258	1343.664	1166.181
-50.173	32.949	1301.801	1110.383
-49.159	55.041	1348.011	1282.321
-48.144	57.027	1365.325	1310.606
-47.130	36.332	1324.421	1149.736
-46.115	32.793	1307.538	1114.178
-45.100	32.699	1302.049	1108.905
-44.086	32.539	1299.868	1106.061
-43.071	32.570	1297.602	1104.270
-42.057	32.509	1295.869	1102.399
-41.042	32.609	1293.305	1100.756
-40.027	32.686	1292.110	1100.143
-39.013	32.663	1290.461	1098.564
-37.998	32.604	1288.676	1096.658
-36.984	32.661	1286.632	1095.206
-35.969	32.707	1285.346	1094.335
-34.954	32.797	1283.397	1093.150
-33.940	32.818	1281.773	1091.851
-32.925	32.783	1280.724	1090.709
-31.911	32.707	1279.335	1089.045
-30.896	32.787	1277.520	1087.919
-29.881	32.783	1276.438	1086.927
-28.867	32.808	1275.088	1085.878
-27.852	32.898	1273.409	1084.924
-26.838	32.772	1272.499	1083.385
-25.823	32.836	1270.867	1082.315
-24.809	32.790	1269.374	1080.736
-23.794	32.761	1268.390	1079.693
-22.779	32.694	1267.121	1078.184
-21.765	32.933	1265.181	1077.855
-20.750	32.790	1264.055	1076.041
-19.736	32.713	1263.603	1075.175
-18.721	32.632	1262.159	1073.438
-17.706	32.604	1260.906	1072.173
-16.692	32.665	1259.663	1071.418
-15.677	32.552	1258.931	1070.113
-14.663	32.597	1257.494	1069.102
-13.648	32.521	1256.689	1067.947
-12.633	32.502	1255.880	1067.107
-11.619	32.600	1254.646	1066.570
-10.604	32.511	1254.035	1065.507
-9.590	32.678	1252.840	1065.396
-8.575	32.640	1251.649	1064.123
-7.560	32.545	1251.237	1063.193
-6.546	32.608	1250.197	1062.625
-5.531	32.634	1249.280	1061.950
-4.517	32.710	1248.143	1061.368
-3.502	32.569	1248.238	1060.611
-2.487	32.746	1246.621	1060.190
-1.473	32.460	1242.749	1055.256
-0.458	31.259	1227.189	1035.346
0.556	26.769	1209.476	996.716
1.571	23.174	1214.656	981.002
2.586	22.242	1229.324	987.531
3.600	21.503	1218.656	974.761
4.615	16.498	1147.871	891.732
5.629	8.400	1073.663	793.907
6.644	4.901	1053.579	761.904
7.659	4.708	1051.389	759.307
8.673	4.687	1050.470	758.475
9.688	4.564	1049.158	756.863
10.702	4.849	1047.164	756.741
11.717	9.382	1053.598	783.441
12.731	16.661	1063.646	826.511
13.746	19.333	1066.573	841.777
14.761	18.392	1064.516	835.493
15.775	17.215	1062.786	828.322
16.790	16.292	1060.426	821.921
17.804	15.594	1058.798	817.190
18.819	15.219	1058.158	814.805
19.834	14.968	1056.794	812.464
20.848	14.820	1056.155	811.182
21.863	14.526	1055.146	808.908
22.877	14.291	1054.950	807.548
23.892	14.358	1053.953	807.037
24.907	14.340	1053.087	806.215
25.921	14.412	1052.179	805.798
26.936	14.447	1050.792	804.832
27.950	14.588	1049.152	804.186
28.965	14.544	1048.175	803.153
29.980	14.602	1046.634	802.179
30.994	14.655	1045.624	801.590
32.009	14.666	1044.730	800.884
33.023	14.672	1043.267	799.720
34.038	14.673	1042.351	798.955
35.053	14.520	1041.514	797.510
36.067	14.597	1040.465	797.006
37.082	14.522	1040.015	796.228
38.096	14.742	1038.940	796.387
39.111	14.730	1038.317	795.779
40.126	14.587	1037.090	794.088
41.140	14.367	1035.907	792.069
42.155	14.291	1034.353	790.448
43.169	14.154	1033.524	789.097
44.184	14.289	1032.299	788.727
45.199	14.292	1031.180	787.818
46.213	14.364	1030.579	787.629
47.228	14.498	1029.432	787.317
48.242	14.500	1028.341	786.425
49.257	14.458	1027.115	785.218
50.271	14.527	1026.465	784.975
51.286	14.525	1025.831	784.412
52.301	14.623	1024.463	783.755
53.315	14.502	1023.481	782.369
54.330	14.369	1022.722	781.096
55.344	14.577	1021.497	781.065
56.359	14.421	1020.423	779.445
57.374	14.311	1020.296	778.764
58.388	14.343	1018.844	777.736
59.403	14.278	1018.240	776.904
60.417	14.315	1017.288	776.282
61.432	14.286	1016.464	775.450
62.447	14.235	1015.718	774.574
63.461	14.166	1015.223	773.807
64.476	14.197	1014.465	773.306
65.490	14.093	1013.749	772.207
66.505	14.277	1012.206	771.816
67.520	14.272	1011.866	771.467
68.534	14.228	1011.368	770.815
69.549	14.113	1010.702	769.705
70.563	14.201	1009.774	769.337
71.578	14.120	1009.052	768.346
72.593	14.180	1007.910	767.687
73.607	14.197	1007.132	767.106
74.622	14.202	1007.009	766.967
75.636	14.231	1005.808	766.116
76.651	14.353	1004.779	765.827
77.666	14.247	1004.936	765.391
78.680	14.110	1004.385	764.272
79.695	14.245	1003.466	764.125
80.709	14.376	1003.047	764.341
81.724	14.259	1002.521	763.335
82.739	14.395	1001.685	763.252
83.753	14.471	1001.480	763.378
84.768	14.686	1000.168	763.292
85.782	14.663	998.935	762.179
86.797	14.680	998.232	761.654
87.812	14.652	997.034	760.543
88.826	14.470	996.293	759.083
89.841	14.516	995.595	758.693
90.855	14.682	994.915	758.863
91.870	14.676	993.811	757.926
92.884	14.691	992.915	757.245
93.899	14.683	992.359	756.715
94.914	14.680	991.677	756.118
95.928	14.578	991.442	755.409
96.943	14.762	989.720	754.863
97.957	14.673	988.725	753.632
98.972	14.625	988.276	753.008
99.987	14.738	987.162	752.603
101.001	14.693	986.274	751.658
102.016	14.773	985.389	751.277
103.030	14.591	984.752	749.905
104.045	14.741	984.168	750.068
105.060	14.565	983.200	748.473
106.074	14.592	982.067	747.668
107.089	14.407	981.275	746.169
108.103	14.357	980.379	745.199
109.118	14.257	979.074	743.691
110.133	14.393	978.238	743.600
111.147	14.208	977.848	742.411
112.162	14.387	976.740	742.303
113.176	14.368	976.295	741.812
114.191	14.486	975.653	741.783
115.206	14.336	974.995	740.551
116.220	14.369	974.023	739.895
117.235	14.458	972.427	739.015
118.249	14.407	971.972	738.377
119.264	14.401	971.398	737.846
120.279	14.421	970.366	737.084
121.293	14.321	969.642	736.030
122.308	14.270	968.848	735.137
123.322	14.332	967.848	734.586
124.337	14.306	967.185	733.901
125.352	14.232	966.328	732.862
126.366	14.179	965.367	731.835
127.381	14.241	964.513	731.396
128.395	14.333	963.185	730.729
129.410	14.231	962.502	729.698
130.424	14.386	961.344	729.434
131.439	14.509	960.860	729.542
132.454	14.428	960.040	728.500
133.468	14.506	959.330	728.235
134.483	14.515	958.436	727.531
135.497	14.525	957.544	726.835
136.512	14.524	956.585	726.039
137.527	14.526	956.134	725.642
138.541	14.574	955.160	725.046
139.556	14.579	954.775	724.713
140.570	14.637	954.208	724.469
141.585	14.792	952.960	724.127
142.600	14.694	952.551	723.327
143.614	14.833	951.222	722.858
144.629	14.800	950.809	722.336
145.643	14.744	950.150	721.531
146.658	14.574	948.741	719.664
147.673	14.610	947.563	718.863
148.687	14.659	946.849	718.465
149.702	14.604	946.017	717.536
150.716	14.449	945.453	716.378
151.731	14.583	944.325	716.035
152.746	14.535	944.083	715.582
153.760	14.568	943.282	715.052
154.775	14.646	942.793	714.955
155.789	14.704	942.075	714.592
156.804	14.739	941.178	714.000
157.819	14.705	940.444	713.236
158.833	14.762	940.353	713.346
159.848	14.838	939.158	712.699
160.862	14.730	938.230	711.473
161.877	14.592	937.511	710.276
162.892	14.633	936.282	709.457
163.906	14.568	935.693	708.671
164.921	14.526	934.649	707.640
165.935	14.733	933.664	707.711
166.950	14.757	933.043	707.280
167.964	14.646	932.237	706.136
168.979	14.599	931.451	705.276
169.994	14.685	930.459	704.829
171.008	14.661	929.882	704.227
172.023	14.870	929.300	704.608
173.037	14.903	928.212	703.858
174.052	14.711	927.806	702.678
175.067	14.734	926.817	701.963
176.081	14.683	926.031	701.093
177.096	14.637	925.849	700.699
178.110	14.779	925.219	700.755
179.125	14.687	924.660	699.887
180.140	14.931	923.752	700.159
181.154	14.805	923.379	699.288
182.169	14.837	923.252	699.262
183.183	14.930	922.547	699.055
184.198	15.091	921.117	698.579
185.213	15.006	920.748	697.887
186.227	15.131	920.280	697.990
187.242	15.099	919.919	697.519
188.256	15.196	919.253	697.359
189.271	15.014	918.537	695.996
190.286	14.858	917.853	694.769
191.300	14.719	916.805	693.336
192.315	14.750	915.823	692.661
193.329	14.746	915.613	692.423
194.344	14.710	915.149	691.862
195.359	14.946	914.219	692.076
196.373	14.954	914.179	692.017
197.388	15.170	913.848	692.599
198.402	15.258	912.745	692.065
199.417	15.384	912.209	692.117
200.432	15.256	912.145	691.479
201.446	15.412	911.299	691.421
202.461	15.385	910.946	690.977
203.475	15.327	910.278	690.171
204.490	15.150	910.004	689.175
205.504	15.235	908.338	688.202
206.519	15.274	908.018	688.057
207.534	15.163	907.412	687.084
208.548	15.139	906.808	686.465
209.563	15.243	905.860	686.115
210.577	15.411	905.122	686.182
211.592	15.477	904.663	686.040
212.607	15.472	904.042	685.490
213.621	15.484	903.038	684.718
214.636	15.383	902.221	683.624
215.650	15.414	901.993	683.519
216.665	15.372	901.320	682.778
217.680	15.460	900.437	682.405
218.694	15.647	899.904	682.703
219.709	15.521	899.477	681.804
220.723	15.523	898.640	681.119
221.738	15.522	897.949	680.531
222.753	15.546	896.994	679.843
223.767	15.628	896.651	679.855
224.782	15.646	896.293	679.594
225.796	15.697	895.567	679.193
226.811	15.684	895.136	678.753
227.826	15.444	894.928	677.565
228.840	15.508	893.322	676.546
229.855	15.642	892.567	676.456
230.869	15.656	891.969	675.997
231.884	15.475	891.525	674.873
232.899	15.339	890.987	673.861
233.913	15.345	890.329	673.329
234.928	15.386	889.270	672.631
235.942	15.441	888.560	672.255
236.957	15.443	888.245	671.964
237.972	15.398	887.504	671.165
238.986	15.584	886.731	671.265
240.001	15.476	886.127	670.318
241.015	15.456	885.669	669.833
242.030	15.527	885.253	669.740
243.045	15.657	884.320	669.494
244.059	15.585	884.326	669.154
245.074	15.685	883.522	668.881
246.088	15.632	882.666	667.966
247.103	15.749	882.172	667.998
248.117	15.834	881.735	667.945
249.132	15.996	881.242	668.153
250.147	15.970	880.658	667.548
251.161	16.130	879.696	667.396
252.176	16.171	879.216	667.132
253.190	16.212	878.553	666.731
254.205	16.224	878.009	666.309
255.220	16.192	877.336	665.613
256.234	16.202	876.844	665.219
257.249	16.178	876.254	664.618
258.263	16.152	875.435	663.837
259.278	16.290	874.577	663.667
260.293	16.293	874.270	663.390
261.307	16.391	873.742	663.316
262.322	16.333	873.282	662.681
263.336	16.392	872.165	662.003
264.351	16.301	871.669	661.212
265.366	16.358	870.999	660.869
266.380	16.360	870.635	660.543
267.395	16.363	869.638	659.741
268.409	16.285	868.780	658.727
269.424	16.197	868.349	658.000
270.439	16.242	867.462	657.444
271.453	16.151	867.064	656.727
272.468	16.349	866.034	656.662
273.482	16.240	865.454	655.740
274.497	16.377	864.959	655.838
275.512	16.179	864.813	654.902
276.526	16.275	864.303	654.831
277.541	16.400	863.827	654.894
278.555	16.377	863.219	654.286
279.570	16.491	862.330	653.996
280.585	16.407	861.874	653.267
281.599	16.498	860.969	652.875
282.614	16.469	860.321	652.212
283.628	16.308	859.965	651.264
284.643	16.439	859.213	651.145
285.657	16.455	858.564	650.657
286.672	16.532	857.819	650.329
287.687	16.449	857.080	649.394
288.701	16.453	857.052	649.328
289.716	16.565	856.073	648.959
290.730	16.606	855.732	648.801
291.745	16.618	854.941	648.191
292.760	16.564	854.483	647.580
293.774	16.730	853.785	647.627
294.789	16.690	853.125	646.917
295.803	16.484	852.707	645.754
296.818	16.495	851.943	645.162
297.833	16.478	851.212	644.486
298.847	16.581	850.597	644.357
299.862	16.566	850.292	644.012
300.876	16.692	850.038	644.241
301.891	16.824	848.828	643.770
302.906	16.870	848.153	643.375
303.920	16.810	848.373	643.257
304.935	16.993	847.453	643.197
305.949	16.965	846.857	642.582
306.964	16.765	846.662	641.616
307.979	16.832	845.673	641.066
308.993	16.860	845.315	640.845
310.008	16.909	844.579	640.412
311.022	16.973	843.575	639.835
312.037	16.851	843.232	639.059
313.052	16.813	842.590	638.375
314.066	16.862	842.227	638.229
315.081	16.770	841.727	637.444
316.095	16.804	840.863	636.863
317.110	16.784	840.520	636.469
318.125	16.843	840.065	636.290
319.139	16.844	839.499	635.809
320.154	16.934	839.437	636.045
321.168	16.845	838.801	635.172
322.183	16.986	838.296	635.261
323.197	16.876	837.661	634.312
324.212	17.015	836.904	634.202
325.227	16.984	836.209	633.506
326.241	16.997	835.546	632.996
327.256	16.916	835.312	632.459
328.270	17.006	834.507	632.130
329.285	16.865	834.239	631.348
330.300	16.882	833.872	631.076
331.314	16.959	833.125	630.742
332.329	17.041	832.665	630.643
333.343	17.132	832.522	630.815
334.358	17.081	831.919	630.111
335.373	17.170	831.423	630.010
336.387	17.024	831.554	629.513
337.402	17.189	830.972	629.630
338.416	17.111	830.927	629.251
339.431	17.260	830.367	629.323
340.446	17.545	829.570	629.716
341.460	17.273	829.426	628.545
342.475	17.343	828.967	628.401
343.489	17.551	828.424	628.701
344.504	17.530	828.045	628.282
345.519	17.496	827.647	627.796
346.533	17.402	826.967	626.881
347.548	17.450	826.529	626.670
348.562	17.316	825.937	625.672
349.577	17.297	825.533	625.239
350.592	17.227	824.859	624.418
351.606	17.235	824.138	623.846
352.621	17.359	823.045	623.419
353.635	17.313	822.812	623.018
354.650	17.460	821.809	622.740
355.665	17.426	821.763	622.526
356.679	17.442	821.124	622.045
357.694	17.409	820.638	621.501
358.708	17.492	819.887	621.184
359.723	17.557	818.944	620.649
360.738	17.611	818.314	620.312
361.752	17.513	818.206	619.819
362.767	17.656	817.631	619.851
363.781	17.752	816.949	619.628
364.796	17.771	816.713	619.463
365.810	17.917	816.294	619.621
366.825	17.880	815.941	619.162
367.840	17.720	815.476	618.175
368.854	17.610	815.134	617.463
369.869	17.845	814.354	617.666
370.883	17.891	813.949	617.472
371.898	17.819	813.665	616.942
372.913	18.008	812.992	617.061
373.927	17.859	812.869	616.372
374.942	17.846	812.548	616.028
375.956	17.765	812.489	615.636
376.971	18.020	811.767	615.954
377.986	17.940	811.021	615.046
379.000	18.050	810.486	614.980
380.015	18.094	810.359	614.989
381.029	18.071	809.463	614.173
382.044	18.123	808.747	613.763
383.059	18.179	808.177	613.475
384.073	18.148	807.484	612.785
385.088	18.103	806.813	612.059
386.102	18.010	806.364	611.330
387.117	17.919	805.967	610.652
388.132	17.881	805.445	610.066
389.146	18.056	805.009	610.305
390.161	17.994	804.468	609.620
391.175	18.027	804.148	609.442
392.190	18.095	803.376	609.046
393.205	18.049	803.026	608.563
394.219	18.023	802.717	608.181
395.234	17.930	802.524	607.652
396.248	17.884	801.938	606.991
397.263	17.930	801.410	606.699
398.278	17.817	801.196	606.081
399.292	18.018	800.719	606.381
400.307	17.872	800.320	605.509
401.321	17.985	799.497	605.232
402.336	18.018	799.123	605.012
403.350	18.126	798.848	605.134
404.365	18.149	798.465	604.869
405.380	18.159	797.932	604.448
406.394	18.302	797.506	604.579
407.409	18.297	797.142	604.230
408.423	18.411	796.639	604.197
409.438	18.401	796.345	603.885
410.453	18.588	795.982	604.215
411.467	18.569	795.427	603.674
412.482	18.600	795.237	603.586
413.496	18.657	794.756	603.369
414.511	18.634	794.328	602.910
415.526	18.602	793.863	602.389
416.540	18.599	793.228	601.844
417.555	18.555	793.006	601.470
418.569	18.734	792.185	601.421
419.584	18.730	792.216	601.378
420.599	18.626	791.648	600.530
421.613	156.512	1370.740	1794.513
422.628	135.427	1455.130	1794.614
