DTS Sentinel unit serial number:	SN413079Multiplexer serial number:	ORYXHardware model number:	OX4-SRSoftware version number:	ORYX F/W v4.00 Oryx Data Collector v3.7.2.0data status	okinstallation	princeton_trtdifferential loss correction	single-endedforward channel	channel 1reverse channel	N/Adate	2019/09/19time	14:18:35forward acquisition time	60.00reverse acquisition time	0.00gamma	496.2192k internal	0.2322k external	0.2322temperature offset calibration	1.0018default loss term (dB/km)	0.3790temperature slope calibration	1.0000multiplexer offset coefficient	1.0000multiplexer slope coefficient	1.0000fibre end	0.00T internal ref (°C)	31.75T ext. ref 1 (°C)	1.04T ext. ref 2 (°C)	29.15length (m)	temperature (°C)	Stokes	anti-Stokes-747.200	-88.991	-0.340	-0.102
-746.185	800.000	-0.139	0.514
-745.171	26.228	-0.229	0.193
-744.156	201.032	-0.254	0.394
-743.142	220.296	0.257	0.416
-742.127	-66.096	-0.195	0.079
-741.112	-96.356	-0.193	0.052
-740.098	-132.645	0.172	-0.022
-739.083	105.463	0.109	0.130
-738.069	-148.404	-0.088	0.007
-737.054	-200.000	0.041	0.247
-736.039	92.299	-0.121	-0.137
-735.025	-200.000	0.054	-0.277
-734.010	-114.806	-0.312	-0.060
-732.996	-38.439	-0.217	0.116
-731.981	19.287	-0.223	0.181
-730.966	-84.505	0.203	0.065
-729.952	-81.353	-0.142	-0.047
-728.937	-49.192	-0.232	-0.112
-727.923	800.000	-0.112	0.357
-726.908	584.432	0.032	-0.081
-725.894	16.390	0.072	0.058
-724.879	-87.414	-0.331	-0.101
-723.864	-195.327	0.156	0.001
-722.850	7.151	-0.188	0.141
-721.835	476.640	0.086	-0.195
-720.821	-200.000	-0.009	-0.113
-719.806	-150.934	0.097	0.007
-718.791	800.000	-0.075	0.313
-717.777	-109.978	0.032	0.007
-716.762	-103.880	0.146	0.034
-715.748	-71.027	0.209	-0.080
-714.733	-200.000	0.001	-0.087
-713.718	-37.214	-0.278	0.150
-712.704	5.797	0.101	0.076
-711.689	538.510	0.069	-0.166
-710.675	79.376	0.079	-0.086
-709.660	-28.528	0.279	0.162
-708.645	-62.159	0.064	0.027
-707.631	49.514	0.230	-0.218
-706.616	131.708	-0.096	0.125
-705.602	-34.382	-0.214	-0.118
-704.587	226.230	0.145	-0.237
-703.572	-180.289	0.078	-0.002
-702.558	401.536	-0.142	-0.302
-701.543	55.461	0.237	-0.231
-700.529	104.472	0.136	0.162
-699.514	-96.742	-0.213	-0.056
-698.499	-145.200	0.260	0.024
-697.485	100.702	0.188	-0.221
-696.470	778.781	-0.102	0.281
-695.456	553.358	-0.036	-0.088
-694.441	18.359	-0.343	-0.276
-693.426	-42.230	-0.124	0.064
-692.412	800.000	-0.133	-0.428
-691.397	-74.535	0.276	0.100
-690.383	-81.555	-0.134	0.044
-689.368	135.672	0.166	0.218
-688.354	800.000	0.082	-0.259
-687.339	166.733	0.198	0.283
-686.324	800.000	-0.089	-0.261
-685.310	-84.394	0.281	0.090
-684.295	199.334	-0.103	-0.159
-683.281	-200.000	0.039	-0.203
-682.266	291.401	-0.109	-0.200
-681.251	328.022	-0.220	0.426
-680.237	225.239	0.066	0.107
-679.222	62.656	0.259	-0.261
-678.208	-131.730	0.136	0.018
-677.193	102.856	-0.086	-0.102
-676.178	5.895	-0.131	0.098
-675.164	-126.155	-0.211	-0.032
-674.149	-200.000	0.045	-0.343
-673.135	256.939	0.123	-0.213
-672.120	106.274	-0.032	0.038
-671.105	-76.323	-0.332	0.118
-670.091	-200.000	-0.019	-0.152
-669.076	-105.214	-0.132	-0.030
-668.062	-200.000	-0.022	0.347
-667.047	800.000	-0.070	0.197
-666.032	800.000	0.035	0.126
-665.018	189.446	-0.156	-0.235
-664.003	-22.446	-0.302	0.184
-662.989	4.805	0.154	-0.114
-661.974	34.244	0.105	-0.092
-660.959	-125.053	0.249	-0.039
-659.945	800.000	0.059	0.174
-658.930	-200.000	-0.046	0.363
-657.916	-7.275	0.075	-0.051
-656.901	-95.040	0.143	0.039
-655.886	-59.991	-0.197	0.085
-654.872	-200.000	-0.021	-0.164
-653.857	40.445	0.045	0.041
-652.843	-200.000	-0.064	-0.294
-651.828	-41.566	0.191	-0.099
-650.814	-146.193	-0.243	-0.022
-649.799	354.485	0.177	0.354
-648.784	-200.000	-0.002	0.157
-647.770	-200.000	-0.032	0.185
-646.755	106.746	-0.093	0.111
-645.741	23.293	0.233	-0.193
-644.726	82.264	0.169	-0.184
-643.711	716.424	-0.102	-0.272
-642.697	-200.000	-0.029	0.228
-641.682	78.281	0.223	-0.239
-640.668	-68.332	-0.209	0.082
-639.653	-200.000	-0.021	-0.153
-638.638	-106.244	0.235	0.053
-637.624	-108.449	0.307	-0.067
-636.609	-57.995	-0.159	-0.070
-635.595	-52.577	-0.353	-0.164
-634.580	-68.000	0.054	0.021
-633.565	157.771	0.085	0.118
-632.551	-83.835	-0.137	-0.044
-631.536	-65.604	-0.326	-0.131
-630.522	-200.000	0.041	-0.476
-629.507	22.207	-0.080	-0.065
-628.492	-169.240	0.227	0.008
-627.478	-92.950	-0.172	0.048
-626.463	-160.729	-0.272	0.015
-625.449	-163.247	-0.399	-0.019
-624.434	-43.950	-0.270	-0.136
-623.419	-63.777	-0.208	0.086
-622.405	-127.120	-0.298	0.044
-621.390	800.000	-0.082	-0.255
-620.376	691.752	0.039	0.103
-619.361	36.368	-0.188	0.167
-618.346	-30.528	-0.240	-0.137
-617.332	-49.260	-0.144	-0.069
-616.317	800.000	0.031	0.101
-615.303	178.532	0.118	-0.173
-614.288	731.266	0.068	-0.183
-613.273	32.571	-0.267	0.232
-612.259	-7.958	-0.221	0.150
-611.244	291.116	0.152	0.278
-610.230	44.650	0.197	-0.182
-609.215	16.847	-0.412	-0.328
-608.201	61.599	0.304	-0.304
-607.186	-186.592	-0.358	0.005
-606.171	-90.385	0.187	0.054
-605.157	-47.458	-0.053	-0.026
-604.142	-99.724	0.201	0.051
-603.128	-134.725	0.276	-0.034
-602.113	355.922	0.160	-0.320
-601.098	-36.148	0.454	-0.246
-600.084	-154.203	0.297	0.020
-599.069	-200.000	0.024	0.379
-598.055	236.989	0.137	0.228
-597.040	177.797	-0.260	0.380
-596.025	800.000	0.038	0.151
-595.011	492.728	0.064	0.148
-593.996	276.016	-0.215	0.384
-592.982	-72.330	-0.343	0.128
-591.967	526.264	0.046	0.109
-590.952	79.493	-0.237	0.256
-589.938	-200.000	0.005	0.029
-588.923	-100.134	0.168	0.042
-587.909	-200.000	-0.001	0.072
-586.894	44.506	-0.030	0.028
-585.879	-149.948	-0.112	-0.009
-584.865	-200.000	-0.045	0.380
-583.850	469.907	0.072	-0.163
-582.836	30.374	0.190	-0.163
-581.821	-73.368	-0.151	-0.055
-580.806	800.000	0.085	0.248
-579.792	-43.846	0.105	-0.053
-578.777	-116.563	-0.117	0.022
-577.763	10.592	0.126	0.096
-576.748	-74.210	-0.226	0.082
-575.733	88.179	0.103	-0.115
-574.719	-88.030	-0.163	0.049
-573.704	-200.000	0.191	-0.000
-572.690	800.000	0.019	0.067
-571.675	-161.762	-0.183	0.009
-570.661	172.707	0.132	-0.191
-569.646	173.929	-0.102	0.147
-568.631	284.393	-0.179	-0.323
-567.617	-200.000	-0.003	-0.299
-566.602	800.000	0.046	-0.152
-565.588	-87.019	-0.335	-0.103
-564.573	35.334	0.198	0.175
-563.558	-32.044	0.335	0.188
-562.544	-200.000	0.005	0.146
-561.529	-25.349	-0.193	0.115
-560.515	-91.211	-0.259	-0.075
-559.500	-20.249	0.317	-0.196
-558.485	-124.061	0.146	-0.023
-557.471	39.494	-0.149	0.134
-556.456	76.384	-0.159	-0.169
-555.442	190.315	0.206	-0.310
-554.427	-142.931	0.149	0.014
-553.412	-169.484	0.247	0.009
-552.398	622.387	0.052	-0.131
-551.383	121.170	-0.114	-0.142
-550.369	39.252	-0.092	0.083
-549.354	180.164	0.091	0.133
-548.339	634.322	-0.061	-0.156
-547.325	-200.000	0.046	0.327
-546.310	230.106	0.082	-0.135
-545.296	-73.600	-0.124	0.045
-544.281	379.436	0.055	0.114
-543.266	-200.000	-0.010	-0.097
-542.252	96.950	-0.333	-0.383
-541.237	-31.246	-0.277	-0.156
-540.223	-200.000	0.002	0.060
-539.208	-200.000	-0.001	-0.046
-538.193	-148.361	0.089	-0.007
-537.179	-200.000	0.031	0.357
-536.164	53.561	0.252	-0.243
-535.150	-16.701	0.083	-0.052
-534.135	103.922	-0.047	-0.055
-533.121	-103.804	-0.290	0.068
-532.106	-37.774	0.101	0.054
-531.091	-200.000	-0.030	-0.408
-530.077	-200.000	-0.005	-0.104
-529.062	800.000	-0.085	0.240
-528.048	21.752	-0.083	0.068
-527.033	-31.593	-0.245	0.138
-526.018	-200.000	-0.051	-0.272
-525.004	224.320	-0.107	0.173
-523.989	-200.000	0.020	0.324
-522.975	-115.525	-0.327	-0.062
-521.960	800.000	0.034	0.132
-520.945	-200.000	-0.092	0.000
-519.931	-200.000	-0.023	0.142
-518.916	-80.987	-0.375	0.124
-517.902	-21.951	-0.276	0.168
-516.887	54.779	0.263	0.255
-515.872	-160.725	0.303	0.016
-514.858	58.749	-0.308	-0.303
-513.843	-3.275	0.165	0.115
-512.829	272.296	0.127	-0.224
-511.814	800.000	-0.043	0.131
-510.799	34.284	-0.193	0.168
-509.785	517.574	-0.129	-0.301
-508.770	74.963	0.137	-0.144
-507.756	-43.241	0.147	-0.074
-506.741	-68.517	-0.386	0.150
-505.726	-76.785	0.066	-0.023
-504.712	-85.871	-0.243	0.075
-503.697	-200.000	0.020	0.120
-502.683	800.000	0.037	0.111
-501.668	-200.000	-0.034	-0.220
-500.653	-139.875	0.007	0.001
-499.639	-43.719	-0.130	0.065
-498.624	5.000	0.082	-0.060
-497.610	405.891	0.080	-0.169
-496.595	200.619	-0.132	0.204
-495.581	169.874	0.145	-0.208
-494.566	40.969	0.122	-0.110
-493.551	779.036	-0.079	-0.217
-492.537	-164.555	0.408	0.019
-491.522	-200.000	-0.013	-0.224
-490.508	536.629	-0.138	-0.328
-489.493	77.647	-0.252	-0.269
-488.478	11.874	-0.123	-0.095
-487.464	31.027	-0.118	-0.101
-486.449	-42.769	0.280	-0.143
-485.435	-200.000	0.015	-0.093
-484.420	800.000	-0.027	0.080
-483.405	215.923	-0.186	0.295
-482.391	-121.173	0.231	-0.039
-481.376	123.276	-0.111	0.140
-480.362	800.000	0.028	-0.116
-479.347	-88.998	0.150	-0.044
-478.332	105.295	0.086	0.101
-477.318	-200.000	-0.008	0.099
-476.303	38.441	-0.115	-0.103
-475.289	460.724	0.162	-0.361
-474.274	-120.401	0.165	0.028
-473.259	86.938	-0.209	0.231
-472.245	-54.495	0.159	0.072
-471.230	-21.886	0.264	-0.161
-470.216	259.854	-0.077	-0.133
-469.201	800.000	-0.066	0.187
-468.186	-200.000	-0.077	-0.416
-467.172	112.898	0.129	0.156
-466.157	-200.000	-0.300	0.000
-465.143	90.616	0.039	0.044
-464.128	-45.023	-0.124	-0.062
-463.113	-200.000	0.028	0.561
-462.099	567.047	-0.107	0.260
-461.084	-200.000	0.004	0.024
-460.070	-88.008	0.047	0.014
-459.055	-200.000	-0.002	-0.029
-458.040	83.046	-0.203	0.221
-457.026	-75.119	-0.361	-0.129
-456.011	433.535	-0.107	0.232
-454.997	151.654	-0.115	0.157
-453.982	13.568	-0.121	0.094
-452.968	800.000	-0.058	-0.181
-451.953	35.773	0.132	-0.116
-450.938	-61.504	-0.494	-0.207
-449.924	800.000	0.033	0.099
-448.909	117.686	0.208	-0.256
-447.895	-200.000	-0.012	0.158
-446.880	-183.172	-0.249	-0.004
-445.865	-200.000	-0.007	0.144
-444.851	-200.000	-0.060	0.378
-443.836	140.833	-0.164	0.216
-442.822	-131.406	-0.291	-0.038
-441.807	-71.857	0.417	0.155
-440.792	800.000	0.019	0.069
-439.778	494.653	0.060	0.138
-438.763	-55.419	0.029	-0.013
-437.749	-32.736	-0.307	0.171
-436.734	-53.706	0.207	0.094
-435.719	-100.160	-0.295	0.073
-434.705	-200.000	-0.009	0.142
-433.690	-25.992	-0.110	0.065
-432.676	800.000	-0.095	-0.290
-431.661	-38.545	-0.102	-0.054
-430.646	-39.229	-0.192	-0.101
-429.632	408.991	0.098	0.207
-428.617	207.724	0.160	0.249
-427.603	-67.511	0.204	-0.080
-426.588	291.201	-0.063	-0.114
-425.573	-24.855	0.421	-0.249
-424.559	469.374	-0.086	0.193
-423.544	-3.088	-0.107	0.075
-422.530	-200.000	-0.042	-0.326
-421.515	531.166	-0.146	-0.345
-420.500	-137.937	0.194	-0.022
-419.486	-200.000	-0.013	-0.074
-418.471	2.896	0.053	-0.039
-417.457	-10.580	-0.248	0.164
-416.442	-6.253	0.444	0.302
-415.428	28.542	0.088	0.074
-414.413	-83.058	-0.193	0.062
-413.398	-156.178	-0.128	-0.008
-412.384	-200.000	-0.002	0.117
-411.369	7.988	0.400	0.300
-410.355	-200.000	-0.046	0.300
-409.340	-19.466	0.097	0.060
-408.325	-200.000	0.038	-0.266
-407.311	-44.641	-0.171	-0.085
-406.296	-200.000	0.005	-0.168
-405.282	39.864	-0.022	0.020
-404.267	28.751	-0.129	-0.109
-403.252	800.000	0.018	0.049
-402.238	237.554	-0.007	-0.011
-401.223	524.927	0.084	0.197
-400.209	16.866	0.057	0.045
-399.194	-60.240	0.163	-0.069
-398.179	1.435	-0.076	-0.054
-397.165	-200.000	-0.027	0.318
-396.150	-40.348	-0.075	0.039
-395.136	800.000	0.070	-0.205
-394.121	-33.764	0.188	0.103
-393.106	-119.919	0.271	0.046
-392.092	530.116	-0.050	-0.118
-391.077	800.000	0.045	0.133
-390.063	76.705	-0.311	0.329
-389.048	5.149	0.135	-0.099
-388.033	-27.129	0.182	0.106
-387.019	-200.000	0.004	0.120
-386.004	49.700	-0.191	-0.179
-384.990	-125.630	0.327	0.049
-383.975	22.217	0.159	-0.129
-382.960	-200.000	-0.048	-0.445
-381.946	800.000	-0.086	-0.309
-380.931	59.454	0.079	0.078
-379.917	-200.000	0.001	-0.241
-378.902	-172.188	0.278	-0.009
-377.888	75.153	-0.193	0.203
-376.873	117.438	-0.153	-0.188
-375.858	0.366	-0.088	-0.062
-374.844	85.962	-0.216	-0.237
-373.829	-66.226	-0.194	-0.077
-372.815	95.235	0.100	0.113
-371.800	-200.000	0.008	-0.195
-370.785	-6.215	0.080	0.054
-369.771	123.007	0.092	0.115
-368.756	-200.000	-0.022	0.220
-367.742	-86.489	0.079	0.024
-366.727	-45.294	-0.149	0.074
-365.712	-200.000	0.030	-0.205
-364.698	295.694	0.098	-0.180
-363.683	229.401	-0.076	0.124
-362.669	714.861	-0.059	0.157
-361.654	20.951	-0.084	0.068
-360.639	-200.000	0.052	0.244
-359.625	800.000	-0.096	-0.295
-358.610	800.000	0.086	-0.302
-357.596	-48.162	0.170	-0.082
-356.581	22.519	-0.006	-0.005
-355.566	-200.000	0.063	0.278
-354.552	-113.884	0.343	-0.066
-353.537	33.472	-0.162	0.140
-352.523	-200.000	-0.027	0.291
-351.508	-34.557	-0.110	0.060
-350.493	682.569	-0.141	-0.366
-349.479	-200.000	-0.007	0.365
-348.464	-156.975	-0.270	0.016
-347.450	574.812	0.069	-0.167
-346.435	-147.109	-0.159	0.013
-345.420	-134.465	0.189	0.023
-344.406	-200.000	-0.009	0.129
-343.391	-200.000	-0.011	-0.281
-342.377	-200.000	-0.031	0.255
-341.362	54.447	0.079	0.076
-340.348	-85.105	-0.115	-0.036
-339.333	231.445	0.161	0.263
-338.318	20.326	-0.276	0.222
-337.304	-200.000	-0.025	-0.140
-336.289	577.288	-0.101	0.244
-335.275	-163.349	-0.345	-0.016
-334.260	-118.583	-0.228	-0.040
-333.245	-29.359	-0.189	-0.107
-332.231	-200.000	0.012	-0.203
-331.216	63.267	-0.215	-0.214
-330.202	-200.000	-0.039	-0.282
-329.187	-71.710	0.163	-0.060
-328.172	-60.112	0.155	0.066
-327.158	-2.389	0.160	0.112
-326.143	97.809	-0.132	-0.151
-325.129	39.033	-0.110	0.098
-324.114	58.806	-0.182	-0.178
-323.099	240.847	-0.057	0.094
-322.085	-103.669	-0.118	-0.028
-321.070	-132.371	0.235	-0.030
-320.056	-113.068	0.136	-0.027
-319.041	11.227	-0.035	0.026
-318.026	-55.202	0.097	-0.043
-317.012	318.906	-0.149	-0.280
-315.997	290.613	-0.095	0.172
-314.983	221.403	-0.054	-0.086
-313.968	25.929	0.102	-0.084
-312.953	-124.503	-0.026	-0.004
-311.939	-200.000	-0.058	-0.515
-310.924	211.271	0.170	-0.265
-309.910	18.248	-0.131	-0.104
-308.895	93.017	0.360	0.404
-307.880	800.000	0.056	-0.178
-306.866	-40.927	0.272	-0.140
-305.851	800.000	0.046	0.169
-304.837	-80.997	0.050	0.016
-303.822	-36.714	-0.180	0.096
-302.807	800.000	-0.075	-0.275
-301.793	-73.240	0.229	0.083
-300.778	283.179	0.117	0.209
-299.764	-72.195	0.115	0.042
-298.749	-40.746	0.145	0.075
-297.735	159.825	0.150	-0.207
-296.720	46.721	0.176	0.162
-295.705	-82.846	-0.069	0.022
-294.691	-103.123	0.245	0.057
-293.676	23.823	0.161	-0.132
-292.662	293.607	0.073	-0.132
-291.647	-200.000	-0.058	0.521
-290.632	-52.309	0.209	0.096
-289.618	-99.746	0.223	0.055
-288.603	800.000	0.045	0.154
-287.589	-6.632	-0.137	-0.093
-286.574	-26.173	0.177	0.103
-285.559	612.310	-0.056	-0.140
-284.545	161.709	-0.090	-0.125
-283.530	-200.000	0.002	0.242
-282.516	-200.000	-0.023	0.215
-281.501	-27.061	0.099	-0.057
-280.486	-30.607	-0.222	0.125
-279.472	92.523	-0.009	0.011
-278.457	179.246	-0.059	0.085
-277.443	169.250	0.258	-0.366
-276.428	-25.083	-0.054	0.032
-275.413	-200.000	-0.023	0.111
-274.399	-32.275	-0.219	-0.122
-273.384	126.255	0.012	0.016
-272.370	-25.856	-0.099	-0.058
-271.355	59.718	0.151	-0.148
-270.340	493.418	-0.087	0.199
-269.326	62.105	0.242	-0.240
-268.311	61.634	0.082	-0.081
-267.297	-161.100	-0.066	0.003
-266.282	-200.000	-0.021	-0.272
-265.267	-200.000	0.000	0.131
-264.253	-52.675	-0.246	0.113
-263.238	637.911	0.098	-0.248
-262.224	121.827	-0.036	0.045
-261.209	-200.000	-0.062	-0.302
-260.195	618.377	0.058	0.143
-259.180	-63.950	-0.020	-0.008
-258.165	800.000	0.024	0.095
-257.151	800.000	0.084	0.259
-256.136	165.034	-0.055	-0.078
-255.122	-165.128	-0.196	-0.009
-254.107	52.327	-0.027	-0.025
-253.092	573.264	-0.159	-0.385
-252.078	-120.682	0.254	0.043
-251.063	-42.026	0.254	-0.129
-250.049	-75.129	0.032	0.011
-249.034	-200.000	-0.008	-0.164
-248.019	-200.000	0.000	-0.080
-247.005	800.000	0.070	-0.238
-245.990	128.678	-0.082	-0.104
-244.976	-8.117	-0.118	-0.078
-243.961	6.686	-0.052	0.039
-242.946	155.457	-0.097	0.132
-241.932	147.365	0.061	-0.082
-240.917	128.680	0.172	-0.217
-239.903	606.179	0.114	0.282
-238.888	-169.804	0.162	0.006
-237.873	800.000	-0.045	0.164
-236.859	800.000	-0.053	0.165
-235.844	800.000	0.146	0.400
-234.830	-10.014	0.248	-0.163
-233.815	313.426	0.105	-0.195
-232.800	-200.000	-0.099	-0.503
-231.786	188.598	-0.129	-0.191
-230.771	213.485	0.102	-0.160
-229.757	345.603	0.137	0.267
-228.742	429.174	-0.146	0.312
-227.727	-47.028	0.286	0.138
-226.713	119.879	0.072	0.088
-225.698	32.873	0.380	-0.326
-224.684	-200.000	0.020	-0.211
-223.669	800.000	-0.022	0.076
-222.655	111.997	-0.215	-0.257
-221.640	-7.214	0.063	0.042
-220.625	130.946	-0.141	0.179
-219.611	127.977	0.055	0.069
-218.596	-81.849	0.123	0.040
-217.582	-112.980	-0.207	-0.041
-216.567	-200.000	0.011	-0.170
-215.552	-103.112	0.163	0.038
-214.538	28.636	0.122	0.102
-213.523	800.000	-0.067	0.251
-212.509	181.566	0.069	0.101
-211.494	54.554	-0.086	-0.082
-210.479	-200.000	-0.023	0.139
-209.465	-200.000	0.056	-0.560
-208.450	-200.000	-0.050	0.233
-207.436	182.167	-0.051	0.075
-206.421	-200.000	-0.038	0.210
-205.406	-140.070	0.357	-0.037
-204.392	800.000	-0.051	0.214
-203.377	-200.000	-0.027	0.196
-202.363	-69.079	-0.029	-0.011
-201.348	-131.387	-0.184	-0.024
-200.333	-8.608	0.129	0.086
-199.319	-80.339	0.142	-0.047
-198.304	800.000	-0.099	0.295
-197.290	-87.225	0.208	-0.062
-196.275	31.615	-0.221	0.188
-195.260	800.000	0.031	-0.123
-194.246	-200.000	-0.002	0.228
-193.231	63.472	0.139	0.138
-192.217	-55.786	-0.124	-0.055
-191.202	29.349	-0.026	0.022
-190.187	549.933	0.095	-0.226
-189.173	-60.029	0.419	-0.177
-188.158	59.122	-0.333	-0.324
-187.144	-200.000	-0.036	-0.248
-186.129	-157.858	-0.198	-0.012
-185.114	393.112	-0.052	0.106
-184.100	17.151	0.080	-0.063
-183.085	295.396	0.221	0.399
-182.071	379.697	-0.176	0.356
-181.056	-63.315	-0.058	0.024
-180.042	39.500	-0.333	-0.295
-179.027	-141.649	0.472	0.047
-178.012	-69.776	0.332	0.125
-176.998	293.003	0.240	0.433
-175.983	395.395	-0.121	-0.250
-174.969	-200.000	-0.013	-0.340
-173.954	-200.000	0.051	0.305
-172.939	-96.099	0.180	0.047
-171.925	108.190	0.217	-0.256
-170.910	8.952	0.134	-0.100
-169.896	-6.826	0.112	0.075
-168.881	703.820	-0.075	-0.196
-167.866	18.960	0.171	-0.136
-166.852	800.000	0.035	-0.107
-165.837	-200.000	0.004	0.069
-164.823	-150.368	-0.159	-0.012
-163.808	-74.217	0.155	0.055
-162.793	-200.000	0.023	0.160
-161.779	-200.000	-0.005	0.187
-160.764	22.644	-0.290	-0.235
-159.750	-93.805	0.141	-0.038
-158.735	-200.000	-0.020	-0.253
-157.720	-200.000	-0.029	0.386
-156.706	-200.000	-0.046	0.321
-155.691	-147.187	0.201	-0.017
-154.677	-170.628	0.271	-0.009
-153.662	-200.000	-0.030	0.212
-152.647	98.718	0.090	0.103
-151.633	9.321	0.340	-0.254
-150.618	62.349	-0.143	-0.141
-149.604	-119.610	-0.341	-0.058
-148.589	-200.000	-0.029	0.240
-147.574	365.830	-0.053	-0.106
-146.560	30.675	0.052	-0.044
-145.545	35.948	0.250	0.217
-144.531	-77.906	0.041	-0.014
-143.516	-200.000	0.068	-0.314
-142.502	-96.454	0.345	-0.090
-141.487	-34.929	0.287	-0.155
-140.472	800.000	0.051	0.143
-139.458	-132.753	0.396	0.050
-138.443	28.678	-0.062	0.052
-137.429	466.396	0.131	0.289
-136.414	-200.000	0.022	-0.131
-135.399	-139.363	-0.153	0.016
-134.385	-103.019	0.487	0.114
-133.370	-130.319	-0.269	-0.036
-132.356	-200.000	-0.058	0.283
-131.341	310.258	0.144	-0.266
-130.326	-2.163	-0.057	-0.040
-129.312	-49.556	0.132	0.062
-128.297	81.513	-0.216	0.230
-127.283	-103.426	0.300	-0.070
-126.268	-200.000	0.022	0.128
-125.253	-15.975	0.287	0.180
-124.239	154.178	-0.170	0.230
-123.224	800.000	-0.114	0.442
-122.210	-120.817	0.163	-0.027
-121.195	-200.000	-0.005	-0.301
-120.180	800.000	0.078	0.228
-119.166	-200.000	0.019	-0.372
-118.151	-200.000	0.060	-0.382
-117.137	-119.603	-0.283	0.048
-116.122	134.078	-0.247	0.316
-115.107	-48.467	-0.150	-0.071
-114.093	-69.982	-0.286	-0.107
-113.078	-118.766	0.334	-0.058
-112.064	-41.614	-0.186	0.094
-111.049	800.000	-0.027	0.106
-110.034	-8.598	-0.096	0.064
-109.020	-133.358	-0.018	0.002
-108.005	197.610	0.226	0.340
-106.991	242.438	-0.136	0.225
-105.976	-200.000	-0.012	0.139
-104.962	357.938	-0.098	-0.193
-103.947	800.000	0.017	-0.052
-102.932	213.797	-0.095	-0.148
-101.918	494.698	-0.062	0.140
-100.903	-106.099	-0.206	-0.046
-99.889	-108.605	-0.117	0.025
-98.874	46.554	0.186	-0.170
-97.859	-200.000	0.010	-0.298
-96.845	-55.930	0.161	0.071
-95.830	-130.787	-0.203	-0.027
-94.816	800.000	-0.078	0.273
-93.801	196.316	-0.061	0.091
-92.786	257.306	0.152	-0.257
-91.772	393.322	0.072	-0.147
-90.757	17.320	-0.095	0.074
-89.743	-200.000	-0.030	0.472
-88.728	-100.770	0.252	-0.061
-87.713	14.006	-0.163	0.125
-86.699	-125.027	-0.288	-0.044
-85.684	244.209	0.045	-0.074
-84.670	800.000	-0.079	0.261
-83.655	168.588	0.088	0.124
-82.640	20.174	-0.186	0.148
-81.626	419.498	-0.065	0.136
-80.611	-25.189	0.047	-0.027
-79.597	-88.384	-0.389	-0.114
-78.582	31.700	0.263	0.223
-77.567	-61.665	-0.249	-0.103
-76.553	-200.000	-0.006	-0.390
-75.538	-100.104	-0.196	0.048
-74.524	-32.162	0.305	-0.168
-73.509	391.784	0.043	-0.089
-72.494	28.295	0.222	0.184
-71.480	-167.111	-0.139	0.006
-70.465	-200.000	0.045	-0.202
-69.451	15.882	-0.011	-0.009
-68.436	-200.000	0.011	-0.163
-67.422	168.392	0.198	0.278
-66.407	94.506	0.106	-0.119
-65.392	-175.937	-0.201	0.005
-64.378	88.110	0.122	0.133
-63.363	72.378	0.133	0.136
-62.349	-176.918	-0.162	-0.004
-61.334	112.186	-0.666	-0.792
-60.319	4.007	0.879	0.633
-59.305	-200.000	-0.147	-0.964
-58.290	170.217	0.572	0.805
-57.276	800.000	0.562	1.584
-56.261	-200.000	93.871	563.684
-55.246	506.291	1404.833	3203.403
-54.232	152.630	2612.030	3509.884
-53.217	110.960	2198.750	2603.541
-52.203	44.033	1642.660	1480.927
-51.188	35.244	1374.107	1184.753
-50.173	32.078	1331.756	1129.184
-49.159	54.292	1377.639	1304.242
-48.144	55.991	1394.352	1330.375
-47.130	35.453	1353.684	1168.229
-46.115	31.897	1336.622	1132.041
-45.100	31.801	1331.651	1127.208
-44.086	31.586	1329.650	1124.179
-43.071	31.599	1326.973	1121.944
-42.057	31.613	1324.406	1119.813
-41.042	31.658	1322.970	1118.823
-40.027	31.650	1321.081	1117.139
-39.013	31.727	1319.127	1115.900
-37.998	31.647	1317.710	1114.178
-36.984	31.726	1315.454	1112.700
-35.969	31.759	1313.987	1111.606
-34.954	31.784	1311.979	1110.016
-33.940	31.688	1311.040	1108.608
-32.925	31.836	1309.651	1108.263
-31.911	31.899	1307.679	1106.924
-30.896	31.870	1306.547	1105.748
-29.881	31.872	1305.049	1104.451
-28.867	31.976	1303.066	1103.339
-27.852	31.751	1302.187	1101.229
-26.838	31.764	1300.793	1100.083
-25.823	31.814	1299.506	1099.245
-24.809	31.755	1298.513	1098.014
-23.794	31.826	1296.852	1096.980
-22.779	31.884	1295.165	1095.850
-21.765	31.814	1294.082	1094.484
-20.750	31.866	1292.603	1093.491
-19.736	31.845	1291.245	1092.178
-18.721	31.598	1290.527	1090.087
-17.706	31.708	1288.869	1089.281
-16.692	31.765	1287.800	1088.669
-15.677	31.668	1286.650	1087.089
-14.663	31.631	1285.956	1086.242
-13.648	31.655	1284.629	1085.221
-12.633	31.746	1283.445	1084.701
-11.619	31.691	1282.854	1083.844
-10.604	31.607	1282.136	1082.709
-9.590	31.667	1280.961	1082.019
-8.575	31.758	1279.272	1081.076
-7.560	31.745	1278.609	1080.393
-6.546	31.702	1278.023	1079.611
-5.531	31.693	1276.927	1078.587
-4.517	31.695	1276.056	1077.820
-3.502	31.775	1275.301	1077.600
-2.487	31.658	1274.537	1076.243
-1.473	31.761	1270.637	1073.498
-0.458	30.851	1255.888	1055.839
0.556	26.718	1238.779	1018.026
1.571	22.775	1243.763	999.748
2.586	21.081	1257.922	1001.324
3.600	19.588	1245.287	982.692
4.615	14.254	1170.357	894.876
5.629	5.568	1092.263	791.348
6.644	1.339	1071.957	755.553
7.659	0.986	1069.453	751.968
8.673	0.848	1069.117	750.980
9.688	1.009	1067.458	750.548
10.702	1.209	1065.657	750.205
11.717	5.891	1071.729	777.657
12.731	13.594	1081.417	823.010
13.746	17.127	1085.647	843.739
14.761	17.590	1085.779	846.071
15.775	16.862	1083.662	840.736
16.790	15.795	1082.161	834.211
17.804	15.041	1080.288	828.960
18.819	14.742	1079.233	826.598
19.834	14.457	1078.367	824.449
20.848	14.145	1077.567	822.222
21.863	13.988	1076.668	820.687
22.877	13.831	1075.635	819.052
23.892	13.794	1074.696	818.083
24.907	13.801	1074.088	817.584
25.921	13.704	1073.778	816.799
26.936	13.851	1072.612	816.561
27.950	13.824	1071.546	815.548
28.965	13.865	1070.533	814.903
29.980	13.906	1069.445	814.205
30.994	13.925	1068.014	813.134
32.009	14.001	1067.155	812.780
33.023	13.934	1066.564	811.933
34.038	13.889	1065.626	810.927
35.053	13.894	1064.372	809.925
36.067	13.917	1063.267	809.126
37.082	14.021	1062.223	808.765
38.096	14.039	1061.525	808.250
39.111	13.912	1060.936	807.113
40.126	13.953	1059.877	806.435
41.140	13.856	1058.740	805.027
42.155	13.791	1057.403	803.623
43.169	13.783	1056.230	802.625
44.184	13.709	1055.942	801.976
45.199	13.770	1054.485	801.091
46.213	13.801	1053.437	800.373
47.228	13.776	1052.574	799.528
48.242	13.900	1050.954	798.821
49.257	13.757	1050.370	797.623
50.271	13.886	1048.927	797.075
51.286	13.911	1048.296	796.645
52.301	13.937	1047.516	796.104
53.315	13.796	1046.422	794.530
54.330	13.764	1045.679	793.743
55.344	13.804	1044.829	793.216
56.359	13.893	1043.354	792.454
57.374	13.749	1042.874	791.331
58.388	13.688	1042.187	790.446
59.403	13.717	1041.964	790.346
60.417	13.766	1040.628	789.499
61.432	13.680	1039.843	788.421
62.447	13.797	1038.912	788.205
63.461	13.740	1038.163	787.294
64.476	13.820	1036.965	786.698
65.490	13.686	1036.269	785.462
66.505	13.692	1035.734	785.015
67.520	13.759	1035.092	784.777
68.534	13.689	1034.730	784.103
69.549	13.693	1033.863	783.396
70.563	13.716	1032.760	782.599
71.578	13.756	1032.240	782.325
72.593	13.697	1031.578	781.473
73.607	13.702	1030.754	780.805
74.622	13.625	1030.280	780.015
75.636	13.719	1029.273	779.624
76.651	13.739	1028.263	778.887
77.666	13.590	1028.401	778.219
78.680	13.811	1027.159	778.249
79.695	13.741	1026.587	777.419
80.709	13.805	1026.021	777.220
81.724	13.731	1025.408	776.339
82.739	13.700	1024.438	775.395
83.753	13.884	1023.537	775.503
84.768	13.945	1022.681	775.068
85.782	13.946	1021.569	774.165
86.797	13.826	1020.908	773.036
87.812	13.816	1019.971	772.209
88.826	13.802	1019.103	771.420
89.841	13.947	1017.893	771.110
90.855	14.006	1017.113	770.723
91.870	13.947	1016.391	769.833
92.884	13.888	1015.815	769.058
93.899	14.071	1014.574	768.895
94.914	14.161	1013.651	768.544
95.928	14.037	1013.267	767.611
96.943	13.901	1012.304	766.189
97.957	14.013	1011.327	765.897
98.972	13.870	1010.631	764.644
99.987	13.944	1009.779	764.272
101.001	13.998	1008.780	763.698
102.016	14.034	1007.602	762.904
103.030	14.011	1006.784	762.111
104.045	13.994	1006.427	761.693
105.060	13.959	1005.335	760.641
106.074	13.856	1004.679	759.606
107.089	13.844	1003.483	758.579
108.103	13.904	1002.217	757.827
109.118	13.914	1001.194	757.032
110.133	13.972	1000.493	756.699
111.147	13.875	999.899	755.745
112.162	13.800	999.348	754.920
113.176	14.061	998.126	755.113
114.191	13.972	997.235	753.970
115.206	13.939	996.623	753.292
116.220	14.015	995.859	752.990
117.235	13.835	995.215	751.621
118.249	14.123	993.819	751.805
119.264	13.992	993.292	750.748
120.279	13.909	993.020	750.099
121.293	13.908	992.008	749.266
122.308	13.806	991.414	748.290
123.322	13.897	990.136	747.667
124.337	13.847	989.168	746.645
125.352	13.864	987.837	745.652
126.366	13.950	986.766	745.162
127.381	13.891	985.635	743.980
128.395	13.931	985.036	743.641
129.410	13.979	983.826	742.874
130.424	14.058	983.053	742.577
131.439	14.068	982.405	742.068
132.454	14.007	981.817	741.286
133.468	14.093	980.963	740.961
134.483	13.954	980.110	739.632
135.497	14.084	978.883	739.216
136.512	13.950	978.477	738.248
137.527	14.091	977.088	737.760
138.541	14.078	976.332	737.068
139.556	14.050	975.719	736.415
140.570	14.090	975.328	736.234
141.585	14.137	974.242	735.558
142.600	14.132	973.092	734.600
143.614	14.177	972.578	734.345
144.629	14.150	971.434	733.299
145.643	14.063	970.692	732.290
146.658	14.174	969.618	731.903
147.673	14.099	968.772	730.872
148.687	14.134	968.112	730.462
149.702	14.055	967.234	729.389
150.716	14.132	966.241	728.911
151.731	14.022	966.186	728.322
152.746	14.096	965.332	727.941
153.760	14.005	964.474	726.831
154.775	14.137	964.099	727.061
155.789	14.086	963.381	726.233
156.804	14.229	962.612	726.211
157.819	14.166	961.805	725.266
158.833	14.139	961.357	724.745
159.848	14.228	960.181	724.181
160.862	14.312	959.476	723.950
161.877	14.145	958.855	722.693
162.892	14.116	957.670	721.611
163.906	14.089	956.777	720.758
164.921	14.187	955.685	720.293
165.935	14.189	955.097	719.796
166.950	14.210	954.291	719.217
167.964	14.285	953.049	718.538
168.979	14.205	952.340	717.594
169.994	14.303	951.199	717.096
171.008	14.296	950.558	716.520
172.023	14.333	950.101	716.269
173.037	14.422	949.403	716.063
174.052	14.358	948.620	715.136
175.067	14.156	948.386	714.025
176.081	14.373	947.315	714.087
177.096	14.329	946.933	713.548
178.110	14.277	946.364	712.833
179.125	14.334	945.632	712.461
180.140	14.418	945.309	712.515
181.154	14.284	945.079	711.706
182.169	14.569	943.561	711.718
183.183	14.476	943.559	711.256
184.198	14.547	942.657	710.816
185.213	14.415	942.198	709.844
186.227	14.630	940.800	709.644
187.242	14.546	940.516	709.007
188.256	14.601	940.024	708.808
189.271	14.592	939.228	708.107
190.286	14.506	938.257	706.947
191.300	14.383	937.761	705.992
192.315	14.406	936.957	705.419
193.329	14.388	937.027	705.335
194.344	14.397	936.014	704.546
195.359	14.520	934.900	704.163
196.373	14.496	934.814	703.937
197.388	14.610	934.006	703.745
198.402	14.669	933.479	703.536
199.417	14.675	933.054	703.178
200.432	14.696	932.177	702.545
201.446	14.749	931.562	702.244
202.461	14.847	931.218	702.330
203.475	14.666	930.969	701.322
204.490	14.707	930.064	700.750
205.504	14.746	929.426	700.373
206.519	14.703	928.455	699.398
207.534	14.745	927.948	699.127
208.548	14.714	927.366	698.497
209.563	14.747	926.669	698.048
210.577	14.808	925.929	697.686
211.592	14.885	924.820	697.108
212.607	14.908	924.223	696.693
213.621	14.973	923.705	696.513
214.636	14.953	922.831	695.708
215.650	14.890	922.433	695.084
216.665	14.967	921.537	694.667
217.680	14.966	920.770	694.026
218.694	14.964	920.219	693.540
219.709	14.847	919.585	692.516
220.723	15.025	918.645	692.483
221.738	15.083	918.163	692.297
222.753	15.129	916.989	691.540
223.767	15.167	916.511	691.277
224.782	15.122	916.153	690.760
225.796	15.095	915.858	690.363
226.811	15.140	915.300	690.070
227.826	15.110	914.334	689.157
228.840	15.144	913.431	688.553
229.855	15.164	912.628	687.971
230.869	15.103	912.043	687.216
231.884	15.170	911.368	686.924
232.899	15.071	910.720	685.967
233.913	15.070	909.934	685.311
234.928	15.068	909.195	684.687
235.942	15.020	909.106	684.360
236.957	15.130	908.363	684.193
237.972	15.190	907.638	683.828
238.986	15.167	906.852	683.082
240.001	15.168	906.178	682.520
241.015	15.125	905.967	682.127
242.030	15.014	905.823	681.502
243.045	15.258	904.438	681.395
244.059	15.192	904.159	680.855
245.074	15.292	903.138	680.431
246.088	15.219	902.654	679.711
247.103	15.272	901.995	679.368
248.117	15.350	901.821	679.495
249.132	15.387	901.007	678.969
250.147	15.506	900.178	678.768
251.161	15.508	899.328	678.075
252.176	15.498	898.786	677.564
253.190	15.615	897.816	677.245
254.205	15.593	897.139	676.587
255.220	15.638	896.449	676.188
256.234	15.603	896.178	675.782
257.249	15.585	895.658	675.256
258.263	15.620	894.592	674.533
259.278	15.590	894.166	674.032
260.293	15.595	893.657	673.608
261.307	15.735	893.084	673.679
262.322	15.884	892.146	673.507
263.336	15.688	891.672	672.306
264.351	15.667	890.933	671.608
265.366	15.950	889.632	671.697
266.380	15.894	889.668	671.440
267.395	15.870	888.892	670.697
268.409	15.912	888.173	670.265
269.424	15.862	887.479	669.483
270.439	15.804	886.677	668.589
271.453	15.774	886.246	668.085
272.468	15.871	886.033	668.248
273.482	15.719	885.099	666.883
274.497	15.864	884.765	667.148
275.512	15.724	883.870	665.861
276.526	15.951	883.533	666.446
277.541	16.037	882.696	666.096
278.555	16.054	882.051	665.617
279.570	16.019	881.687	665.144
280.585	15.910	880.665	663.885
281.599	16.057	879.994	663.900
282.614	15.994	879.330	663.092
283.628	15.942	878.911	662.513
284.643	15.988	877.986	661.938
285.657	16.095	877.278	661.766
286.672	16.194	876.784	661.720
287.687	16.116	876.160	660.886
288.701	16.078	876.062	660.605
289.716	16.093	875.408	660.115
290.730	16.092	874.715	659.529
291.745	16.237	873.840	659.375
292.760	16.214	872.948	658.554
293.774	16.263	872.548	658.384
294.789	16.297	871.706	657.825
295.803	16.330	870.931	657.311
296.818	16.258	870.522	656.663
297.833	16.162	870.589	656.282
298.847	16.285	869.492	655.876
299.862	16.122	869.117	654.901
300.876	16.387	868.206	655.186
301.891	16.407	867.528	654.693
302.906	16.291	867.344	654.048
303.920	16.437	866.775	654.127
304.935	16.446	865.996	653.515
305.949	16.502	865.184	653.058
306.964	16.355	865.008	652.302
307.979	16.494	863.872	651.921
308.993	16.531	863.925	652.046
310.008	16.585	863.124	651.595
311.022	16.538	862.513	650.893
312.037	16.438	862.017	650.077
313.052	16.492	861.355	649.729
314.066	16.468	860.707	649.092
315.081	16.459	860.140	648.572
316.095	16.481	859.507	648.118
317.110	16.454	859.091	647.646
318.125	16.467	858.802	647.420
319.139	16.495	858.157	646.983
320.154	16.695	857.527	647.215
321.168	16.499	856.985	646.003
322.183	16.632	856.391	646.005
323.197	16.626	855.875	645.533
324.212	16.648	855.569	645.328
325.227	16.603	855.214	644.833
326.241	16.716	854.057	644.336
327.256	16.584	854.122	643.823
328.270	16.684	852.896	643.223
329.285	16.544	852.547	642.372
330.300	16.610	851.575	641.832
331.314	16.682	851.400	641.916
332.329	16.736	850.558	641.430
333.343	16.764	850.473	641.415
334.358	16.812	849.877	641.090
335.373	16.678	849.610	640.326
336.387	16.780	849.454	640.537
337.402	16.677	849.554	640.167
338.416	16.876	848.720	640.232
339.431	16.725	848.620	639.531
340.446	16.904	847.716	639.466
341.460	16.942	847.438	639.343
342.475	16.961	847.177	639.164
343.489	17.036	846.453	638.842
344.504	17.029	846.048	638.454
345.519	17.048	845.231	637.852
346.533	17.085	844.976	637.743
347.548	16.932	844.692	636.896
348.562	17.022	843.983	636.645
349.577	16.958	843.710	636.141
350.592	16.958	842.792	635.391
351.606	17.015	842.254	635.145
352.621	17.003	841.500	634.476
353.635	16.962	840.746	633.696
354.650	17.115	840.416	633.962
355.665	17.091	839.519	633.143
356.679	17.192	838.623	632.785
357.694	17.128	838.258	632.216
358.708	17.250	837.500	632.041
359.723	17.141	837.073	631.258
360.738	17.325	836.307	631.308
361.752	17.136	836.090	630.388
362.767	17.222	835.421	630.146
363.781	17.334	834.808	630.041
364.796	17.417	834.315	629.924
365.810	17.382	834.012	629.507
366.825	17.441	833.515	629.295
367.840	17.421	833.044	628.811
368.854	17.434	832.876	628.674
369.869	17.281	832.492	627.767
370.883	17.417	831.840	627.721
371.898	17.426	831.702	627.593
372.913	17.532	831.042	627.431
373.927	17.499	830.570	626.896
374.942	17.526	830.096	626.583
375.956	17.468	829.394	625.785
376.971	17.705	828.985	626.290
377.986	17.590	828.596	625.519
379.000	17.609	828.234	625.260
380.015	17.688	827.733	625.116
381.029	17.689	826.682	624.271
382.044	17.668	826.228	623.796
383.059	17.590	826.034	623.309
384.073	17.637	825.470	623.000
385.088	17.716	824.653	622.618
386.102	17.635	823.935	621.726
387.117	17.771	823.625	621.930
388.132	17.699	823.186	621.285
389.146	17.720	822.368	620.687
390.161	17.865	822.045	620.916
391.175	17.813	821.670	620.389
392.190	17.612	821.325	619.341
393.205	17.676	820.913	619.209
394.219	17.896	820.389	619.560
395.234	17.865	819.797	618.946
396.248	17.698	819.748	618.248
397.263	17.808	819.090	618.095
398.278	17.779	818.850	617.755
399.292	17.750	818.561	617.376
400.307	17.596	818.226	616.512
401.321	17.818	817.676	616.843
402.336	17.837	816.804	616.202
403.350	17.739	816.585	615.627
404.365	17.914	815.888	615.678
405.380	17.983	815.492	615.574
406.394	18.082	814.921	615.444
407.409	18.083	814.519	615.090
408.423	18.005	814.413	614.675
409.438	17.952	813.954	614.086
410.453	18.073	813.426	614.067
411.467	18.180	812.758	613.893
412.482	18.079	812.596	613.352
413.496	18.299	812.215	613.800
414.511	18.098	812.028	612.884
415.526	18.136	811.459	612.536
416.540	18.135	811.069	612.183
417.555	18.142	810.489	611.718
418.569	18.233	809.575	611.298
419.584	18.272	809.180	611.084
420.599	18.237	809.295	610.993
421.613	109.311	1290.950	1461.892
422.628	94.360	1361.135	1461.994
