DTS Sentinel unit serial number:	SN413079Multiplexer serial number:	ORYXHardware model number:	OX4-SRSoftware version number:	ORYX F/W v4.00 Oryx Data Collector v3.7.2.0data status	okinstallation	princeton_trtdifferential loss correction	single-endedforward channel	channel 1reverse channel	N/Adate	2019/09/10time	18:32:11forward acquisition time	60.00reverse acquisition time	0.00gamma	496.2192k internal	0.2306k external	0.2306temperature offset calibration	0.9929default loss term (dB/km)	0.3790temperature slope calibration	1.0000multiplexer offset coefficient	1.0000multiplexer slope coefficient	1.0000fibre end	0.00T internal ref (°C)	35.80T ext. ref 1 (°C)	-0.31T ext. ref 2 (°C)	27.89length (m)	temperature (°C)	Stokes	anti-Stokes-747.200	286.901	0.131	-0.240
-746.185	261.053	0.012	-0.021
-745.171	-144.708	-0.283	-0.027
-744.156	-75.710	0.320	-0.116
-743.142	286.123	0.097	0.179
-742.127	-163.464	-0.215	0.010
-741.112	-64.529	-0.108	0.045
-740.098	100.442	0.078	0.092
-739.083	-200.000	-0.007	0.152
-738.069	-200.000	-0.009	0.107
-737.054	-200.000	-0.018	0.198
-736.039	800.000	0.035	0.131
-735.025	-56.067	-0.182	-0.082
-734.010	-49.085	-0.348	0.170
-732.996	1.689	-0.309	-0.226
-731.981	205.536	-0.181	-0.286
-730.966	-89.901	-0.139	0.041
-729.952	-79.363	0.141	0.048
-728.937	277.474	-0.105	-0.190
-727.923	-20.246	-0.149	0.093
-726.908	-160.473	-0.274	0.015
-725.894	218.958	0.098	0.160
-724.879	-121.672	0.134	0.022
-723.864	-77.350	0.324	-0.114
-722.850	9.553	-0.282	0.217
-721.835	23.470	-0.066	0.056
-720.821	-71.618	-0.072	-0.027
-719.806	417.513	-0.077	0.166
-718.791	-200.000	0.041	0.218
-717.777	45.135	-0.198	0.185
-716.762	210.027	0.154	0.246
-715.748	312.060	0.029	-0.055
-714.733	172.729	-0.014	0.021
-713.718	-50.494	0.246	0.118
-712.704	-200.000	0.002	0.019
-711.689	-22.535	-0.164	0.101
-710.675	-83.584	-0.294	-0.095
-709.660	-103.821	-0.208	-0.049
-708.645	106.806	0.246	-0.297
-707.631	800.000	0.066	0.275
-706.616	-169.889	0.258	0.009
-705.602	-8.450	-0.213	0.145
-704.587	179.436	-0.134	0.199
-703.572	-200.000	0.066	0.296
-702.558	-200.000	-0.010	0.247
-701.543	-142.159	0.290	0.029
-700.529	39.953	-0.153	-0.140
-699.514	622.874	-0.157	-0.402
-698.499	102.559	0.233	-0.277
-697.485	-47.686	-0.225	-0.111
-696.470	-69.482	-0.385	0.150
-695.456	-5.728	0.276	0.192
-694.441	-133.280	0.160	0.021
-693.426	451.403	-0.037	0.084
-692.412	-162.886	0.230	0.011
-691.397	800.000	-0.052	-0.173
-690.383	-125.269	0.298	0.046
-689.368	-200.000	-0.005	0.106
-688.354	603.881	0.128	0.323
-687.339	-155.036	-0.094	0.006
-686.324	-94.415	-0.141	-0.039
-685.310	800.000	-0.096	0.420
-684.295	118.160	-0.160	-0.201
-683.281	-15.605	-0.046	0.030
-682.266	313.412	-0.286	-0.545
-681.251	-90.189	0.386	-0.114
-680.237	800.000	-0.049	-0.188
-679.222	-122.448	0.296	-0.049
-678.208	-200.000	0.062	-0.334
-677.193	-65.493	0.134	-0.054
-676.178	42.529	-0.081	0.075
-675.164	142.782	-0.130	0.176
-674.149	-99.592	-0.109	-0.028
-673.135	-151.186	-0.147	0.011
-672.120	-133.828	0.314	-0.040
-671.105	224.584	0.055	-0.090
-670.091	153.026	0.240	-0.333
-669.076	9.761	-0.261	-0.201
-668.062	301.218	0.157	0.294
-667.047	70.330	0.076	-0.079
-666.032	70.864	-0.068	0.072
-665.018	-4.085	0.024	0.017
-664.003	15.548	-0.381	-0.303
-662.989	-200.000	-0.023	-0.154
-661.974	120.653	-0.243	0.306
-660.959	-41.534	0.046	-0.024
-659.945	60.140	-0.209	-0.209
-658.930	-20.623	-0.163	-0.102
-657.916	-200.000	-0.001	-0.124
-656.901	-79.568	-0.180	-0.061
-655.886	368.245	-0.151	-0.310
-654.872	-62.364	-0.221	0.093
-653.857	-64.849	0.145	0.060
-652.843	121.783	0.013	0.016
-651.828	-9.262	-0.274	-0.185
-650.814	289.533	0.058	0.106
-649.799	-134.897	0.130	0.016
-648.784	-111.752	-0.216	0.044
-647.770	573.452	0.137	0.339
-646.755	-125.704	0.020	-0.003
-645.741	-5.668	-0.101	0.070
-644.726	-140.950	-0.143	-0.015
-643.711	52.448	0.109	-0.105
-642.697	-73.827	0.096	0.035
-641.682	-96.233	0.260	0.070
-640.668	56.090	-0.157	-0.155
-639.653	-94.140	-0.265	0.074
-638.638	-12.772	0.316	-0.209
-637.624	-200.000	0.042	-0.255
-636.609	66.145	0.176	-0.181
-635.595	-95.496	-0.167	-0.046
-634.580	62.903	-0.200	-0.202
-633.565	-200.000	-0.019	-0.241
-632.551	-200.000	-0.161	0.001
-631.536	800.000	-0.084	0.265
-630.522	-131.355	-0.205	0.027
-629.507	-200.000	0.018	-0.286
-628.492	188.466	0.040	0.060
-627.478	144.066	-0.059	-0.080
-626.463	-200.000	-0.009	-0.084
-625.449	687.102	-0.085	0.224
-624.434	-199.628	0.227	-0.001
-623.419	-40.184	0.080	0.042
-622.405	800.000	0.030	-0.133
-621.390	-168.599	-0.302	0.012
-620.376	-7.599	0.423	-0.289
-619.361	-82.572	-0.030	0.010
-618.346	-19.364	-0.178	-0.112
-617.332	800.000	-0.060	-0.214
-616.317	-0.102	-0.349	-0.252
-615.303	-200.000	0.021	-0.207
-614.288	-95.099	0.179	0.049
-613.273	-123.150	-0.327	-0.053
-612.259	-117.941	-0.558	-0.101
-611.244	-200.000	0.056	-0.342
-610.230	-200.000	0.012	-0.166
-609.215	800.000	-0.023	0.070
-608.201	167.470	-0.238	-0.342
-607.186	-143.975	-0.166	-0.016
-606.171	173.751	0.138	0.201
-605.157	-200.000	-0.014	-0.260
-604.142	40.646	0.149	0.136
-603.128	-57.984	0.209	-0.092
-602.113	-200.000	0.007	0.165
-601.098	-200.000	0.004	-0.212
-600.084	-131.422	-0.321	-0.043
-599.069	-200.000	-0.016	-0.273
-598.055	-87.184	0.209	0.064
-597.040	-200.000	-0.021	-0.095
-596.025	668.720	0.045	0.118
-595.011	-84.950	0.058	-0.018
-593.996	-146.357	0.193	0.017
-592.982	-200.000	-0.051	0.248
-591.967	312.179	-0.089	0.168
-590.952	-99.846	-0.117	-0.029
-589.938	73.211	0.216	-0.228
-588.923	14.959	-0.385	0.305
-587.909	118.291	0.172	0.215
-586.894	-6.182	-0.245	0.169
-585.879	80.659	-0.050	-0.055
-584.865	-114.560	-0.189	0.037
-583.850	98.971	0.038	0.044
-582.836	133.350	0.238	0.312
-581.821	68.871	-0.201	0.209
-580.806	-91.754	-0.134	-0.038
-579.792	-178.755	0.045	-0.001
-578.777	-153.870	0.281	-0.019
-577.763	-153.216	0.149	-0.011
-576.748	-200.000	0.072	-0.448
-575.733	502.415	-0.123	0.286
-574.719	800.000	0.060	0.259
-573.704	-16.257	0.290	0.186
-572.690	800.000	0.034	-0.150
-571.675	-82.710	0.212	0.069
-570.661	-200.000	0.084	-0.427
-569.646	-130.826	0.423	-0.057
-568.631	-113.033	-0.169	-0.034
-567.617	800.000	0.087	-0.246
-566.602	244.918	-0.018	0.031
-565.588	212.566	0.061	0.097
-564.573	45.557	-0.147	-0.138
-563.558	198.729	0.135	-0.209
-562.544	58.881	-0.119	-0.119
-561.529	475.792	0.030	-0.069
-560.515	-92.217	-0.261	0.074
-559.500	800.000	0.062	0.245
-558.485	-200.000	-0.025	0.174
-557.471	745.029	0.093	-0.252
-556.456	-51.108	-0.488	0.231
-555.442	345.291	0.176	0.350
-554.427	115.201	-0.142	0.175
-553.412	-79.082	-0.207	0.071
-552.398	800.000	0.039	-0.126
-551.383	-115.458	0.505	0.096
-550.369	-130.122	-0.174	-0.024
-549.354	800.000	0.076	-0.251
-548.339	107.542	-0.221	0.265
-547.325	37.548	-0.124	-0.111
-546.310	-92.581	-0.056	-0.016
-545.296	800.000	-0.056	0.216
-544.281	115.758	-0.063	-0.078
-543.266	-19.170	-0.072	0.045
-542.252	28.897	0.274	0.235
-541.237	-182.826	-0.090	0.002
-540.223	-14.302	0.158	-0.103
-539.208	-136.707	0.071	0.008
-538.193	274.421	0.130	-0.232
-537.179	-113.464	0.164	-0.032
-536.164	188.157	-0.401	-0.605
-535.150	-200.000	0.111	0.526
-534.135	800.000	-0.050	0.140
-533.121	-140.567	0.183	0.019
-532.106	578.241	0.079	-0.196
-531.091	-141.497	0.179	-0.018
-530.077	800.000	0.078	0.226
-529.062	-92.604	0.298	-0.084
-528.048	-200.000	0.050	0.388
-527.033	-62.031	-0.233	0.098
-526.018	43.236	0.045	-0.042
-525.004	800.000	0.072	-0.314
-523.989	-200.000	-0.014	-0.402
-522.975	68.771	-0.204	-0.212
-521.960	-99.881	0.394	0.099
-520.945	60.157	0.316	0.315
-519.931	-200.000	0.020	-0.369
-518.916	514.014	-0.088	-0.206
-517.902	-48.435	0.035	0.017
-516.887	-125.815	-0.319	0.049
-515.872	99.307	0.061	0.071
-514.858	-200.000	-0.026	-0.242
-513.843	-200.000	0.061	0.282
-512.829	167.985	-0.260	0.372
-511.814	92.526	-0.027	0.031
-510.799	-53.768	-0.252	-0.116
-509.785	-127.699	0.310	-0.045
-508.770	800.000	0.075	0.224
-507.756	-91.398	-0.249	0.072
-506.741	800.000	0.043	0.128
-505.726	800.000	-0.054	0.168
-504.712	185.901	0.210	-0.315
-503.697	800.000	0.074	-0.240
-502.683	-13.995	-0.219	0.143
-501.668	149.071	0.170	-0.231
-500.653	800.000	0.103	-0.390
-499.639	147.098	0.279	-0.379
-498.624	-98.691	0.075	0.019
-497.610	-39.516	-0.063	0.033
-496.595	148.004	-0.224	0.304
-495.581	73.840	-0.233	0.246
-494.566	-50.021	0.134	-0.064
-493.551	-124.915	0.349	-0.054
-492.537	-200.000	0.001	0.118
-491.522	-84.933	0.127	0.040
-490.508	71.792	0.276	-0.289
-489.493	162.568	-0.142	-0.201
-488.478	257.824	-0.081	-0.141
-487.464	132.681	0.144	0.187
-486.449	-200.000	-0.025	-0.288
-485.435	12.731	-0.201	-0.157
-484.420	-200.000	-0.005	-0.207
-483.405	11.688	-0.224	-0.173
-482.391	-20.843	-0.328	0.203
-481.376	87.565	-0.183	-0.204
-480.362	-101.223	-0.245	-0.060
-479.347	-82.173	0.216	0.071
-478.332	208.291	-0.112	0.177
-477.318	-103.030	-0.146	0.035
-476.303	-90.377	-0.331	-0.097
-475.289	333.917	0.119	0.231
-474.274	-58.215	0.128	-0.056
-473.259	800.000	0.058	-0.165
-472.245	-152.263	0.241	-0.018
-471.230	-164.938	0.203	-0.009
-470.216	-200.000	-0.051	0.289
-469.201	-200.000	0.008	-0.038
-468.186	-91.468	-0.162	0.047
-467.172	-200.000	0.009	-0.114
-466.157	-82.478	0.153	-0.050
-465.143	-200.000	0.005	0.068
-464.128	91.603	-0.169	-0.191
-463.113	-143.730	0.113	-0.011
-462.099	-200.000	-0.009	-0.095
-461.084	-200.000	0.022	-0.218
-460.070	239.796	0.043	-0.071
-459.055	-164.777	0.260	0.012
-458.040	800.000	-0.042	-0.121
-457.026	-126.631	-0.078	-0.012
-456.011	800.000	0.036	0.146
-454.997	-138.371	-0.296	0.033
-453.982	70.314	-0.104	-0.108
-452.968	-172.137	-0.131	-0.004
-451.953	-133.496	-0.111	-0.014
-450.938	-200.000	0.108	0.548
-449.924	-200.000	0.003	0.375
-448.909	-47.470	0.248	-0.121
-447.895	-89.070	-0.090	0.027
-446.880	99.855	-0.111	-0.129
-445.865	-78.534	-0.137	0.047
-444.851	11.954	0.207	0.160
-443.836	-44.014	-0.235	-0.119
-442.822	23.137	0.345	-0.285
-441.807	-200.000	0.064	-0.428
-440.792	-61.169	-0.182	0.077
-439.778	89.062	-0.199	0.222
-438.763	268.195	-0.277	-0.488
-437.749	18.332	0.130	0.105
-436.734	-114.561	-0.165	-0.032
-435.719	56.558	-0.076	0.074
-434.705	44.913	-0.055	-0.051
-433.690	63.251	-0.049	-0.050
-432.676	-152.998	0.313	0.022
-431.661	-70.409	0.225	0.086
-430.646	550.205	-0.014	0.033
-429.632	95.280	-0.137	0.157
-428.617	64.497	0.164	-0.166
-427.603	-5.089	0.228	-0.157
-426.588	281.457	0.160	0.289
-425.573	35.108	0.201	0.177
-424.559	512.292	0.176	0.413
-423.544	82.967	-0.110	0.120
-422.530	-36.178	-0.101	0.055
-421.515	367.342	-0.100	-0.202
-420.500	72.130	0.223	0.233
-419.486	800.000	-0.065	-0.269
-418.471	-58.502	0.408	0.178
-417.457	-121.512	-0.121	0.020
-416.442	-200.000	0.004	-0.112
-415.428	672.374	-0.040	0.104
-414.413	-200.000	0.155	-0.000
-413.398	-26.264	0.250	-0.147
-412.384	-90.485	0.155	0.045
-411.369	6.119	0.166	-0.123
-410.355	-73.185	0.179	0.066
-409.340	16.535	-0.251	0.199
-408.325	129.428	0.040	-0.051
-407.311	154.212	0.056	-0.077
-406.296	-121.749	0.137	-0.023
-405.282	186.828	0.091	-0.136
-404.267	501.075	0.034	-0.078
-403.252	-127.943	0.289	-0.042
-402.238	130.932	-0.023	-0.030
-401.223	-200.000	-0.091	0.515
-400.209	-139.374	0.432	0.047
-399.194	-200.000	-0.014	-0.069
-398.179	-82.463	-0.186	0.060
-397.165	-158.324	0.412	0.024
-396.150	-65.263	-0.133	-0.054
-395.136	-118.429	-0.211	-0.038
-394.121	41.851	-0.011	-0.010
-393.106	800.000	-0.097	0.331
-392.092	-18.487	0.091	0.057
-391.077	193.739	0.003	0.004
-390.063	-67.716	0.163	0.064
-389.048	-127.808	0.060	-0.009
-388.033	-114.351	0.129	0.025
-387.019	113.453	-0.217	-0.264
-386.004	800.000	-0.089	0.313
-384.990	708.203	-0.095	0.253
-383.975	38.082	-0.376	0.336
-382.960	-200.000	-0.008	0.321
-381.946	800.000	-0.058	0.188
-380.931	-82.857	-0.106	0.034
-379.917	-200.000	0.055	-0.336
-378.902	800.000	-0.025	-0.098
-377.888	-53.957	-0.268	-0.122
-376.873	482.600	-0.076	0.174
-375.858	434.747	0.120	0.261
-374.844	-115.605	-0.050	-0.009
-373.829	-28.182	0.204	-0.118
-372.815	257.314	-0.085	0.147
-371.800	456.368	0.173	-0.385
-370.785	112.309	-0.187	-0.227
-369.771	-26.587	-0.192	-0.113
-368.756	100.982	-0.033	-0.038
-367.742	-119.263	-0.199	-0.035
-366.727	800.000	-0.052	0.158
-365.712	-200.000	0.010	-0.453
-364.698	59.741	-0.157	-0.156
-363.683	-108.932	0.459	0.098
-362.669	545.579	0.168	-0.403
-361.654	324.367	0.081	-0.154
-360.639	-97.968	0.261	-0.067
-359.625	-98.365	0.104	0.027
-358.610	24.780	0.231	-0.192
-357.596	174.910	0.075	0.109
-356.581	-47.775	0.238	0.116
-355.566	800.000	-0.137	0.472
-354.552	208.687	-0.153	0.239
-353.537	-200.000	-0.054	0.341
-352.523	300.653	-0.128	0.237
-351.508	800.000	-0.068	0.293
-350.493	-169.995	-0.220	0.008
-349.479	75.400	-0.118	0.124
-348.464	-200.000	-0.007	-0.147
-347.450	-76.726	0.327	-0.115
-346.435	-200.000	-0.000	0.075
-345.420	-105.534	-0.342	0.078
-344.406	-200.000	-0.010	-0.140
-343.391	-172.121	0.117	0.004
-342.377	132.503	0.005	-0.006
-341.362	-43.153	-0.057	0.029
-340.348	170.210	0.062	0.089
-339.333	-69.427	0.108	-0.042
-338.318	58.909	-0.271	-0.267
-337.304	-87.781	-0.257	0.077
-336.289	-45.058	-0.180	-0.090
-335.275	13.428	-0.226	0.175
-334.260	-93.890	0.150	0.041
-333.245	117.597	0.175	0.216
-332.231	-100.477	-0.308	-0.076
-331.216	120.311	-0.159	0.197
-330.202	437.582	-0.096	0.210
-329.187	-29.038	0.176	-0.101
-328.172	-200.000	-0.068	0.366
-327.158	-200.000	0.003	-0.021
-326.143	215.185	-0.181	0.287
-325.129	-9.780	0.292	0.195
-324.114	5.302	0.089	0.066
-323.099	-40.987	0.070	0.036
-322.085	-88.782	0.225	-0.067
-321.070	571.338	-0.166	0.405
-320.056	-200.000	0.029	0.160
-319.041	-26.579	-0.252	-0.148
-318.026	-107.539	0.137	0.030
-317.012	-115.819	-0.031	-0.006
-315.997	92.155	0.138	0.155
-314.983	335.215	-0.184	-0.357
-313.968	27.955	-0.263	0.222
-312.953	-200.000	0.030	-0.216
-311.939	-108.432	0.355	0.076
-310.924	-200.000	-0.029	0.160
-309.910	214.821	0.189	0.300
-308.895	239.126	-0.062	0.104
-307.880	-200.000	0.009	0.285
-306.866	-200.000	0.018	0.272
-305.851	-200.000	-0.012	-0.334
-304.837	-70.042	0.326	-0.124
-303.822	-70.448	-0.166	0.063
-302.807	3.321	-0.291	0.212
-301.793	-22.884	-0.171	-0.103
-300.778	-90.722	0.088	-0.025
-299.764	91.584	-0.016	0.018
-298.749	-68.468	-0.378	-0.147
-297.735	239.261	0.170	-0.282
-296.720	-3.960	-0.338	-0.234
-295.705	-154.484	-0.421	-0.028
-294.691	734.150	-0.101	0.271
-293.676	-175.691	-0.115	-0.003
-292.662	64.946	0.192	-0.194
-291.647	-18.406	0.155	0.097
-290.632	-11.810	0.168	0.110
-289.618	78.313	-0.052	0.056
-288.603	-97.579	0.313	-0.081
-287.589	-200.000	-0.021	-0.272
-286.574	-130.342	-0.102	-0.014
-285.559	85.553	-0.051	0.056
-284.545	51.796	-0.234	-0.222
-283.530	-96.309	0.301	-0.080
-282.516	76.566	0.100	0.105
-281.501	139.052	-0.126	0.165
-280.486	800.000	0.068	-0.234
-279.472	162.870	0.124	-0.174
-278.457	-200.000	0.003	0.121
-277.443	-110.440	0.244	-0.051
-276.428	136.344	0.010	-0.013
-275.413	64.554	-0.250	-0.252
-274.399	225.315	-0.052	-0.083
-273.384	-115.143	0.368	-0.070
-272.370	354.058	0.142	-0.283
-271.355	800.000	0.045	-0.160
-270.340	-56.010	0.315	0.140
-269.326	-166.384	-0.167	0.007
-268.311	57.107	0.147	-0.143
-267.297	-200.000	0.037	-0.178
-266.282	-40.594	0.106	-0.055
-265.267	405.147	0.092	-0.194
-264.253	-114.763	-0.348	-0.066
-263.238	207.157	-0.109	0.170
-262.224	207.621	0.073	-0.113
-261.209	-125.527	-0.053	-0.008
-260.195	67.428	0.219	0.224
-259.180	-138.681	0.463	-0.051
-258.165	-200.000	0.002	-0.240
-257.151	-200.000	-0.039	-0.254
-256.136	-200.000	-0.011	0.169
-255.122	-91.251	-0.265	0.076
-254.107	31.427	-0.137	-0.118
-253.092	1.641	-0.174	0.125
-252.078	113.413	0.082	0.099
-251.063	-57.459	-0.322	-0.141
-250.049	-109.194	0.281	-0.060
-249.034	75.628	0.371	-0.391
-248.019	352.714	-0.192	0.381
-247.005	127.514	0.098	-0.124
-245.990	-139.776	-0.227	-0.024
-244.976	-200.000	0.009	-0.061
-243.961	-83.698	-0.394	-0.125
-242.946	22.737	0.279	0.228
-241.932	-77.861	0.158	-0.054
-240.917	371.735	-0.036	-0.072
-239.903	26.136	0.095	-0.079
-238.888	9.536	-0.180	0.136
-237.873	800.000	-0.031	-0.096
-236.859	-200.000	-0.014	-0.149
-235.844	-34.122	-0.051	-0.028
-234.830	-51.181	0.229	0.107
-233.815	-147.015	-0.126	-0.011
-232.800	-200.000	0.043	0.455
-231.786	-200.000	-0.063	-0.300
-230.771	-35.199	-0.337	-0.183
-229.757	800.000	0.078	-0.222
-228.742	-200.000	-0.028	0.153
-227.727	-200.000	-0.067	-0.309
-226.713	-88.478	0.298	0.088
-225.698	69.483	-0.115	-0.118
-224.684	81.443	-0.129	-0.139
-223.669	370.334	0.069	-0.139
-222.655	116.559	0.150	-0.183
-221.640	800.000	0.059	0.235
-220.625	134.808	0.063	-0.081
-219.611	457.335	-0.167	0.369
-218.596	-83.012	0.599	-0.193
-217.582	-130.679	0.285	-0.038
-216.567	222.109	-0.080	0.128
-215.552	331.626	0.137	0.263
-214.538	96.625	-0.180	-0.205
-213.523	-200.000	-0.036	-0.213
-212.509	-200.000	-0.003	0.274
-211.494	20.868	0.103	0.083
-210.479	-77.535	-0.092	-0.032
-209.465	41.418	0.119	-0.107
-208.450	800.000	0.076	-0.294
-207.436	-41.319	0.107	0.055
-206.421	-61.948	-0.342	0.143
-205.406	62.750	-0.072	0.072
-204.392	78.715	-0.243	0.259
-203.377	-38.377	0.337	0.177
-202.363	800.000	-0.081	-0.239
-201.348	-135.800	-0.191	0.022
-200.333	-200.000	-0.025	-0.231
-199.319	-200.000	0.040	0.188
-198.304	355.436	-0.031	0.062
-197.290	800.000	-0.110	0.351
-196.275	53.214	-0.181	0.173
-195.260	277.753	0.071	0.126
-194.246	-143.232	0.132	-0.013
-193.231	-121.457	0.095	-0.016
-192.217	56.771	0.108	0.105
-191.202	-86.395	-0.234	0.071
-190.187	93.985	-0.119	0.135
-189.173	800.000	0.038	0.136
-188.158	-71.783	-0.112	-0.042
-187.144	48.071	0.173	0.161
-186.129	800.000	0.019	-0.077
-185.114	-25.124	-0.364	0.215
-184.100	289.288	0.137	0.248
-183.085	-63.718	0.063	0.026
-182.071	-62.629	0.343	-0.142
-181.056	800.000	-0.068	-0.268
-180.042	76.422	0.155	0.163
-179.027	-200.000	0.066	-0.471
-178.012	-38.766	0.208	-0.109
-176.998	636.414	-0.038	0.095
-175.983	-129.166	0.091	0.013
-174.969	800.000	0.018	0.059
-173.954	-200.000	-0.024	-0.190
-172.939	236.486	0.067	-0.110
-171.925	-83.444	0.060	-0.019
-170.910	-200.000	-0.002	0.374
-169.896	583.946	0.044	0.108
-168.881	-115.122	0.020	0.004
-167.866	-42.401	0.168	0.085
-166.852	-0.893	-0.280	0.197
-165.837	-71.338	-0.138	0.051
-164.823	-31.988	-0.192	-0.107
-163.808	-167.658	-0.327	0.013
-162.793	17.467	0.062	0.049
-161.779	-200.000	0.015	0.223
-160.764	6.828	-0.086	-0.064
-159.750	-200.000	-0.012	-0.156
-158.735	33.152	-0.433	0.374
-157.720	-33.085	-0.256	0.141
-156.706	-200.000	-0.002	-0.066
-155.691	-200.000	-0.024	-0.185
-154.677	64.251	0.185	-0.185
-153.662	200.421	0.032	0.048
-152.647	284.041	0.013	0.022
-151.633	227.344	-0.261	0.422
-150.618	-118.238	-0.528	0.093
-149.604	252.215	0.137	0.232
-148.589	-30.159	0.194	0.110
-147.574	222.331	0.133	0.212
-146.560	-200.000	0.001	0.250
-145.545	-47.139	0.170	0.082
-144.531	-200.000	0.037	0.167
-143.516	-142.756	0.334	0.032
-142.502	197.115	0.053	-0.080
-141.487	800.000	0.077	-0.288
-140.472	96.943	-0.092	-0.105
-139.458	-200.000	0.007	-0.239
-138.443	218.090	-0.186	-0.295
-137.429	-164.398	-0.134	-0.006
-136.414	800.000	-0.083	-0.242
-135.399	33.442	-0.154	-0.133
-134.385	-53.475	-0.303	-0.138
-133.370	569.700	-0.065	-0.156
-132.356	-200.000	-0.003	0.207
-131.341	99.215	-0.099	0.114
-130.326	800.000	0.064	0.267
-129.312	-45.770	-0.219	0.107
-128.297	-178.316	0.360	0.008
-127.283	-52.535	0.230	0.106
-126.268	22.129	-0.287	-0.233
-125.253	-81.697	-0.146	0.048
-124.239	173.297	-0.157	0.225
-123.224	-17.635	0.143	-0.089
-122.210	800.000	-0.082	0.294
-121.195	-185.670	-0.069	-0.001
-120.180	-163.943	0.259	-0.012
-119.166	-200.000	-0.032	0.195
-118.151	800.000	-0.061	-0.223
-117.137	-187.391	-0.168	0.002
-116.122	-200.000	-0.018	-0.112
-115.107	-43.575	0.325	-0.163
-114.093	-200.000	0.020	-0.228
-113.078	2.062	-0.073	-0.052
-112.064	-44.826	-0.030	-0.015
-111.049	-49.425	0.195	-0.092
-110.034	358.901	-0.070	-0.138
-109.020	73.516	-0.329	-0.342
-108.005	-200.000	0.027	0.198
-106.991	75.512	-0.080	0.084
-105.976	61.834	0.143	0.141
-104.962	800.000	-0.060	0.232
-103.947	630.521	-0.135	0.339
-102.932	-200.000	0.029	0.294
-101.918	343.746	0.106	-0.207
-100.903	-200.000	-0.014	-0.076
-99.889	-200.000	-0.022	0.181
-98.874	754.939	-0.092	-0.247
-97.859	-29.566	0.085	0.048
-96.845	-3.970	0.260	-0.179
-95.830	-51.278	0.234	0.109
-94.816	21.903	-0.119	-0.096
-93.801	135.684	-0.126	-0.163
-92.786	712.002	-0.052	0.136
-91.772	239.323	0.196	-0.324
-90.757	-47.852	-0.261	-0.125
-89.743	388.883	-0.234	0.481
-88.728	-180.688	-0.263	-0.005
-87.713	-200.000	-0.038	-0.269
-86.699	42.293	-0.160	0.144
-85.684	170.115	-0.054	0.077
-84.670	271.166	-0.214	-0.373
-83.655	31.586	-0.178	0.152
-82.640	-200.000	0.024	0.322
-81.626	315.523	-0.035	-0.066
-80.611	53.394	0.288	-0.273
-79.597	800.000	0.053	-0.187
-78.582	-1.442	-0.162	0.113
-77.567	-200.000	-0.003	-0.159
-76.553	-200.000	0.043	-0.379
-75.538	203.949	-0.245	0.375
-74.524	-117.682	-0.321	0.057
-73.509	54.349	0.237	0.226
-72.494	-142.273	0.218	-0.021
-71.480	68.315	-0.092	-0.093
-70.465	-200.000	-0.022	-0.227
-69.451	-121.852	0.581	-0.095
-68.436	-36.600	0.391	0.208
-67.422	45.587	0.072	-0.066
-66.407	-181.321	0.334	-0.007
-65.392	-109.752	0.156	0.032
-64.378	-33.941	0.073	0.040
-63.363	-78.174	-0.157	0.053
-62.349	-183.212	0.248	0.004
-61.334	134.193	-0.680	-0.873
-60.319	153.694	0.345	0.468
-59.305	800.000	-0.244	-0.976
-58.290	800.000	0.318	0.877
-57.276	257.224	0.793	1.350
-56.261	-200.000	96.418	542.439
-55.246	579.356	1383.840	3354.551
-54.232	183.094	2624.290	3836.958
-53.217	118.830	2202.249	2693.916
-52.203	47.092	1652.071	1521.850
-51.188	39.264	1384.217	1226.499
-50.173	36.055	1340.376	1168.192
-49.159	56.474	1389.544	1337.571
-48.144	60.810	1407.683	1381.724
-47.130	39.511	1361.750	1207.917
-46.115	35.928	1343.656	1170.091
-45.100	35.721	1339.050	1164.777
-44.086	35.725	1336.740	1162.751
-43.071	35.690	1334.227	1160.304
-42.057	35.579	1331.844	1157.518
-41.042	35.616	1330.357	1156.400
-40.027	35.734	1328.776	1155.693
-39.013	35.719	1326.607	1153.667
-37.998	35.700	1324.950	1152.067
-36.984	35.794	1322.902	1150.807
-35.969	35.878	1320.988	1149.596
-34.954	35.813	1319.410	1147.787
-33.940	35.844	1318.105	1146.794
-32.925	35.959	1316.388	1145.936
-31.911	36.047	1315.092	1145.286
-30.896	35.978	1313.412	1143.368
-29.881	35.939	1312.331	1142.150
-28.867	35.977	1310.535	1140.771
-27.852	35.986	1309.265	1139.674
-26.838	35.897	1307.958	1137.960
-25.823	35.799	1306.764	1136.299
-24.809	35.842	1305.096	1135.059
-23.794	35.878	1303.809	1134.105
-22.779	35.769	1302.231	1132.048
-21.765	35.818	1301.460	1131.621
-20.750	35.901	1299.472	1130.333
-19.736	35.650	1298.433	1127.912
-18.721	35.746	1297.060	1127.237
-17.706	35.721	1295.172	1125.408
-16.692	35.712	1294.542	1124.761
-15.677	35.697	1293.275	1123.527
-14.663	35.763	1291.813	1122.599
-13.648	35.746	1290.997	1121.745
-12.633	35.749	1290.042	1120.887
-11.619	35.700	1289.603	1120.175
-10.604	35.725	1288.552	1119.366
-9.590	35.718	1287.149	1118.062
-8.575	35.687	1286.468	1117.247
-7.560	35.693	1285.837	1116.688
-6.546	35.758	1284.820	1116.139
-5.531	35.716	1283.742	1114.914
-4.517	35.655	1282.991	1113.860
-3.502	35.802	1281.877	1113.704
-2.487	35.681	1281.069	1112.259
-1.473	35.641	1276.447	1107.971
-0.458	33.794	1260.853	1083.859
0.556	27.031	1240.645	1037.258
1.571	22.612	1244.676	1015.152
2.586	21.539	1260.070	1021.358
3.600	20.990	1249.376	1009.422
4.615	15.057	1175.634	917.342
5.629	4.814	1096.071	802.612
6.644	0.051	1073.633	762.022
7.659	-0.272	1070.738	758.266
8.673	-0.398	1069.632	756.781
9.688	-0.599	1068.356	754.799
10.702	-0.200	1066.747	755.603
11.717	5.680	1075.499	791.505
12.731	14.833	1088.411	847.544
13.746	17.956	1091.584	865.797
14.761	17.477	1090.470	862.412
15.775	17.242	1089.748	860.577
16.790	16.833	1089.043	857.870
17.804	16.773	1088.151	856.788
18.819	16.823	1087.708	856.618
19.834	16.822	1086.581	855.652
20.848	16.695	1086.939	855.214
21.863	16.668	1086.041	854.297
22.877	16.708	1085.293	853.836
23.892	16.648	1085.112	853.315
24.907	16.661	1084.149	852.548
25.921	16.830	1082.873	852.316
26.936	16.769	1081.519	850.870
27.950	16.865	1079.251	849.492
28.965	16.701	1077.546	847.251
29.980	16.897	1075.286	846.382
30.994	16.893	1074.596	845.744
32.009	16.818	1073.322	844.290
33.023	16.743	1071.359	842.302
34.038	16.697	1071.104	841.794
35.053	16.747	1070.734	841.680
36.067	16.845	1069.414	841.055
37.082	16.900	1068.611	840.619
38.096	17.051	1068.019	840.827
39.111	17.054	1066.995	839.963
40.126	17.024	1065.306	838.409
41.140	16.729	1063.389	835.372
42.155	16.596	1062.035	833.579
43.169	16.651	1061.065	833.014
44.184	16.638	1059.752	831.847
45.199	16.396	1059.008	830.002
46.213	16.522	1057.830	829.624
47.228	16.641	1056.208	828.858
48.242	16.567	1054.983	827.464
49.257	16.600	1054.355	827.059
50.271	16.743	1053.126	826.722
51.286	16.678	1052.526	825.859
52.301	16.852	1051.079	825.498
53.315	16.831	1050.182	824.616
54.330	16.731	1049.602	823.601
55.344	16.773	1048.175	822.613
56.359	16.706	1047.149	821.413
57.374	16.737	1046.364	820.871
58.388	16.717	1045.645	820.140
59.403	16.646	1044.870	819.114
60.417	16.556	1043.900	817.848
61.432	16.688	1042.906	817.632
62.447	16.744	1042.058	817.166
63.461	16.737	1041.304	816.468
64.476	16.800	1040.205	815.840
65.490	16.689	1039.432	814.628
66.505	16.635	1038.825	813.819
67.520	16.771	1037.764	813.570
68.534	16.520	1037.100	811.772
69.549	16.422	1035.700	810.133
70.563	16.357	1035.165	809.331
71.578	16.544	1034.062	809.294
72.593	16.349	1033.503	807.851
73.607	16.426	1032.853	807.639
74.622	16.722	1032.263	808.522
75.636	16.757	1031.380	807.925
76.651	16.538	1030.526	806.139
77.666	16.543	1029.461	805.259
78.680	16.652	1028.772	805.167
79.695	16.627	1028.417	804.702
80.709	16.755	1027.701	804.679
81.724	16.602	1026.593	803.012
82.739	16.611	1026.174	802.656
83.753	16.849	1024.841	802.672
84.768	16.924	1023.752	802.103
85.782	16.972	1022.907	801.594
86.797	16.897	1021.732	800.247
87.812	16.778	1020.622	798.747
88.826	16.939	1019.732	798.740
89.841	16.881	1018.867	797.717
90.855	16.919	1017.572	796.811
91.870	16.998	1016.630	796.376
92.884	16.833	1015.784	794.871
93.899	16.746	1014.842	793.654
94.914	16.983	1013.816	793.890
95.928	16.672	1013.366	792.012
96.943	16.645	1011.989	790.741
97.957	16.480	1010.281	788.567
98.972	16.353	1008.976	786.886
99.987	16.540	1008.469	787.290
101.001	16.833	1007.355	787.714
102.016	16.753	1006.802	786.840
103.030	16.619	1005.189	784.889
104.045	16.481	1004.860	783.921
105.060	16.322	1003.506	782.062
106.074	16.492	1003.174	782.518
107.089	16.839	1001.932	783.085
108.103	16.871	1001.154	782.555
109.118	16.792	1000.071	781.274
110.133	16.773	998.642	780.001
111.147	16.550	997.723	778.190
112.162	16.464	996.515	776.783
113.176	16.699	996.078	777.456
114.191	16.557	994.798	775.737
115.206	16.430	993.351	773.955
116.220	16.379	992.946	773.338
117.235	16.574	991.926	773.369
118.249	16.548	990.887	772.370
119.264	16.534	990.508	771.943
120.279	16.611	989.483	771.425
121.293	16.747	988.189	770.968
122.308	16.695	987.477	770.110
123.322	16.556	986.367	768.541
124.337	16.465	985.080	767.060
125.352	16.074	983.505	763.992
126.366	16.123	981.740	762.778
127.381	16.644	981.651	764.993
128.395	16.981	980.652	765.669
129.410	16.990	979.841	765.011
130.424	16.952	978.678	763.864
131.439	16.714	978.151	762.315
132.454	16.804	977.443	762.097
133.468	16.878	976.496	761.624
134.483	16.956	975.776	761.344
135.497	17.089	975.009	761.275
136.512	17.004	973.649	759.766
137.527	17.105	972.819	759.504
138.541	17.222	971.699	759.085
139.556	17.330	970.676	758.700
140.570	17.153	970.061	757.362
141.585	16.965	969.135	755.738
142.600	16.977	967.717	754.619
143.614	17.210	967.063	755.074
144.629	17.174	966.487	754.401
145.643	17.165	965.098	753.209
146.658	16.959	964.277	751.588
147.673	17.005	963.196	750.882
148.687	16.956	962.236	749.852
149.702	16.888	961.463	748.881
150.716	16.908	960.397	748.075
151.731	16.981	959.834	747.890
152.746	17.266	958.904	748.358
153.760	17.478	957.974	748.497
154.775	17.257	957.509	747.093
155.789	17.263	956.494	746.264
156.804	17.193	955.653	745.233
157.819	17.137	955.009	744.420
158.833	17.245	954.228	744.218
159.848	17.246	952.848	743.082
160.862	17.148	951.768	741.744
161.877	17.260	950.955	741.533
162.892	17.303	949.979	740.896
163.906	17.213	949.361	739.957
164.921	17.174	948.558	739.096
165.935	17.258	947.229	738.361
166.950	17.130	946.351	737.053
167.964	17.233	945.426	736.717
168.979	17.063	944.321	735.051
169.994	16.982	943.696	734.151
171.008	17.230	942.430	734.171
172.023	17.209	941.502	733.292
173.037	16.973	940.394	731.348
174.052	16.922	939.772	730.580
175.067	17.060	939.361	730.790
176.081	17.123	939.015	730.728
177.096	17.117	938.073	729.904
178.110	17.020	936.791	728.424
179.125	16.863	936.251	727.269
180.140	16.946	935.900	727.287
181.154	16.930	935.242	726.642
182.169	17.190	934.947	727.462
183.183	17.379	933.979	727.453
184.198	17.160	933.321	725.939
185.213	17.318	932.274	725.738
186.227	17.209	932.104	725.075
187.242	17.186	931.289	724.278
188.256	17.271	930.748	724.155
189.271	17.174	929.901	723.020
190.286	17.101	928.617	721.647
191.300	16.707	927.569	719.095
192.315	16.107	926.276	715.483
193.329	16.118	925.980	715.238
194.344	16.781	925.917	717.936
195.359	17.177	925.347	719.110
196.373	17.143	924.387	718.156
197.388	17.014	923.911	717.179
198.402	16.948	923.141	716.237
199.417	16.868	922.574	715.398
200.432	16.563	921.339	713.088
201.446	16.498	920.808	712.342
202.461	16.542	919.909	711.768
203.475	15.750	918.275	707.112
204.490	15.355	917.045	704.446
205.504	16.273	917.115	708.291
206.519	16.855	917.166	710.709
207.534	16.845	916.929	710.421
208.548	17.295	916.721	712.083
209.563	16.989	915.532	709.816
210.577	16.920	914.852	708.937
211.592	17.199	914.486	709.754
212.607	17.230	913.232	708.849
213.621	17.314	912.528	708.589
214.636	17.219	911.907	707.647
215.650	17.271	911.103	707.179
216.665	17.375	910.747	707.273
217.680	17.167	909.733	705.560
218.694	16.778	908.483	702.912
219.709	16.814	907.790	702.462
220.723	17.160	907.250	703.416
221.738	17.286	906.429	703.240
222.753	17.201	905.841	702.368
223.767	17.327	905.388	702.478
224.782	17.371	904.967	702.269
225.796	17.245	904.244	701.125
226.811	16.826	903.227	698.548
227.826	16.422	901.540	695.519
228.840	16.723	900.668	696.024
229.855	16.783	900.193	695.841
230.869	16.399	898.938	693.235
231.884	16.775	899.277	694.979
232.899	17.322	899.021	696.962
233.913	17.262	898.035	695.890
234.928	17.373	897.397	695.788
235.942	17.279	897.291	695.258
236.957	17.218	896.070	694.003
237.972	17.147	895.738	693.393
238.986	17.227	894.821	692.949
240.001	17.076	894.309	691.875
241.015	17.299	893.657	692.217
242.030	17.292	892.770	691.441
243.045	17.405	892.507	691.634
244.059	17.625	891.391	691.602
245.074	17.371	890.538	689.851
246.088	17.057	889.135	687.430
247.103	17.201	889.049	687.885
248.117	17.537	889.082	689.209
249.132	17.582	888.312	688.733
250.147	17.624	887.442	688.168
251.161	17.738	887.053	688.267
252.176	17.727	886.256	687.545
253.190	17.880	885.430	687.459
254.205	18.033	884.920	687.617
255.220	17.942	884.648	686.977
256.234	17.784	883.822	685.642
257.249	17.775	882.757	684.718
258.263	17.901	882.030	684.599
259.278	17.894	881.411	684.028
260.293	17.960	880.477	683.506
261.307	17.829	879.819	682.412
262.322	17.507	879.089	680.499
263.336	17.024	876.823	676.760
264.351	15.899	875.383	671.106
265.366	16.149	874.562	671.415
266.380	17.101	875.682	676.005
267.395	17.529	875.282	677.340
268.409	17.518	874.489	676.624
269.424	17.732	873.712	676.811
270.439	17.831	872.954	676.556
271.453	17.924	872.540	676.543
272.468	18.029	872.457	676.838
273.482	18.090	871.540	676.308
274.497	17.675	870.334	673.670
275.512	17.376	869.323	671.650
276.526	17.558	869.317	672.303
277.541	17.848	868.550	672.793
278.555	17.655	867.364	671.055
279.570	17.534	866.588	669.920
280.585	17.521	866.326	669.609
281.599	17.708	865.233	669.438
282.614	17.276	864.141	666.839
283.628	17.223	863.913	666.394
284.643	17.590	863.447	667.416
285.657	17.129	862.503	664.824
286.672	17.056	861.277	663.535
287.687	17.393	861.370	664.864
288.701	17.640	860.454	665.063
289.716	17.270	859.556	662.868
290.730	17.074	859.180	661.752
291.745	16.956	857.793	660.167
292.760	17.043	857.877	660.513
293.774	17.933	857.823	663.875
294.789	18.198	857.615	664.685
295.803	18.351	857.186	664.888
296.818	18.441	856.187	664.404
297.833	18.040	854.990	661.860
298.847	18.020	854.156	661.082
299.862	18.256	853.992	661.810
300.876	18.185	853.620	661.188
301.891	18.105	852.764	660.157
302.906	17.691	851.907	657.836
303.920	17.653	851.869	657.604
304.935	18.108	851.006	658.631
305.949	18.172	850.235	658.224
306.964	18.093	849.975	657.661
307.979	18.163	849.401	657.425
308.993	18.460	848.864	658.092
310.008	18.396	848.460	657.478
311.022	18.268	847.126	655.895
312.037	18.191	846.961	655.412
313.052	17.932	846.430	653.953
314.066	17.363	844.642	650.337
315.081	17.175	844.185	649.211
316.095	17.884	844.125	651.815
317.110	18.170	843.743	652.552
318.125	17.433	842.591	648.797
319.139	16.888	841.640	645.930
320.154	16.913	840.976	645.461
321.168	17.532	841.369	648.062
322.183	17.967	840.885	649.285
323.197	18.245	840.554	650.027
324.212	18.282	840.319	649.928
325.227	18.202	839.768	649.143
326.241	18.169	839.116	648.457
327.256	18.155	838.534	647.893
328.270	18.041	837.722	646.779
329.285	17.986	836.945	645.915
330.300	17.987	836.092	645.202
331.314	18.143	835.426	645.218
332.329	18.263	835.317	645.530
333.343	18.385	834.642	645.412
334.358	18.354	834.744	645.317
335.373	18.459	833.844	644.958
336.387	18.620	834.049	645.667
337.402	18.783	833.543	645.829
338.416	18.510	832.966	644.300
339.431	18.518	832.844	644.177
340.446	18.527	832.368	643.786
341.460	18.454	831.776	642.998
342.475	18.431	831.125	642.351
343.489	18.443	830.656	641.978
344.504	18.501	830.586	642.085
345.519	18.670	830.415	642.527
346.533	18.808	829.727	642.455
347.548	18.732	829.615	642.029
348.562	18.806	828.975	641.751
349.577	18.983	828.089	641.669
350.592	18.911	827.611	640.976
351.606	19.026	826.407	640.412
352.621	19.003	825.424	639.508
353.635	18.831	825.042	638.518
354.650	18.257	823.732	635.316
355.665	17.592	822.221	631.630
356.679	17.821	822.022	632.270
357.694	18.150	821.828	633.283
358.708	18.213	820.808	632.674
359.723	18.509	821.156	633.983
360.738	18.678	820.715	634.208
361.752	18.858	819.849	634.149
362.767	19.022	819.652	634.545
363.781	19.022	819.237	634.167
364.796	19.274	818.737	634.654
365.810	19.282	818.066	634.105
366.825	19.238	817.859	633.729
367.840	18.943	817.170	632.054
368.854	18.677	816.576	630.560
369.869	18.856	815.981	630.704
370.883	18.739	815.345	629.726
371.898	18.712	814.754	629.116
372.913	18.613	814.713	628.665
373.927	18.901	814.246	629.305
374.942	18.993	814.066	629.446
375.956	19.009	813.329	628.877
376.971	19.168	812.632	628.864
377.986	19.164	812.444	628.649
379.000	18.999	812.136	627.752
380.015	19.012	811.360	627.144
381.029	19.028	810.825	626.734
382.044	19.134	810.015	626.439
383.059	19.177	809.582	626.204
384.073	19.089	809.526	625.787
385.088	19.240	808.902	625.795
386.102	19.103	808.116	624.636
387.117	19.141	807.439	624.196
388.132	18.899	806.493	622.534
389.146	18.219	805.918	619.572
390.161	18.684	805.185	620.634
391.175	18.878	804.886	621.051
392.190	18.763	803.998	619.895
393.205	17.770	802.495	615.103
394.219	16.818	801.086	610.540
395.234	16.813	800.949	610.365
396.248	18.052	801.993	615.569
397.263	19.159	802.462	619.862
398.278	19.093	802.088	619.280
399.292	19.014	801.659	618.613
400.307	19.152	800.700	618.314
401.321	19.080	800.556	617.888
402.336	19.354	800.223	618.558
403.350	19.471	799.835	618.626
404.365	19.707	799.689	619.302
405.380	19.737	799.484	619.197
406.394	19.782	798.583	618.605
407.409	19.744	798.012	617.973
408.423	19.547	797.655	616.935
409.438	19.783	797.433	617.551
410.453	20.016	796.888	617.907
411.467	19.836	796.688	617.058
412.482	19.795	796.128	616.421
413.496	19.848	795.712	616.234
414.511	19.848	795.691	616.164
415.526	19.720	794.817	614.976
416.540	19.668	794.572	614.546
417.555	19.427	793.580	612.870
418.569	19.541	793.366	613.057
419.584	19.641	792.287	612.524
420.599	19.305	792.048	611.091
421.613	153.754	1359.553	1789.727
422.628	133.169	1442.244	1789.845
