DTS Sentinel unit serial number:	SN413079Multiplexer serial number:	ORYXHardware model number:	OX4-SRSoftware version number:	ORYX F/W v4.00 Oryx Data Collector v3.7.2.0data status	okinstallation	princeton_trtdifferential loss correction	single-endedforward channel	channel 1reverse channel	N/Adate	2019/09/14time	07:58:35forward acquisition time	60.00reverse acquisition time	0.00gamma	496.2192k internal	0.2334k external	0.2334temperature offset calibration	1.0071default loss term (dB/km)	0.3790temperature slope calibration	1.0000multiplexer offset coefficient	1.0000multiplexer slope coefficient	1.0000fibre end	0.00T internal ref (°C)	26.77T ext. ref 1 (°C)	3.52T ext. ref 2 (°C)	24.14length (m)	temperature (°C)	Stokes	anti-Stokes-747.200	-127.071	-0.096	0.014
-746.185	800.000	0.067	0.270
-745.171	36.047	-0.189	-0.168
-744.156	-52.947	-0.303	0.140
-743.142	-100.407	0.044	0.011
-742.127	127.982	0.219	0.280
-741.112	-148.024	-0.230	0.019
-740.098	-107.337	-0.108	0.024
-739.083	800.000	0.067	0.273
-738.069	294.794	0.147	0.270
-737.054	-200.000	0.010	0.330
-736.039	-124.645	-0.309	-0.048
-735.025	-89.438	0.227	-0.067
-734.010	40.569	0.084	0.076
-732.996	-105.008	-0.220	-0.051
-731.981	-200.000	0.047	0.253
-730.966	800.000	0.023	0.086
-729.952	241.030	-0.199	-0.334
-728.937	-85.495	-0.033	-0.010
-727.923	-200.000	0.023	-0.404
-726.908	-100.396	-0.362	0.090
-725.894	800.000	-0.039	-0.159
-724.879	156.612	-0.166	-0.231
-723.864	-200.000	0.031	-0.372
-722.850	118.330	0.052	-0.065
-721.835	-91.121	-0.078	-0.023
-720.821	180.670	-0.069	0.102
-719.806	118.180	0.251	-0.311
-718.791	41.135	-0.197	-0.178
-717.777	-200.000	0.019	-0.218
-716.762	-65.750	0.048	-0.019
-715.748	-144.857	0.084	-0.008
-714.733	-140.423	0.042	-0.004
-713.718	7.514	0.260	-0.195
-712.704	615.286	-0.098	-0.246
-711.689	544.581	-0.042	-0.102
-710.675	-137.786	0.180	-0.020
-709.660	30.994	0.034	-0.029
-708.645	800.000	0.050	-0.194
-707.631	172.159	0.046	-0.066
-706.616	-108.034	-0.265	0.058
-705.602	724.670	-0.125	0.335
-704.587	42.729	0.157	-0.143
-703.572	-200.000	0.007	0.496
-702.558	121.358	0.151	0.188
-701.543	-200.000	-0.036	0.174
-700.529	-118.240	0.325	-0.058
-699.514	446.524	-0.164	0.362
-698.499	154.113	0.162	0.223
-697.485	-200.000	-0.014	0.096
-696.470	28.532	0.195	-0.165
-695.456	273.502	-0.018	0.031
-694.441	45.564	0.082	-0.076
-693.426	164.350	-0.088	0.124
-692.412	-200.000	-0.045	0.256
-691.397	72.919	0.164	-0.172
-690.383	7.132	-0.219	-0.164
-689.368	-32.315	-0.319	-0.179
-688.354	-47.320	-0.178	-0.087
-687.339	800.000	0.054	-0.154
-686.324	38.867	-0.302	-0.270
-685.310	800.000	-0.048	-0.140
-684.295	1.459	-0.248	0.179
-683.281	-200.000	-0.027	-0.184
-682.266	-200.000	-0.002	-0.174
-681.251	209.801	-0.069	-0.109
-680.237	-200.000	0.002	-0.068
-679.222	800.000	0.052	0.162
-678.208	7.367	0.187	-0.140
-677.193	-69.108	-0.402	-0.155
-676.178	-69.155	-0.120	-0.046
-675.164	-62.493	-0.083	0.035
-674.149	-53.263	-0.065	-0.030
-673.135	105.592	-0.052	0.062
-672.120	463.988	-0.134	-0.301
-671.105	-92.035	-0.245	-0.070
-670.091	-26.599	-0.078	-0.045
-669.076	623.558	0.115	-0.291
-668.062	21.866	0.411	-0.336
-667.047	21.448	-0.127	0.104
-666.032	-57.284	0.049	-0.022
-665.018	-200.000	0.008	-0.113
-664.003	156.893	-0.094	0.130
-662.989	56.428	-0.063	0.061
-661.974	82.963	-0.025	-0.027
-660.959	-69.645	-0.204	-0.078
-659.945	-200.000	0.012	0.064
-658.930	-200.000	-0.000	0.124
-657.916	191.198	-0.203	0.306
-656.901	-84.281	0.047	-0.015
-655.886	-105.488	-0.261	0.059
-654.872	800.000	0.144	0.441
-653.857	-200.000	0.019	0.122
-652.843	561.211	-0.154	0.372
-651.828	-43.477	-0.239	-0.121
-650.814	800.000	0.113	-0.314
-649.799	-25.421	0.146	-0.086
-648.784	0.702	-0.238	-0.170
-647.770	619.038	0.014	-0.035
-646.755	-56.442	-0.181	-0.080
-645.741	113.265	-0.260	0.315
-644.726	524.223	-0.130	0.306
-643.711	566.738	-0.056	-0.137
-642.697	-200.000	-0.023	0.246
-641.682	-200.000	0.004	-0.308
-640.668	-200.000	0.007	-0.082
-639.653	61.664	0.117	-0.116
-638.638	1.557	-0.103	-0.074
-637.624	-146.959	-0.044	-0.004
-636.609	427.622	0.181	-0.392
-635.595	-200.000	0.003	-0.533
-634.580	64.226	-0.278	0.280
-633.565	-159.347	-0.256	-0.014
-632.551	800.000	-0.117	0.342
-631.536	-76.953	0.099	0.035
-630.522	14.580	0.336	-0.262
-629.507	-200.000	0.022	0.180
-628.492	139.216	-0.195	0.257
-627.478	566.969	0.060	0.146
-626.463	249.052	0.095	-0.162
-625.449	800.000	-0.033	0.096
-624.434	-154.976	-0.251	0.016
-623.419	800.000	0.105	0.312
-622.405	-90.821	0.230	-0.066
-621.390	-145.074	0.146	0.013
-620.376	192.263	-0.174	-0.263
-619.361	-19.457	-0.254	-0.157
-618.346	-24.971	0.092	0.054
-617.332	108.081	0.198	-0.236
-616.317	12.492	-0.332	-0.256
-615.303	363.943	0.072	0.146
-614.288	-200.000	-0.003	-0.058
-613.273	-157.535	0.101	-0.006
-612.259	159.417	-0.131	-0.182
-611.244	314.118	0.078	-0.148
-610.230	646.898	0.076	-0.193
-609.215	-200.000	-0.023	0.550
-608.201	182.282	-0.090	0.132
-607.186	-200.000	-0.048	0.402
-606.171	41.839	-0.125	0.114
-605.157	-199.025	0.091	0.000
-604.142	24.065	-0.296	0.244
-603.128	800.000	-0.020	0.068
-602.113	28.937	0.143	0.121
-601.098	-200.000	-0.020	-0.156
-600.084	126.444	0.113	0.142
-599.069	86.269	0.116	-0.128
-598.055	-200.000	-0.003	0.370
-597.040	-200.000	-0.016	-0.233
-596.025	-200.000	-0.014	0.224
-595.011	-200.000	0.052	0.369
-593.996	-32.749	-0.159	0.088
-592.982	338.735	-0.059	-0.114
-591.967	-15.023	-0.268	0.172
-590.952	800.000	0.124	0.374
-589.938	35.729	-0.104	-0.091
-588.923	-200.000	0.033	-0.216
-587.909	194.746	0.290	-0.440
-586.894	-132.866	-0.440	-0.056
-585.879	-25.424	-0.278	0.164
-584.865	-26.466	0.305	0.179
-583.850	-50.976	0.078	0.037
-582.836	9.505	-0.245	0.185
-581.821	660.982	0.014	-0.037
-580.806	-200.000	-0.033	-0.223
-579.792	38.298	-0.240	0.214
-578.777	-91.624	0.162	-0.046
-577.763	100.052	0.203	-0.235
-576.748	348.813	0.141	-0.279
-575.733	-49.768	0.152	-0.072
-574.719	6.498	-0.056	0.042
-573.704	710.632	0.084	0.223
-572.690	-31.292	0.283	0.159
-571.675	-200.000	-0.053	-0.231
-570.661	113.772	0.201	0.244
-569.646	-200.000	-0.016	-0.162
-568.631	-200.000	-0.030	0.246
-567.617	268.637	0.099	-0.173
-566.602	-79.155	-0.175	-0.059
-565.588	-168.075	0.297	-0.012
-564.573	166.650	0.118	0.167
-563.558	-200.000	0.003	0.117
-562.544	83.804	0.110	0.119
-561.529	190.262	0.156	0.234
-560.515	486.858	0.020	0.046
-559.500	541.678	-0.033	-0.079
-558.485	-81.693	0.138	-0.045
-557.471	-105.963	-0.089	-0.020
-556.456	443.793	-0.141	-0.308
-555.442	446.121	0.061	-0.133
-554.427	85.446	-0.149	-0.163
-553.412	754.119	-0.079	-0.213
-552.398	-57.470	-0.178	-0.078
-551.383	-76.335	0.059	0.021
-550.369	-42.717	0.122	0.062
-549.354	800.000	0.015	-0.058
-548.339	-97.507	0.231	-0.060
-547.325	-20.204	-0.254	0.156
-546.310	-19.247	0.169	-0.105
-545.296	-114.768	-0.251	-0.048
-544.281	47.663	-0.045	-0.041
-543.266	80.648	0.250	0.269
-542.252	-136.314	-0.281	-0.033
-541.237	-56.151	0.082	0.036
-540.223	193.446	0.046	0.069
-539.208	-77.487	-0.253	0.087
-538.193	198.249	-0.026	-0.040
-537.179	-69.635	0.116	0.044
-536.164	45.144	0.245	0.226
-535.150	-152.860	-0.103	0.007
-534.135	720.553	-0.036	-0.096
-533.121	800.000	0.025	-0.104
-532.106	-24.666	-0.176	0.104
-531.091	1.973	0.185	-0.133
-530.077	-40.375	-0.103	0.053
-529.062	800.000	0.058	-0.172
-528.048	-90.855	0.026	-0.008
-527.033	-114.301	-0.435	-0.083
-526.018	-102.541	-0.161	0.038
-525.004	-32.455	0.231	0.128
-523.989	-5.903	-0.181	0.123
-522.975	217.642	-0.127	0.202
-521.960	800.000	-0.055	0.182
-520.945	-117.692	-0.171	-0.031
-519.931	655.651	-0.113	0.290
-518.916	44.970	0.113	-0.104
-517.902	-200.000	0.016	-0.122
-516.887	-22.455	-0.072	0.043
-515.872	75.272	-0.208	-0.219
-514.858	-64.648	0.321	-0.130
-513.843	-200.000	0.261	-0.001
-512.829	-2.162	0.164	0.115
-511.814	-36.107	-0.130	-0.070
-510.799	456.289	0.108	-0.238
-509.785	287.157	0.177	-0.319
-508.770	439.424	-0.082	-0.178
-507.756	536.861	0.061	0.144
-506.741	92.995	-0.102	0.115
-505.726	155.035	-0.045	-0.062
-504.712	90.326	0.233	0.260
-503.697	800.000	-0.030	-0.108
-502.683	-62.054	-0.085	-0.035
-501.668	-134.629	-0.283	0.034
-500.653	-22.495	-0.108	-0.065
-499.639	-41.202	-0.339	0.174
-498.624	48.086	-0.108	-0.100
-497.610	87.321	-0.241	-0.265
-496.595	-126.651	0.346	0.051
-495.581	70.338	0.048	-0.049
-494.566	-105.555	-0.104	-0.023
-493.551	-79.253	0.091	0.031
-492.537	-129.204	-0.289	-0.040
-491.522	-147.050	-0.199	0.017
-490.508	-86.000	0.463	-0.142
-489.493	-60.590	-0.185	-0.078
-488.478	-200.000	-0.015	0.069
-487.464	-200.000	0.046	-0.211
-486.449	-200.000	-0.018	0.218
-485.435	800.000	0.065	0.269
-484.420	-80.416	0.304	-0.101
-483.405	0.410	0.151	-0.107
-482.391	-91.302	-0.207	0.059
-481.376	252.486	-0.098	-0.167
-480.362	-200.000	0.003	0.177
-479.347	72.551	0.209	0.217
-478.332	-200.000	0.113	-0.000
-477.318	-9.682	0.140	0.093
-476.303	-200.000	-0.037	0.194
-475.289	-156.580	0.123	0.008
-474.274	296.881	-0.075	0.138
-473.259	1.965	-0.130	-0.093
-472.245	-70.512	0.063	-0.024
-471.230	204.138	-0.135	0.208
-470.216	64.697	0.282	-0.283
-469.201	221.269	-0.109	0.173
-468.186	45.147	0.211	0.193
-467.172	204.598	-0.237	0.365
-466.157	-96.811	-0.101	0.026
-465.143	37.344	0.162	-0.143
-464.128	-127.383	0.199	0.029
-463.113	25.330	0.046	0.038
-462.099	143.042	0.116	-0.153
-461.084	86.247	-0.011	0.012
-460.070	-89.454	0.212	-0.062
-459.055	94.299	-0.197	-0.223
-458.040	19.672	0.242	-0.193
-457.026	135.957	0.063	0.081
-456.011	27.000	0.302	0.252
-454.997	-107.885	-0.334	0.072
-453.982	103.712	0.314	-0.367
-452.968	-200.000	0.037	-0.199
-451.953	57.124	-0.216	0.210
-450.938	-95.646	-0.379	-0.101
-449.924	800.000	-0.042	-0.117
-448.909	-117.325	-0.157	0.028
-447.895	-200.000	0.021	-0.113
-446.880	313.398	-0.066	0.123
-445.865	267.788	0.145	-0.253
-444.851	-45.962	0.202	-0.099
-443.836	-139.474	-0.357	0.038
-442.822	-200.000	-0.015	0.185
-441.807	800.000	-0.061	-0.191
-440.792	800.000	-0.023	-0.091
-439.778	382.419	0.019	0.038
-438.763	-25.156	0.222	0.131
-437.749	-46.945	-0.213	-0.103
-436.734	79.676	0.059	-0.063
-435.719	-39.199	-0.203	-0.106
-434.705	-87.081	0.235	-0.071
-433.690	2.917	-0.180	-0.130
-432.676	-64.351	0.253	0.102
-431.661	-39.861	-0.125	0.065
-430.646	256.966	-0.104	-0.178
-429.632	-91.589	-0.172	0.049
-428.617	-85.459	-0.350	0.108
-427.603	-104.266	-0.381	-0.088
-426.588	401.602	-0.080	-0.166
-425.573	42.325	-0.141	0.127
-424.559	-75.582	0.128	-0.045
-423.544	309.404	-0.212	0.393
-422.530	-135.683	0.071	-0.008
-421.515	20.190	0.196	0.157
-420.500	-33.769	-0.284	-0.156
-419.486	-52.372	0.334	0.154
-418.471	-30.475	-0.109	-0.061
-417.457	800.000	0.033	-0.101
-416.442	339.145	-0.080	0.154
-415.428	-200.000	-0.011	-0.203
-414.413	75.386	-0.193	-0.202
-413.398	800.000	0.058	-0.189
-412.384	-88.975	-0.230	0.068
-411.369	-99.757	0.260	0.065
-410.355	-200.000	-0.041	-0.212
-409.340	59.304	-0.155	0.152
-408.325	34.129	0.152	-0.132
-407.311	800.000	-0.092	0.293
-406.296	362.967	-0.104	-0.208
-405.282	130.202	-0.150	-0.190
-404.267	116.959	-0.112	-0.136
-403.252	-200.000	0.044	-0.238
-402.238	800.000	-0.029	-0.080
-401.223	479.026	-0.056	-0.127
-400.209	-30.518	0.140	-0.078
-399.194	800.000	0.031	0.116
-398.179	-36.993	0.436	-0.232
-397.165	40.915	0.159	0.143
-396.150	479.710	-0.111	-0.249
-395.136	-93.484	-0.042	-0.011
-394.121	-200.000	-0.004	-0.190
-393.106	-200.000	-0.047	0.295
-392.092	255.727	-0.100	0.170
-391.077	-12.421	0.079	-0.051
-390.063	800.000	0.075	-0.242
-389.048	145.359	-0.061	-0.081
-388.033	-178.058	0.128	0.003
-387.019	28.417	-0.095	0.080
-386.004	-107.608	-0.239	-0.052
-384.990	8.025	0.065	0.049
-383.975	-120.424	-0.125	0.021
-382.960	-88.836	0.147	-0.043
-381.946	260.323	0.119	0.204
-380.931	122.970	-0.203	-0.251
-379.917	-93.766	-0.147	0.040
-378.902	538.921	0.050	0.119
-377.888	-134.876	-0.376	0.045
-376.873	-134.771	-0.122	0.015
-375.858	-126.564	0.298	0.044
-374.844	372.013	0.016	0.032
-373.829	-51.040	-0.272	0.126
-372.815	-97.217	0.213	-0.055
-371.800	-150.927	-0.300	-0.022
-370.785	-37.723	0.148	-0.078
-369.771	-127.166	-0.229	0.033
-368.756	-144.187	-0.166	-0.015
-367.742	-152.769	-0.235	0.017
-366.727	153.270	-0.094	0.128
-365.712	-93.215	-0.226	-0.062
-364.698	-200.000	-0.020	-0.132
-363.683	201.122	0.093	0.142
-362.669	-106.368	-0.229	0.051
-361.654	-200.000	0.020	-0.251
-360.639	800.000	0.098	-0.374
-359.625	-70.330	-0.019	-0.007
-358.610	-64.559	-0.175	0.070
-357.596	-110.715	0.292	-0.060
-356.581	-141.392	-0.405	-0.041
-355.566	-111.339	0.143	-0.029
-354.552	265.779	0.076	-0.131
-353.537	4.232	-0.208	0.151
-352.523	800.000	-0.093	0.289
-351.508	-184.442	0.132	0.002
-350.493	50.162	-0.195	0.182
-349.479	143.103	-0.089	0.117
-348.464	-91.587	0.153	0.043
-347.450	359.085	0.161	0.318
-346.435	-103.280	0.227	-0.053
-345.420	27.355	-0.296	-0.246
-344.406	437.561	-0.033	0.071
-343.391	800.000	0.108	0.394
-342.377	-200.000	-0.008	0.259
-341.362	-39.655	-0.130	0.068
-340.348	55.283	0.078	0.075
-339.333	64.307	0.125	0.125
-338.318	-13.566	0.148	-0.095
-337.304	89.144	-0.315	-0.347
-336.289	275.894	-0.020	-0.035
-335.275	-200.000	0.008	-0.109
-334.260	157.312	-0.130	-0.177
-333.245	310.305	0.241	0.447
-332.231	-134.984	-0.206	0.025
-331.216	800.000	0.055	-0.170
-330.202	-35.867	0.071	-0.038
-329.187	800.000	-0.033	-0.112
-328.172	-162.424	0.124	0.006
-327.158	-117.059	0.151	0.027
-326.143	116.667	-0.129	0.156
-325.129	-76.699	0.159	-0.055
-324.114	-62.326	0.334	-0.138
-323.099	160.025	-0.060	-0.082
-322.085	-185.855	-0.173	0.003
-321.070	559.258	-0.049	-0.118
-320.056	800.000	0.074	-0.231
-319.041	203.099	-0.021	0.033
-318.026	-200.000	0.035	0.161
-317.012	800.000	-0.062	-0.249
-315.997	-62.052	-0.379	-0.156
-314.983	-29.169	-0.170	-0.096
-313.968	-101.539	0.051	0.012
-312.953	-200.000	-0.010	-0.176
-311.939	800.000	0.107	0.427
-310.924	114.234	-0.047	0.056
-309.910	255.487	0.212	0.358
-308.895	-121.852	0.043	-0.007
-307.880	117.055	0.058	0.070
-306.866	31.235	0.184	0.156
-305.851	440.297	-0.076	0.165
-304.837	46.726	-0.242	0.222
-303.822	-10.966	0.279	-0.182
-302.807	361.401	0.123	-0.244
-301.793	-200.000	0.000	0.087
-300.778	-46.082	-0.180	-0.087
-299.764	128.175	0.194	-0.244
-298.749	800.000	-0.032	-0.116
-297.735	-105.498	0.337	-0.076
-296.720	800.000	0.038	-0.116
-295.705	-96.954	0.385	0.100
-294.691	-200.000	0.030	-0.162
-293.676	800.000	0.028	0.113
-292.662	-200.000	0.025	-0.330
-291.647	-20.434	-0.219	-0.133
-290.632	-13.503	0.246	0.158
-289.618	-87.817	0.203	0.060
-288.603	-30.862	0.070	-0.039
-287.589	-11.994	-0.067	0.043
-286.574	-200.000	-0.047	0.271
-285.559	28.089	0.158	-0.132
-284.545	-134.479	0.146	-0.018
-283.530	487.241	0.079	0.178
-282.516	-81.760	-0.222	-0.072
-281.501	55.001	0.334	0.318
-280.486	-200.000	-0.036	0.444
-279.472	417.508	-0.175	0.369
-278.457	800.000	0.074	0.315
-277.443	-93.587	0.257	-0.070
-276.428	-91.579	0.124	-0.035
-275.413	-78.576	0.052	0.018
-274.399	263.114	0.204	-0.350
-273.384	-58.032	0.158	-0.068
-272.370	-26.432	-0.229	-0.133
-271.355	345.023	-0.066	0.128
-270.340	-200.000	-0.019	0.256
-269.326	166.289	-0.064	-0.090
-268.311	12.420	0.376	-0.286
-267.297	-200.000	0.038	-0.354
-266.282	-13.461	0.186	0.119
-265.267	-139.931	-0.396	0.041
-264.253	263.560	0.039	0.067
-263.238	-42.184	-0.274	-0.138
-262.224	270.963	-0.030	-0.052
-261.209	-166.153	-0.170	-0.007
-260.195	-200.000	0.019	0.288
-259.180	-134.418	-0.219	0.026
-258.165	-173.374	0.435	-0.013
-257.151	-19.720	-0.203	0.124
-256.136	171.159	-0.012	-0.016
-255.122	-41.100	-0.377	-0.192
-254.107	5.536	-0.143	-0.104
-253.092	-89.098	0.374	-0.109
-252.078	-170.290	-0.016	-0.001
-251.063	-200.000	0.036	-0.370
-250.049	800.000	-0.066	0.205
-249.034	125.131	0.113	0.141
-248.019	153.343	0.188	-0.253
-247.005	-78.136	-0.020	0.007
-245.990	350.233	0.247	0.481
-244.976	96.602	0.211	0.238
-243.961	800.000	-0.041	0.111
-242.946	800.000	-0.023	-0.085
-241.932	-200.000	-0.025	0.113
-240.917	-74.686	-0.142	-0.050
-239.903	-200.000	-0.037	-0.229
-238.888	344.807	0.140	0.270
-237.873	-200.000	-0.029	-0.158
-236.859	-200.000	-0.040	-0.223
-235.844	292.493	-0.095	-0.170
-234.830	223.035	-0.123	-0.196
-233.815	800.000	0.034	-0.095
-232.800	-117.813	0.178	-0.032
-231.786	-152.098	-0.384	0.027
-230.771	-200.000	0.006	-0.031
-229.757	-77.873	-0.276	-0.094
-228.742	45.255	-0.144	-0.131
-227.727	-4.240	-0.185	0.126
-226.713	-36.372	0.150	0.080
-225.698	22.225	0.154	0.124
-224.684	785.948	-0.103	0.278
-223.669	-135.646	0.341	-0.040
-222.655	97.763	-0.202	0.228
-221.640	-182.111	-0.069	-0.001
-220.625	192.895	0.083	0.124
-219.611	31.906	0.227	-0.192
-218.596	-158.504	0.222	0.013
-217.582	-200.000	0.014	0.157
-216.567	332.148	0.116	0.220
-215.552	118.645	0.039	-0.047
-214.538	1.084	-0.196	-0.139
-213.523	-200.000	0.001	0.191
-212.509	-56.843	-0.356	-0.155
-211.494	-122.757	-0.388	0.062
-210.479	32.540	-0.202	0.172
-209.465	95.536	0.215	0.241
-208.450	-79.213	-0.428	-0.143
-207.436	-200.000	0.006	-0.227
-206.421	277.354	0.071	-0.125
-205.406	800.000	0.022	-0.086
-204.392	-200.000	0.006	-0.071
-203.377	606.923	0.066	-0.161
-202.363	387.903	0.092	-0.187
-201.348	-60.158	0.137	-0.057
-200.333	-73.980	0.386	-0.138
-199.319	-200.000	0.034	0.430
-198.304	-42.435	0.179	0.090
-197.290	57.325	0.071	-0.068
-196.275	800.000	-0.049	0.139
-195.260	-200.000	0.034	0.293
-194.246	800.000	0.082	-0.258
-193.231	467.739	-0.146	-0.322
-192.217	800.000	-0.059	0.174
-191.202	-200.000	-0.007	-0.122
-190.187	-66.009	0.221	0.087
-189.173	-200.000	0.118	-0.000
-188.158	58.033	0.061	-0.059
-187.144	-40.658	0.231	-0.118
-186.129	-153.932	0.294	-0.020
-185.114	-44.625	0.360	-0.177
-184.100	-127.301	0.069	0.010
-183.085	37.051	0.322	0.281
-182.071	-166.255	0.139	-0.006
-181.056	800.000	-0.092	-0.275
-180.042	800.000	-0.082	-0.229
-179.027	-8.739	-0.208	0.137
-178.012	-125.632	-0.027	0.004
-176.998	331.277	-0.086	0.163
-175.983	800.000	-0.059	-0.165
-174.969	800.000	-0.057	0.198
-173.954	94.099	0.043	0.048
-172.939	800.000	-0.030	0.123
-171.925	-25.847	-0.066	0.038
-170.910	800.000	0.132	-0.412
-169.896	800.000	-0.013	-0.050
-168.881	411.180	0.062	-0.129
-167.866	-200.000	0.017	-0.393
-166.852	79.649	0.102	0.108
-165.837	20.003	-0.056	0.045
-164.823	800.000	0.048	0.203
-163.808	-105.080	0.054	0.012
-162.793	-22.936	0.237	0.141
-161.779	-71.377	0.285	0.105
-160.764	-200.000	0.010	-0.067
-159.750	487.924	0.092	0.207
-158.735	-100.186	0.282	0.069
-157.720	-71.139	-0.120	-0.044
-156.706	70.850	0.102	0.104
-155.691	-128.371	0.211	-0.030
-154.677	-104.860	0.079	-0.018
-153.662	-38.344	-0.474	0.247
-152.647	198.668	0.203	0.305
-151.633	800.000	-0.061	-0.245
-150.618	-164.405	0.282	0.013
-149.604	-171.754	-0.208	0.007
-148.589	800.000	-0.041	0.139
-147.574	-200.000	0.012	-0.342
-146.560	105.554	0.304	-0.353
-145.545	187.859	-0.134	0.197
-144.531	800.000	0.114	0.320
-143.516	-200.000	-0.068	0.297
-142.502	530.138	-0.106	0.245
-141.487	-43.238	-0.140	0.069
-140.472	-61.728	-0.094	-0.039
-139.458	217.743	-0.023	0.036
-138.443	532.591	-0.193	-0.448
-137.429	-200.000	0.019	-0.085
-136.414	148.361	0.181	0.241
-135.399	800.000	0.062	0.201
-134.385	-81.314	0.064	-0.021
-133.370	48.429	0.143	-0.132
-132.356	-200.000	0.001	-0.076
-131.341	149.299	-0.159	0.211
-130.326	-152.284	-0.166	0.012
-129.312	31.269	0.298	0.251
-128.297	629.346	-0.068	-0.168
-127.283	47.186	0.104	0.095
-126.268	-98.864	0.067	0.017
-125.253	-200.000	0.048	-0.378
-124.239	-200.000	0.113	-0.492
-123.224	-200.000	-0.016	0.133
-122.210	800.000	0.075	-0.295
-121.195	-17.616	0.215	0.133
-120.180	800.000	0.100	0.312
-119.166	-61.217	0.229	0.095
-118.151	158.721	-0.068	0.093
-117.137	800.000	0.120	0.382
-116.122	103.174	0.147	0.169
-115.107	-131.624	-0.243	-0.031
-114.093	-45.091	-0.305	-0.149
-113.078	73.965	0.123	-0.127
-112.064	41.109	0.141	-0.125
-111.049	678.838	-0.019	0.048
-110.034	-90.892	0.094	-0.027
-109.020	112.981	-0.143	0.169
-108.005	-54.009	-0.347	-0.155
-106.991	-80.029	-0.197	-0.065
-105.976	-200.000	0.036	0.249
-104.962	-27.576	-0.174	-0.099
-103.947	122.828	0.188	-0.230
-102.932	-200.000	0.008	-0.366
-101.918	-77.897	0.277	0.094
-100.903	-142.310	-0.127	-0.012
-99.889	-79.185	0.289	-0.096
-98.874	256.484	-0.059	0.099
-97.859	-46.108	0.061	-0.029
-96.845	-153.995	-0.367	0.024
-95.830	37.746	-0.264	-0.230
-94.816	-200.000	-0.051	0.249
-93.801	-96.454	0.258	-0.067
-92.786	644.843	0.062	0.155
-91.772	-15.390	-0.322	0.201
-90.757	-200.000	0.018	-0.223
-89.743	48.683	-0.051	0.047
-88.728	-8.754	-0.029	-0.019
-87.713	-200.000	-0.027	-0.120
-86.699	568.146	0.142	0.339
-85.684	126.869	0.020	-0.025
-84.670	800.000	-0.111	0.327
-83.655	33.023	0.259	0.220
-82.640	11.645	0.138	-0.104
-81.626	24.270	0.016	0.013
-80.611	-200.000	0.017	0.512
-79.597	45.847	0.129	0.117
-78.582	148.471	0.066	0.088
-77.567	22.729	-0.299	0.240
-76.553	11.734	0.186	0.140
-75.538	436.334	0.040	0.085
-74.524	118.272	-0.179	-0.216
-73.509	186.779	0.055	0.080
-72.494	58.495	-0.223	0.215
-71.480	26.239	0.159	-0.130
-70.465	135.747	0.030	-0.038
-69.451	-74.942	0.013	0.005
-68.436	-121.697	-0.348	-0.056
-67.422	-200.000	-0.027	0.201
-66.407	-200.000	0.192	-0.000
-65.392	525.898	0.094	0.217
-64.378	800.000	0.121	0.375
-63.363	-200.000	-0.034	0.238
-62.349	93.095	0.306	0.338
-61.334	34.732	-1.071	-0.916
-60.319	4.735	0.709	0.510
-59.305	278.507	-0.682	-1.189
-58.290	25.594	0.919	0.749
-57.276	800.000	0.474	1.602
-56.261	-200.000	114.687	656.346
-55.246	531.506	1529.580	3539.324
-54.232	175.912	2705.346	3841.277
-53.217	108.788	2165.011	2531.364
-52.203	38.748	1599.625	1396.980
-51.188	30.010	1342.476	1119.811
-50.173	27.221	1304.484	1071.668
-49.159	55.066	1362.585	1287.762
-48.144	53.159	1376.116	1289.060
-47.130	30.387	1330.464	1111.876
-46.115	27.017	1312.079	1076.525
-45.100	26.632	1307.580	1070.519
-44.086	26.611	1305.435	1068.595
-43.071	26.637	1302.692	1066.463
-42.057	26.541	1300.850	1064.348
-41.042	26.628	1298.488	1062.880
-40.027	26.655	1297.271	1062.001
-39.013	26.577	1295.840	1060.328
-37.998	26.665	1294.139	1059.410
-36.984	26.863	1291.603	1058.447
-35.969	26.791	1289.993	1056.669
-34.954	26.780	1288.295	1055.168
-33.940	26.798	1287.213	1054.349
-32.925	26.883	1285.582	1053.466
-31.911	26.925	1284.020	1052.387
-30.896	26.755	1283.529	1050.953
-29.881	26.814	1281.856	1049.888
-28.867	26.892	1280.358	1049.070
-27.852	26.936	1278.656	1047.887
-26.838	26.829	1277.267	1046.091
-25.823	26.834	1276.291	1045.277
-24.809	26.895	1274.560	1044.168
-23.794	26.737	1273.567	1042.407
-22.779	26.801	1272.134	1041.560
-21.765	26.812	1270.930	1040.593
-20.750	26.856	1269.714	1039.812
-19.736	26.812	1268.209	1038.282
-18.721	26.708	1267.213	1036.833
-17.706	26.789	1265.946	1036.216
-16.692	26.821	1264.943	1035.540
-15.677	26.729	1263.761	1034.004
-14.663	26.739	1262.850	1033.278
-13.648	26.738	1261.301	1031.963
-12.633	26.682	1260.540	1030.983
-11.619	26.708	1259.708	1030.404
-10.604	26.635	1259.471	1029.758
-9.590	26.734	1258.056	1029.120
-8.575	26.701	1256.644	1027.740
-7.560	26.693	1256.352	1027.411
-6.546	26.629	1255.342	1026.182
-5.531	26.698	1254.691	1025.999
-4.517	26.695	1253.311	1024.816
-3.502	26.753	1252.537	1024.468
-2.487	26.682	1251.807	1023.433
-1.473	26.782	1247.325	1020.290
-0.458	25.698	1233.535	1002.934
0.556	23.127	1217.646	970.406
1.571	20.020	1224.885	958.916
2.586	19.446	1240.150	967.564
3.600	18.789	1228.560	954.783
4.615	14.170	1155.579	873.781
5.629	6.772	1083.513	782.666
6.644	3.707	1065.921	754.928
7.659	3.317	1063.844	751.486
8.673	3.449	1062.795	751.324
9.688	3.608	1060.693	750.544
10.702	3.738	1059.328	750.145
11.717	8.047	1065.250	775.271
12.731	15.530	1075.683	819.435
13.746	19.257	1080.047	840.908
14.761	19.529	1079.492	841.730
15.775	18.610	1078.009	836.023
16.790	17.639	1076.428	829.994
17.804	17.021	1074.621	825.520
18.819	16.642	1073.563	822.791
19.834	16.448	1072.896	821.266
20.848	16.249	1071.838	819.417
21.863	16.060	1071.257	817.984
22.877	15.927	1070.344	816.570
23.892	15.912	1069.670	815.911
24.907	15.871	1068.817	814.990
25.921	15.943	1067.715	814.424
26.936	15.935	1066.289	813.227
27.950	15.951	1065.316	812.489
28.965	15.964	1063.972	811.455
29.980	16.245	1061.947	811.193
30.994	16.228	1061.247	810.504
32.009	16.238	1060.289	809.749
33.023	16.358	1058.562	808.930
34.038	16.141	1057.802	807.240
35.053	16.057	1056.577	805.834
36.067	16.056	1056.039	805.347
37.082	16.094	1055.372	804.948
38.096	16.158	1054.485	804.503
39.111	16.221	1053.954	804.328
40.126	16.028	1052.468	802.206
41.140	15.818	1051.490	800.388
42.155	15.656	1050.279	798.629
43.169	15.662	1049.048	797.652
44.184	15.768	1047.874	797.191
45.199	15.789	1047.005	796.556
46.213	15.867	1046.020	796.104
47.228	16.052	1045.083	796.197
48.242	15.933	1044.618	795.211
49.257	15.882	1043.404	793.976
50.271	16.059	1042.528	794.073
51.286	16.101	1041.534	793.443
52.301	16.130	1040.299	792.568
53.315	15.931	1039.985	791.321
54.330	15.876	1038.873	790.150
55.344	15.913	1037.395	789.128
56.359	15.872	1036.812	788.423
57.374	15.923	1035.974	787.953
58.388	15.769	1034.964	786.397
59.403	15.752	1033.780	785.349
60.417	15.841	1033.287	785.321
61.432	15.628	1032.731	783.834
62.447	15.508	1031.938	782.605
63.461	15.710	1030.791	782.605
64.476	15.613	1029.824	781.350
65.490	15.622	1029.247	780.884
66.505	15.687	1028.474	780.533
67.520	15.755	1027.371	779.941
68.534	15.568	1027.300	778.951
69.549	15.705	1026.091	778.600
70.563	15.553	1025.594	777.451
71.578	15.514	1024.560	776.419
72.593	15.456	1023.858	775.548
73.607	15.395	1023.750	775.117
74.622	15.514	1022.400	774.573
75.636	15.510	1021.897	774.107
76.651	15.443	1021.338	773.305
77.666	15.557	1020.978	773.488
78.680	15.618	1019.796	772.808
79.695	15.605	1019.516	772.468
80.709	15.819	1018.658	772.731
81.724	15.862	1017.945	772.316
82.739	15.789	1017.716	771.741
83.753	15.853	1016.937	771.377
84.768	16.183	1015.826	771.975
85.782	16.217	1014.968	771.413
86.797	16.159	1014.190	770.483
87.812	16.015	1013.285	769.074
88.826	16.052	1012.070	768.250
89.841	16.106	1010.945	767.575
90.855	16.326	1010.064	767.838
91.870	16.309	1009.505	767.269
92.884	16.204	1008.466	765.937
93.899	16.219	1007.791	765.423
94.914	16.310	1007.089	765.236
95.928	16.048	1006.399	763.454
96.943	16.175	1004.860	762.796
97.957	16.214	1004.553	762.669
98.972	16.148	1003.730	761.680
99.987	16.352	1002.726	761.771
101.001	16.227	1001.604	760.288
102.016	16.129	1000.825	759.189
103.030	16.123	1000.490	758.842
104.045	16.069	999.702	757.933
105.060	16.014	998.595	756.778
106.074	15.858	997.960	755.532
107.089	15.823	996.126	753.919
108.103	15.820	995.444	753.324
109.118	15.803	994.736	752.644
110.133	15.687	993.733	751.302
111.147	15.765	993.000	751.027
112.162	15.790	991.764	750.138
113.176	15.918	991.122	750.154
114.191	15.769	990.811	749.190
115.206	15.810	989.784	748.530
116.220	15.824	989.116	748.023
117.235	15.893	988.170	747.546
118.249	15.792	987.102	746.225
119.264	15.720	986.194	745.150
120.279	15.896	985.197	745.111
121.293	15.737	984.938	744.146
122.308	15.706	983.751	743.046
123.322	15.596	982.991	741.920
124.337	15.596	981.805	740.961
125.352	15.560	980.660	739.873
126.366	15.641	979.570	739.342
127.381	15.610	978.677	738.465
128.395	15.711	977.893	738.252
129.410	15.724	977.174	737.701
130.424	15.696	976.108	736.708
131.439	15.882	975.118	736.710
132.454	15.755	975.030	736.023
133.468	15.822	973.981	735.460
134.483	15.850	973.223	734.941
135.497	15.798	972.281	733.942
136.512	15.907	971.136	733.488
137.527	15.840	970.534	732.674
138.541	15.842	969.808	732.071
139.556	15.937	969.105	731.889
140.570	16.103	968.464	732.062
141.585	16.198	967.475	731.659
142.600	16.223	966.579	731.026
143.614	16.235	965.722	730.364
144.629	16.235	965.167	729.882
145.643	16.179	964.005	728.694
146.658	16.150	962.915	727.681
147.673	16.059	961.762	726.354
148.687	16.089	961.005	725.846
149.702	15.848	960.241	724.167
150.716	15.890	959.784	723.941
151.731	15.897	958.972	723.294
152.746	15.990	958.352	723.161
153.760	16.016	957.581	722.629
154.775	16.131	956.932	722.566
155.789	16.111	956.392	722.011
156.804	16.176	955.556	721.592
157.819	16.135	954.992	720.927
158.833	16.245	954.529	720.985
159.848	16.306	953.689	720.545
160.862	16.158	952.705	719.109
161.877	16.014	951.675	717.653
162.892	15.957	950.487	716.453
163.906	15.975	949.614	715.807
164.921	16.064	948.292	715.126
165.935	16.087	947.484	714.549
166.950	16.142	946.709	714.135
167.964	16.123	946.063	713.505
168.979	16.092	944.884	712.419
169.994	16.143	943.694	711.674
171.008	16.033	944.102	711.457
172.023	16.294	943.021	711.680
173.037	16.256	942.380	710.971
174.052	16.194	941.441	709.939
175.067	16.157	940.642	709.118
176.081	15.944	940.467	708.028
177.096	16.075	939.657	707.905
178.110	16.150	938.702	707.437
179.125	16.093	938.243	706.792
180.140	16.202	937.762	706.826
181.154	16.199	937.672	706.679
182.169	16.459	936.708	706.979
183.183	16.521	936.449	706.981
184.198	16.467	935.703	706.128
185.213	16.393	934.948	705.188
186.227	16.484	934.232	704.966
187.242	16.546	933.555	704.651
188.256	16.566	933.146	704.363
189.271	16.565	932.179	703.567
190.286	16.296	931.521	701.889
191.300	16.192	930.370	700.527
192.315	16.030	929.527	699.159
193.329	16.078	929.446	699.237
194.344	16.249	928.795	699.392
195.359	16.287	928.157	699.008
196.373	16.299	928.046	698.913
197.388	16.417	927.534	698.952
198.402	16.538	926.872	698.890
199.417	16.673	926.027	698.748
200.432	16.829	925.755	699.127
201.446	16.838	925.201	698.683
202.461	16.931	924.863	698.748
203.475	16.895	923.738	697.689
204.490	16.638	923.255	696.205
205.504	16.532	922.413	695.076
206.519	16.641	921.324	694.638
207.534	16.620	920.636	693.973
208.548	16.498	920.349	693.194
209.563	16.613	919.668	693.092
210.577	16.771	918.806	693.029
211.592	16.884	917.971	692.800
212.607	16.741	917.776	692.007
213.621	16.751	916.792	691.242
214.636	16.691	916.636	690.819
215.650	16.844	915.702	690.679
216.665	17.041	914.594	690.583
217.680	17.034	914.176	690.179
218.694	16.928	913.569	689.226
219.709	16.852	913.101	688.505
220.723	16.834	912.406	687.845
221.738	16.978	911.133	687.411
222.753	16.890	910.859	686.786
223.767	16.975	910.442	686.754
224.782	16.969	910.326	686.583
225.796	17.219	909.268	686.735
226.811	17.053	908.310	685.281
227.826	16.951	907.841	684.453
228.840	16.911	907.084	683.659
229.855	17.089	905.894	683.422
230.869	16.884	905.523	682.255
231.884	16.872	904.606	681.455
232.899	16.801	904.147	680.764
233.913	16.837	903.424	680.303
234.928	16.845	902.603	679.657
235.942	16.783	902.108	678.976
236.957	16.812	901.369	678.477
237.972	16.982	900.898	678.744
238.986	16.877	900.489	677.954
240.001	16.915	899.805	677.529
241.015	16.944	898.990	676.973
242.030	17.036	898.581	676.973
243.045	17.096	897.975	676.697
244.059	16.825	897.574	675.252
245.074	17.034	896.877	675.501
246.088	17.006	896.155	674.786
247.103	17.155	895.446	674.782
248.117	17.247	895.426	675.075
249.132	17.379	894.767	675.041
250.147	17.590	893.937	675.194
251.161	17.611	893.550	674.925
252.176	17.554	893.110	674.308
253.190	17.659	892.141	673.928
254.205	17.490	891.908	673.027
255.220	17.561	891.368	672.839
256.234	17.691	890.172	672.389
257.249	17.711	889.250	671.712
258.263	17.576	889.031	670.956
259.278	17.592	888.286	670.398
260.293	17.703	887.392	670.100
261.307	17.683	887.349	669.929
262.322	17.785	886.509	669.637
263.336	17.878	885.667	669.305
264.351	17.860	884.897	668.594
265.366	17.816	884.282	667.898
266.380	17.842	883.630	667.448
267.395	17.775	882.840	666.533
268.409	17.690	882.467	665.857
269.424	17.674	881.874	665.288
270.439	17.702	880.754	664.494
271.453	17.764	880.344	664.368
272.468	17.655	879.980	663.611
273.482	17.749	879.034	663.205
274.497	17.621	878.734	662.422
275.512	17.650	877.728	661.718
276.526	17.854	877.202	662.052
277.541	17.807	877.205	661.814
278.555	17.982	876.303	661.754
279.570	17.965	875.679	661.159
280.585	17.925	875.198	660.582
281.599	17.811	874.102	659.257
282.614	17.829	873.554	658.852
283.628	17.829	872.805	658.232
284.643	17.965	872.315	658.326
285.657	17.944	871.633	657.673
286.672	17.861	871.146	656.928
287.687	17.996	870.274	656.732
288.701	18.056	869.667	656.447
289.716	17.800	869.782	655.493
290.730	17.835	869.349	655.241
291.745	17.952	868.349	654.877
292.760	18.052	867.640	654.669
293.774	18.051	866.922	654.063
294.789	18.237	865.853	653.913
295.803	18.088	865.680	653.155
296.818	17.931	865.029	652.006
297.833	18.048	863.982	651.606
298.847	18.005	863.737	651.196
299.862	18.004	863.387	650.874
300.876	18.177	862.904	651.111
301.891	18.272	862.267	650.932
302.906	18.457	861.544	651.033
303.920	18.428	861.148	650.566
304.935	18.448	860.410	650.027
305.949	18.424	860.152	649.681
306.964	18.290	859.259	648.442
307.979	18.189	858.487	647.422
308.993	18.368	858.455	648.015
310.008	18.343	857.415	647.080
311.022	18.191	857.074	646.192
312.037	18.322	856.147	645.928
313.052	18.250	855.226	644.906
314.066	18.099	855.428	644.432
315.081	17.981	854.772	643.436
316.095	18.141	854.002	643.403
317.110	18.020	853.852	642.776
318.125	18.188	852.834	642.586
319.139	18.151	852.417	642.074
320.154	18.186	852.063	641.882
321.168	18.265	851.236	641.498
322.183	18.258	850.890	641.156
323.197	18.307	850.130	640.709
324.212	18.387	849.811	640.712
325.227	18.369	849.312	640.213
326.241	18.333	848.342	639.288
327.256	18.287	848.262	639.000
328.270	18.109	847.467	637.680
329.285	18.249	846.692	637.565
330.300	18.232	846.261	637.120
331.314	18.362	845.513	636.982
332.329	18.418	845.329	636.995
333.343	18.600	844.869	637.270
334.358	18.546	844.511	636.744
335.373	18.549	844.201	636.462
336.387	18.467	844.109	636.034
337.402	18.631	843.574	636.181
338.416	18.601	843.590	636.025
339.431	18.743	843.043	636.085
340.446	18.908	842.495	636.223
341.460	18.682	842.282	635.171
342.475	18.869	841.969	635.572
343.489	19.002	840.811	635.132
344.504	19.095	840.648	635.297
345.519	19.035	840.056	634.570
346.533	18.921	839.596	633.749
347.548	18.843	839.037	632.983
348.562	18.680	838.456	631.885
349.577	18.630	837.826	631.171
350.592	18.600	836.819	630.248
351.606	18.642	836.482	630.092
352.621	18.516	835.976	629.193
353.635	18.629	835.579	629.253
354.650	18.841	834.481	629.147
355.665	18.936	834.001	629.078
356.679	18.893	833.405	628.414
357.694	18.931	832.650	627.928
358.708	18.862	832.180	627.265
359.723	18.945	831.690	627.145
360.738	19.019	830.643	626.568
361.752	18.920	830.417	625.981
362.767	19.079	829.708	625.972
363.781	19.145	829.764	626.199
364.796	19.139	829.141	625.649
365.810	19.284	828.751	625.829
366.825	19.295	828.281	625.458
367.840	19.399	827.609	625.273
368.854	19.228	827.259	624.332
369.869	19.176	827.051	623.931
370.883	19.262	826.157	623.514
371.898	19.343	826.082	623.694
372.913	19.201	825.740	622.868
373.927	19.101	825.665	622.394
374.942	19.238	824.955	622.298
375.956	19.437	824.083	622.305
376.971	19.369	823.983	621.927
377.986	19.554	823.619	622.265
379.000	19.479	822.891	621.389
380.015	19.413	822.503	620.804
381.029	19.500	821.925	620.625
382.044	19.509	821.187	620.048
383.059	19.564	820.379	619.579
384.073	19.388	820.291	618.827
385.088	19.291	819.348	617.711
386.102	19.350	819.054	617.649
387.117	19.248	818.383	616.720
388.132	19.319	817.508	616.260
389.146	19.427	816.983	616.196
390.161	19.542	816.689	616.333
391.175	19.497	816.263	615.794
392.190	19.535	815.615	615.389
393.205	19.420	815.319	614.699
394.219	19.343	814.907	614.062
395.234	19.182	814.750	613.313
396.248	19.321	813.924	613.132
397.263	19.333	813.596	612.876
398.278	19.090	813.171	611.637
399.292	19.303	812.551	611.873
400.307	19.266	811.938	611.227
401.321	19.381	811.506	611.254
402.336	19.293	811.112	610.591
403.350	19.407	810.859	610.750
404.365	19.424	810.700	610.635
405.380	19.633	809.966	610.767
406.394	19.654	809.563	610.483
407.409	19.574	809.379	610.008
408.423	19.776	809.015	610.392
409.438	19.954	808.195	610.348
410.453	19.884	807.867	609.802
411.467	19.932	807.481	609.623
412.482	19.869	807.276	609.193
413.496	19.966	806.913	609.206
414.511	19.937	806.317	608.600
415.526	20.185	805.857	609.073
416.540	20.073	805.351	608.241
417.555	20.002	805.202	607.826
418.569	19.949	804.522	607.073
419.584	19.952	804.444	606.971
420.599	20.032	803.740	606.665
421.613	160.986	1372.884	1795.091
422.628	139.854	1455.798	1795.212
