DTS Sentinel unit serial number:	SN413079Multiplexer serial number:	ORYXHardware model number:	OX4-SRSoftware version number:	ORYX F/W v4.00 Oryx Data Collector v3.7.2.0data status	okinstallation	princeton_trtdifferential loss correction	single-endedforward channel	channel 1reverse channel	N/Adate	2019/09/12time	18:28:34forward acquisition time	15.00reverse acquisition time	0.00gamma	496.2192k internal	0.2318k external	0.2318temperature offset calibration	1.0109default loss term (dB/km)	0.3790temperature slope calibration	1.0000multiplexer offset coefficient	1.0000multiplexer slope coefficient	1.0000fibre end	0.00T internal ref (°C)	33.25T ext. ref 1 (°C)	2.93T ext. ref 2 (°C)	27.93length (m)	temperature (°C)	Stokes	anti-Stokes-747.200	-97.746	-0.425	-0.111
-746.185	-197.969	-0.582	-0.004
-745.171	-43.340	-0.484	0.248
-744.156	-200.000	-0.015	0.308
-743.142	-200.000	0.213	1.052
-742.127	11.671	-0.928	0.721
-741.112	-113.889	-0.143	-0.028
-740.098	248.771	0.257	-0.440
-739.083	-93.233	0.190	-0.054
-738.069	-147.630	0.398	0.034
-737.054	-63.350	0.109	0.045
-736.039	59.631	0.196	0.195
-735.025	-114.326	-0.939	0.183
-734.010	398.285	-0.064	-0.136
-732.996	-31.428	-0.325	0.185
-731.981	-117.456	-0.227	0.042
-730.966	196.556	-0.050	-0.077
-729.952	-3.711	0.506	-0.355
-728.937	699.470	0.176	-0.467
-727.923	-200.000	0.053	0.720
-726.908	150.914	0.473	-0.651
-725.894	-200.000	0.056	-0.821
-724.879	-83.048	0.560	0.183
-723.864	189.611	-0.116	-0.176
-722.850	800.000	-0.148	-0.451
-721.835	337.398	-0.062	-0.121
-720.821	62.979	0.121	-0.122
-719.806	42.315	-0.323	0.297
-718.791	-73.009	0.839	0.312
-717.777	94.296	-0.443	-0.508
-716.762	-38.936	0.838	-0.446
-715.748	137.064	0.268	0.354
-714.733	-200.000	-0.112	0.774
-713.718	-24.913	-0.643	-0.386
-712.704	-131.812	-1.172	-0.155
-711.689	-200.000	0.054	-0.725
-710.675	-38.244	-0.144	0.077
-709.660	-179.952	0.251	-0.005
-708.645	-132.230	0.757	-0.099
-707.631	-40.560	0.548	0.288
-706.616	141.072	-0.216	-0.288
-705.602	755.317	-0.249	-0.681
-704.587	-53.672	-0.483	0.223
-703.572	-98.163	-1.081	-0.281
-702.558	14.081	0.461	-0.363
-701.543	174.649	-0.159	-0.233
-700.529	145.359	-0.308	-0.417
-699.514	58.512	0.394	0.391
-698.499	-200.000	-0.092	-0.637
-697.485	-87.154	-0.567	0.174
-696.470	75.435	0.198	-0.211
-695.456	800.000	0.105	-0.379
-694.441	-200.000	0.131	-0.960
-693.426	-144.132	-0.664	0.063
-692.412	-200.000	0.098	-0.690
-691.397	-82.702	-0.502	0.164
-690.383	-200.000	0.036	-1.163
-689.368	-47.879	0.228	0.111
-688.354	-200.000	-0.063	-0.554
-687.339	-154.759	-0.519	0.035
-686.324	800.000	-0.157	-0.585
-685.310	61.670	-0.371	-0.373
-684.295	34.654	0.210	-0.185
-683.281	800.000	-0.173	-0.678
-682.266	145.583	0.120	-0.162
-681.251	-200.000	-0.142	0.957
-680.237	-56.149	0.299	-0.134
-679.222	-18.142	-0.382	-0.241
-678.208	-136.498	0.982	0.115
-677.193	31.545	-0.547	-0.474
-676.178	-138.220	-1.101	-0.123
-675.164	-34.900	-0.555	-0.306
-674.149	-191.657	-0.788	-0.008
-673.135	65.473	-0.598	0.611
-672.120	7.854	0.233	0.176
-671.105	-77.172	0.447	0.157
-670.091	-7.054	0.356	0.244
-669.076	297.404	-0.275	0.510
-668.062	654.321	0.033	0.086
-667.047	207.651	-0.227	-0.358
-666.032	800.000	-0.193	-0.676
-665.018	-20.537	0.279	0.173
-664.003	-51.965	-0.102	-0.048
-662.989	-97.751	0.403	0.105
-661.974	73.807	0.800	0.846
-660.959	-200.000	0.108	0.587
-659.945	275.927	-0.451	0.807
-658.930	403.946	0.076	-0.162
-657.916	800.000	0.139	0.448
-656.901	-200.000	-0.001	0.360
-655.886	800.000	0.252	0.711
-654.872	800.000	-0.115	0.406
-653.857	-200.000	0.065	-0.735
-652.843	800.000	-0.055	0.239
-651.828	-4.773	-0.639	0.444
-650.814	-67.622	0.041	0.016
-649.799	112.379	0.485	0.592
-648.784	800.000	-0.158	0.443
-647.770	-200.000	0.090	-0.695
-646.755	308.316	-0.212	-0.399
-645.741	562.400	0.094	-0.230
-644.726	51.375	0.604	-0.578
-643.711	135.355	-0.345	-0.452
-642.697	40.270	-0.423	-0.383
-641.682	-102.729	0.802	-0.193
-640.668	-0.631	-0.391	0.280
-639.653	-200.000	0.021	-0.563
-638.638	-89.055	0.955	-0.285
-637.624	-106.593	-0.095	-0.021
-636.609	-52.702	0.104	0.048
-635.595	-58.390	0.552	0.242
-634.580	269.132	-0.230	0.407
-633.565	-64.767	-0.218	-0.089
-632.551	-200.000	-0.061	-0.351
-631.536	439.735	0.277	-0.609
-630.522	-200.000	0.018	-0.307
-629.507	483.603	-0.285	0.653
-628.492	273.834	-0.227	0.405
-627.478	-45.163	-0.200	0.100
-626.463	-200.000	-0.024	-0.431
-625.449	-200.000	-0.037	0.541
-624.434	-87.586	0.391	-0.119
-623.419	-200.000	-0.075	-0.727
-622.405	367.792	0.288	-0.586
-621.390	226.487	-0.123	-0.201
-620.376	87.322	0.626	0.698
-619.361	-200.000	0.130	-0.794
-618.346	134.147	-0.456	-0.596
-617.332	-79.701	-0.406	0.138
-616.317	-185.807	0.495	0.007
-615.303	-129.576	0.303	0.042
-614.288	-65.528	-0.293	0.119
-613.273	240.377	-0.171	0.287
-612.259	-5.462	-0.160	-0.110
-611.244	-79.102	-0.348	-0.119
-610.230	198.730	-0.235	-0.363
-609.215	-200.000	-0.080	0.815
-608.201	249.199	-0.610	-1.041
-607.186	-200.000	0.062	0.510
-606.171	-200.000	0.054	0.405
-605.157	265.795	-0.166	-0.291
-604.142	-171.738	0.593	-0.020
-603.128	800.000	-0.179	0.722
-602.113	-200.000	0.113	1.047
-601.098	267.927	-0.328	-0.578
-600.084	-54.043	-0.420	0.192
-599.069	13.920	0.390	-0.306
-598.055	58.196	-0.505	-0.498
-597.040	248.441	-0.223	-0.380
-596.025	-70.929	0.830	-0.315
-595.011	-200.000	-0.010	-0.424
-593.996	-200.000	0.014	-0.221
-592.982	46.648	0.411	-0.384
-591.967	800.000	0.154	0.448
-590.952	-12.162	-0.291	0.192
-589.938	-77.082	-0.320	0.112
-588.923	-200.000	0.080	0.399
-587.909	118.237	-0.157	-0.195
-586.894	8.112	-0.427	-0.322
-585.879	800.000	-0.259	0.843
-584.865	637.918	0.021	0.054
-583.850	-31.844	-0.403	0.227
-582.836	8.463	0.561	-0.424
-581.821	-3.053	0.205	0.144
-580.806	-173.531	-0.572	-0.017
-579.792	-78.592	0.470	-0.162
-578.777	-90.201	0.437	0.128
-577.763	75.166	-0.774	-0.820
-576.748	27.412	0.594	0.502
-575.733	-109.792	-0.395	-0.083
-574.719	-39.325	-0.511	0.269
-573.704	153.352	-0.411	-0.565
-572.690	-200.000	0.099	1.053
-571.675	496.307	-0.250	0.577
-570.661	502.660	-0.337	0.784
-569.646	242.538	0.185	0.312
-568.631	213.342	0.260	-0.413
-567.617	232.022	0.400	-0.660
-566.602	198.102	-0.081	-0.124
-565.588	-104.799	0.403	0.093
-564.573	-200.000	0.000	0.685
-563.558	46.211	0.774	-0.721
-562.544	-200.000	-0.142	-0.674
-561.529	800.000	0.144	0.460
-560.515	-159.660	0.483	0.027
-559.500	607.830	-0.334	0.838
-558.485	-189.699	-0.275	0.003
-557.471	-34.789	0.181	-0.099
-556.456	-200.000	-0.007	0.352
-555.442	13.951	-0.370	0.289
-554.427	-198.294	0.256	0.001
-553.412	-67.548	-0.455	-0.179
-552.398	195.496	0.055	-0.085
-551.383	-112.379	0.657	-0.132
-550.369	-200.000	0.070	-0.436
-549.354	25.899	-0.430	0.360
-548.339	126.060	-0.313	0.398
-547.325	-200.000	-0.051	0.593
-546.310	280.342	0.123	-0.221
-545.296	69.921	-0.269	0.278
-544.281	61.915	-0.420	-0.421
-543.266	-170.609	0.788	-0.027
-542.252	800.000	-0.115	0.500
-541.237	488.748	0.168	-0.385
-540.223	32.190	-0.778	-0.674
-539.208	6.669	-0.595	0.444
-538.193	-31.834	0.318	0.179
-537.179	800.000	0.172	-0.527
-536.164	-78.334	0.491	0.169
-535.150	-45.033	0.304	-0.152
-534.135	-200.000	0.092	1.011
-533.121	-91.013	-0.317	0.091
-532.106	-153.706	-0.838	0.058
-531.091	800.000	0.082	-0.277
-530.077	-88.988	0.542	-0.161
-529.062	-65.880	0.884	0.355
-528.048	552.322	-0.339	-0.818
-527.033	191.561	0.372	-0.563
-526.018	-200.000	0.061	0.529
-525.004	-144.133	-0.344	-0.032
-523.989	-200.000	-0.028	0.171
-522.975	-28.210	-0.642	-0.372
-521.960	63.910	-0.551	-0.556
-520.945	-140.036	-0.359	0.038
-519.931	-87.707	-0.519	-0.157
-518.916	-200.000	0.051	0.450
-517.902	-12.430	0.634	-0.416
-516.887	493.772	-0.157	0.360
-515.872	98.339	0.169	0.195
-514.858	621.910	0.253	-0.638
-513.843	-200.000	-0.769	-0.002
-512.829	697.277	-0.283	-0.745
-511.814	-200.000	-0.004	-0.625
-510.799	24.781	-0.974	0.810
-509.785	233.959	-0.160	0.264
-508.770	-179.207	-0.258	0.006
-507.756	-55.170	-0.564	0.255
-506.741	-159.435	0.123	0.007
-505.726	-200.000	0.023	0.368
-504.712	-14.530	-0.453	0.292
-503.697	-200.000	0.093	-0.609
-502.683	-134.504	-0.311	-0.038
-501.668	21.527	-0.557	-0.454
-500.653	-102.181	0.447	0.108
-499.639	126.968	0.139	0.176
-498.624	-200.000	0.108	0.507
-497.610	324.062	0.124	0.238
-496.595	611.224	0.175	-0.438
-495.581	-86.436	-0.437	0.135
-494.566	128.126	-0.193	-0.247
-493.551	-91.461	0.296	-0.085
-492.537	-61.847	-0.388	-0.163
-491.522	-157.121	0.981	0.060
-490.508	789.297	-0.200	0.550
-489.493	-126.829	-0.877	-0.130
-488.478	-200.000	-0.036	-0.585
-487.464	71.784	-0.565	-0.588
-486.449	24.858	1.110	0.922
-485.435	-88.090	0.179	0.054
-484.420	-200.000	0.089	0.441
-483.405	-200.000	-0.012	0.677
-482.391	37.115	-0.629	-0.558
-481.376	800.000	0.158	-0.628
-480.362	-19.414	-0.405	0.252
-479.347	-1.713	0.364	-0.257
-478.332	34.169	-0.173	-0.151
-477.318	388.047	-0.429	-0.889
-476.303	-16.850	0.238	-0.150
-475.289	-200.000	-0.056	-0.250
-474.274	-74.986	-0.440	-0.158
-473.259	-6.633	-0.388	-0.265
-472.245	47.877	-0.556	0.520
-471.230	16.604	0.281	-0.223
-470.216	800.000	0.276	0.959
-469.201	-80.103	0.926	0.311
-468.186	-174.569	-0.084	0.002
-467.172	-148.963	-0.247	0.020
-466.157	36.122	0.367	0.324
-465.143	388.824	0.208	-0.432
-464.128	105.821	0.135	0.160
-463.113	-200.000	0.171	0.966
-462.099	-33.558	0.556	0.308
-461.084	-200.000	-0.043	0.272
-460.070	-200.000	-0.031	0.567
-459.055	626.881	-0.173	0.437
-458.040	602.109	-0.190	0.473
-457.026	55.788	-0.320	-0.310
-456.011	-62.021	-0.406	-0.170
-454.997	-0.699	-0.342	0.242
-453.982	109.869	-0.534	-0.640
-452.968	-53.055	-0.153	0.070
-451.953	-48.717	-0.511	0.245
-450.938	132.835	-0.308	-0.397
-449.924	-28.267	0.247	-0.143
-448.909	-18.146	-0.590	0.370
-447.895	574.037	0.197	0.481
-446.880	57.399	0.447	0.436
-445.865	354.656	0.192	-0.381
-444.851	-85.779	-0.042	0.013
-443.836	230.742	-0.265	0.433
-442.822	-200.000	0.048	-0.293
-441.807	238.244	-0.106	-0.177
-440.792	-12.171	-1.017	0.666
-439.778	64.551	-0.277	0.279
-438.763	-113.906	-0.330	-0.064
-437.749	-69.603	-0.159	0.061
-436.734	-200.000	0.113	0.529
-435.719	70.585	0.472	-0.489
-434.705	-87.223	0.351	0.107
-433.690	-200.000	-0.061	0.443
-432.676	98.102	0.676	-0.779
-431.661	-66.846	-1.004	0.397
-430.646	-200.000	0.019	-0.094
-429.632	-121.967	0.199	0.033
-428.617	-161.534	0.509	-0.026
-427.603	-106.014	0.151	0.034
-426.588	6.191	-0.559	-0.414
-425.573	800.000	0.107	-0.300
-424.559	-69.030	-0.201	-0.078
-423.544	87.781	0.240	-0.265
-422.530	138.626	0.073	0.096
-421.515	460.613	-0.180	-0.402
-420.500	-200.000	-0.008	-0.205
-419.486	-200.000	0.078	-0.512
-418.471	-125.629	0.560	0.085
-417.457	9.038	-0.081	0.061
-416.442	-185.031	0.325	-0.005
-415.428	-81.756	0.680	-0.223
-414.413	1.562	0.286	0.206
-413.398	-93.200	0.213	-0.059
-412.384	-200.000	0.016	-0.515
-411.369	-60.133	-0.755	0.322
-410.355	533.456	-0.092	0.219
-409.340	-200.000	-0.043	-0.274
-408.325	8.656	-0.333	0.251
-407.311	-111.282	0.361	0.074
-406.296	575.820	-0.128	-0.313
-405.282	54.741	0.290	-0.280
-404.267	-144.193	0.730	0.068
-403.252	-144.027	0.681	0.064
-402.238	-7.863	-0.342	-0.230
-401.223	-103.452	-0.168	0.039
-400.209	-200.000	0.154	0.923
-399.194	-14.310	0.199	-0.128
-398.179	439.883	-0.267	-0.583
-397.165	-176.145	-0.415	0.011
-396.150	-148.614	-0.281	0.023
-395.136	6.816	0.403	0.300
-394.121	4.515	0.793	-0.581
-393.106	-200.000	-0.025	-0.299
-392.092	-76.732	0.068	-0.024
-391.077	161.798	0.300	-0.419
-390.063	0.700	0.358	-0.256
-389.048	-126.235	0.537	-0.080
-388.033	-200.000	0.014	0.208
-387.019	-49.352	-0.933	-0.444
-386.004	143.176	0.235	-0.312
-384.990	-157.906	-0.382	-0.023
-383.975	5.553	-0.345	0.254
-382.960	-188.745	-0.965	0.012
-381.946	800.000	-0.168	0.464
-380.931	305.190	0.391	0.724
-379.917	145.593	0.453	-0.606
-378.902	-15.639	-0.645	0.411
-377.888	199.860	-0.153	-0.235
-376.873	-96.597	-0.564	0.148
-375.858	29.792	0.201	-0.171
-374.844	160.038	0.296	-0.412
-373.829	73.432	0.094	0.098
-372.815	800.000	0.303	-1.153
-371.800	-200.000	-0.100	-0.608
-370.785	15.899	0.729	-0.572
-369.771	37.691	0.481	0.426
-368.756	22.991	0.231	0.189
-367.742	-200.000	-0.033	0.442
-366.727	800.000	0.191	-0.605
-365.712	3.939	0.501	0.365
-364.698	-200.000	0.147	0.759
-363.683	-135.635	0.382	-0.045
-362.669	84.437	0.397	0.433
-361.654	-200.000	-0.054	0.514
-360.639	-145.558	0.638	-0.057
-359.625	61.330	-0.336	-0.333
-358.610	-136.772	-0.309	0.036
-357.596	-43.984	-0.327	-0.164
-356.581	-27.569	0.303	-0.175
-355.566	-200.000	0.041	0.772
-354.552	326.297	0.422	0.806
-353.537	800.000	0.050	-0.213
-352.523	74.479	0.580	0.608
-351.508	-36.123	0.874	-0.471
-350.493	-200.000	0.150	0.888
-349.479	-200.000	-0.040	0.754
-348.464	157.697	-0.084	-0.116
-347.450	101.372	-0.172	0.200
-346.435	-200.000	0.124	-0.584
-345.420	87.805	0.320	0.353
-344.406	-200.000	-0.070	0.478
-343.391	-178.355	0.266	0.006
-342.377	-95.974	0.737	0.196
-341.362	56.266	0.230	0.223
-340.348	76.811	-0.665	0.703
-339.333	-74.127	-0.407	0.147
-338.318	-200.000	0.086	0.498
-337.304	81.690	0.256	0.276
-336.289	439.991	-0.094	-0.204
-335.275	135.008	-0.226	0.293
-334.260	105.948	0.246	0.290
-333.245	-58.308	0.370	0.160
-332.231	-124.919	-0.531	0.081
-331.216	-200.000	-0.162	0.724
-330.202	168.194	0.498	-0.706
-329.187	800.000	-0.349	0.979
-328.172	800.000	0.161	-0.487
-327.158	800.000	-0.104	-0.344
-326.143	497.242	-0.184	0.422
-325.129	-84.129	-0.676	0.214
-324.114	-24.041	0.804	0.479
-323.099	-69.187	1.412	-0.541
-322.085	-120.706	0.236	0.040
-321.070	800.000	0.227	-0.774
-320.056	13.973	-0.052	-0.041
-319.041	-164.860	0.504	0.023
-318.026	248.510	0.227	0.382
-317.012	-103.687	-1.170	0.273
-315.997	-59.518	0.731	0.312
-314.983	271.038	-0.325	-0.570
-313.968	-161.910	0.418	0.021
-312.953	260.581	-0.346	-0.595
-311.939	-152.759	0.102	-0.007
-310.924	-200.000	-0.019	0.178
-309.910	-4.036	-0.501	-0.346
-308.895	86.821	-0.133	-0.146
-307.880	-23.259	0.653	0.391
-306.866	-90.534	-0.504	0.145
-305.851	-200.000	-0.083	-1.068
-304.837	167.348	0.137	0.194
-303.822	103.845	-0.779	-0.910
-302.807	789.660	-0.174	-0.474
-301.793	13.353	0.616	0.475
-300.778	422.582	0.223	-0.476
-299.764	287.058	0.212	-0.381
-298.749	-56.043	-0.122	-0.054
-297.735	800.000	-0.122	0.521
-296.720	5.146	-0.887	0.650
-295.705	54.946	-1.037	0.996
-294.691	-37.359	0.647	0.344
-293.676	-8.768	0.053	-0.035
-292.662	-200.000	0.073	-1.088
-291.647	-200.000	0.068	-0.570
-290.632	122.077	-0.286	0.355
-289.618	-159.357	-0.349	0.019
-288.603	216.715	-0.360	-0.569
-287.589	-91.171	-0.605	-0.172
-286.574	-47.498	-0.073	0.035
-285.559	25.915	-0.460	0.382
-284.545	102.569	0.482	0.561
-283.530	704.161	0.119	0.313
-282.516	116.581	-0.225	0.275
-281.501	-62.042	-0.515	-0.214
-280.486	292.496	-0.475	0.860
-279.472	800.000	0.241	-0.662
-278.457	-190.197	0.892	-0.010
-277.443	-76.528	-0.715	-0.249
-276.428	-84.721	0.654	-0.204
-275.413	172.462	-0.391	-0.560
-274.399	665.832	-0.189	0.486
-273.384	-123.118	-0.204	-0.033
-272.370	800.000	-0.354	1.168
-271.355	-200.000	0.031	-0.416
-270.340	643.334	-0.141	-0.358
-269.326	678.844	-0.254	-0.657
-268.311	-126.793	0.565	0.083
-267.297	218.765	0.489	-0.776
-266.282	-200.000	0.056	-0.433
-265.267	-66.843	-0.202	-0.080
-264.253	-154.664	-0.280	0.018
-263.238	-131.993	0.121	-0.016
-262.224	-6.098	-1.268	0.861
-261.209	-17.124	0.333	0.208
-260.195	411.150	0.411	-0.867
-259.180	-200.000	-0.041	-0.880
-258.165	800.000	-0.090	0.392
-257.151	294.088	0.554	-1.005
-256.136	107.981	0.232	0.274
-255.122	-124.419	-0.458	-0.071
-254.107	-78.379	0.181	0.062
-253.092	-113.527	0.156	-0.030
-252.078	-156.988	-0.255	-0.016
-251.063	-31.794	-0.971	-0.540
-250.049	-25.425	0.014	-0.008
-249.034	-37.173	-0.871	-0.463
-248.019	147.327	-0.480	0.642
-247.005	-42.853	-0.257	-0.130
-245.990	151.929	-0.251	-0.340
-244.976	57.171	0.633	-0.613
-243.961	-31.077	-0.378	0.212
-242.946	-56.459	-1.107	-0.488
-241.932	-64.910	0.362	0.145
-240.917	46.322	-0.400	0.368
-239.903	-200.000	-0.056	-0.421
-238.888	285.234	0.244	-0.437
-237.873	-200.000	0.008	-0.378
-236.859	31.953	0.228	0.195
-235.844	-200.000	0.054	-0.757
-234.830	-200.000	-0.041	0.973
-233.815	-129.177	0.660	0.091
-232.800	658.794	-0.110	-0.281
-231.786	-80.597	-0.185	-0.061
-230.771	-127.016	-0.651	0.095
-229.757	-26.719	-0.549	0.319
-228.742	-2.752	0.409	0.283
-227.727	-58.324	1.035	0.447
-226.713	-200.000	0.127	0.723
-225.698	800.000	-0.175	-0.502
-224.684	386.986	0.104	0.213
-223.669	-43.925	1.129	0.563
-222.655	-127.577	-0.176	0.025
-221.640	24.583	-0.161	-0.132
-220.625	-200.000	-0.112	-0.602
-219.611	800.000	0.057	-0.240
-218.596	-200.000	0.030	-0.275
-217.582	-106.093	-0.554	-0.124
-216.567	69.477	0.192	0.196
-215.552	496.970	0.325	-0.740
-214.538	-57.473	-0.392	0.170
-213.523	-14.317	-0.643	0.410
-212.509	-200.000	-0.025	0.741
-211.494	-89.371	0.073	-0.021
-210.479	36.548	-0.483	0.423
-209.465	-167.290	0.521	0.021
-208.450	25.666	-0.317	-0.262
-207.436	-200.000	-0.060	-1.131
-206.421	800.000	0.153	0.500
-205.406	-200.000	0.003	0.152
-204.392	100.039	0.301	-0.346
-203.377	-200.000	0.189	0.860
-202.363	-152.267	0.453	-0.032
-201.348	-73.655	-0.175	0.063
-200.333	-105.244	0.248	-0.056
-199.319	747.492	0.163	-0.435
-198.304	-146.514	-0.295	-0.025
-197.290	75.204	0.507	-0.530
-196.275	-200.000	0.036	-0.320
-195.260	-97.704	-0.651	0.167
-194.246	211.191	0.149	-0.232
-193.231	-122.981	0.308	-0.049
-192.217	103.259	0.259	0.301
-191.202	-200.000	0.262	1.196
-190.187	-96.810	0.422	-0.110
-189.173	-200.000	-0.013	-0.469
-188.158	162.148	-0.392	0.544
-187.144	242.398	0.531	-0.880
-186.129	-120.138	0.557	-0.094
-185.114	-121.675	0.535	-0.088
-184.100	-83.726	0.827	-0.261
-183.085	522.900	0.144	-0.336
-182.071	-200.000	0.080	0.989
-181.056	-200.000	0.056	0.287
-180.042	-85.290	-0.272	-0.084
-179.027	-151.418	0.256	-0.019
-178.012	800.000	-0.238	0.953
-176.998	-126.728	-1.059	-0.155
-175.983	-200.000	0.013	0.223
-174.969	-81.864	-1.124	-0.364
-173.954	-71.655	0.352	0.130
-172.939	-200.000	0.139	0.738
-171.925	-61.872	0.444	0.184
-170.910	-3.500	0.547	0.376
-169.896	133.098	-0.120	0.153
-168.881	26.023	-0.520	-0.429
-167.866	79.160	0.227	-0.241
-166.852	612.564	-0.254	0.628
-165.837	330.120	0.454	-0.864
-164.823	-154.916	0.890	0.058
-163.808	236.465	0.627	1.026
-162.793	35.614	0.629	-0.547
-161.779	-200.000	-0.106	-0.542
-160.764	-200.000	0.113	-0.523
-159.750	-100.578	0.454	-0.111
-158.735	-14.025	0.358	-0.228
-157.720	154.202	-0.174	0.236
-156.706	-200.000	0.043	0.341
-155.691	-200.000	-0.028	-0.514
-154.677	-50.963	-0.589	0.273
-153.662	-200.000	0.489	-0.001
-152.647	137.774	-0.175	0.227
-151.633	800.000	-0.190	0.601
-150.618	-200.000	0.162	0.770
-149.604	687.631	-0.354	-0.916
-148.589	354.779	0.289	-0.567
-147.574	800.000	-0.113	-0.363
-146.560	-69.220	0.609	-0.232
-145.545	-200.000	0.014	-0.764
-144.531	61.937	-0.534	-0.526
-143.516	25.044	-0.370	-0.304
-142.502	-200.000	-0.035	-0.253
-141.487	735.557	0.445	-1.179
-140.472	-124.282	0.349	0.054
-139.458	41.803	0.146	0.131
-138.443	-200.000	0.045	0.438
-137.429	-5.400	0.685	-0.465
-136.414	380.246	-0.244	0.494
-135.399	220.291	-0.103	-0.164
-134.385	25.733	-0.660	0.543
-133.370	491.866	0.175	-0.395
-132.356	202.912	0.771	-1.178
-131.341	-130.364	-0.670	0.090
-130.326	-200.000	-0.057	0.923
-129.312	227.648	0.292	0.469
-128.297	-87.484	-0.656	-0.196
-127.283	-132.615	0.238	0.030
-126.268	90.991	0.577	0.640
-125.253	66.793	0.586	-0.589
-124.239	65.577	0.695	0.695
-123.224	10.305	-0.325	-0.245
-122.210	-200.000	-0.104	-0.820
-121.195	649.247	0.260	0.658
-120.180	49.771	-0.753	-0.701
-119.166	-84.581	0.159	0.049
-118.151	65.245	-0.343	-0.342
-117.137	-129.281	0.504	0.069
-116.122	-74.627	0.595	-0.211
-115.107	199.135	0.465	-0.704
-114.093	-200.000	0.055	-0.259
-113.078	184.077	-0.597	0.872
-112.064	-200.000	-0.010	-1.009
-111.049	610.271	0.190	0.468
-110.034	39.048	-0.499	-0.440
-109.020	401.005	0.341	-0.708
-108.005	-200.000	-0.099	0.507
-106.991	-39.133	0.430	0.223
-105.976	-200.000	-0.029	0.398
-104.962	373.539	0.311	-0.624
-103.947	192.358	-0.343	0.511
-102.932	-200.000	0.011	0.715
-101.918	-71.795	0.547	-0.201
-100.903	-109.066	0.446	0.094
-99.889	800.000	-0.135	-0.464
-98.874	-58.242	-0.308	-0.132
-97.859	122.709	-0.202	-0.249
-96.845	-112.718	-0.479	0.094
-95.830	-122.514	0.815	-0.131
-94.816	130.786	0.371	-0.469
-93.801	11.122	-0.958	0.723
-92.786	78.778	-0.391	-0.413
-91.772	-183.218	-0.582	0.010
-90.757	-74.191	1.014	-0.362
-89.743	-35.950	-0.697	-0.372
-88.728	598.758	-0.342	0.837
-87.713	-156.861	0.365	-0.022
-86.699	800.000	-0.116	0.386
-85.684	-200.000	0.073	-0.769
-84.670	-32.845	0.533	0.292
-83.655	-103.836	-0.517	0.119
-82.640	1.745	0.510	-0.363
-81.626	-200.000	-0.077	0.413
-80.611	-38.006	-0.433	0.227
-79.597	-172.976	0.824	-0.025
-78.582	-73.187	-0.848	0.307
-77.567	-100.792	-0.311	-0.075
-76.553	-94.860	-0.547	0.146
-75.538	24.966	-0.277	0.227
-74.524	-166.840	-0.401	0.016
-73.509	120.925	0.282	0.346
-72.494	-200.000	-0.013	-0.425
-71.480	-200.000	0.117	-1.032
-70.465	-3.591	-0.200	-0.137
-69.451	-200.000	-0.033	-0.373
-68.436	-120.350	-0.672	-0.113
-67.422	24.802	-0.259	0.212
-66.407	-200.000	-0.085	-0.950
-65.392	-79.590	0.940	-0.313
-64.378	-200.000	-0.227	-1.063
-63.363	111.239	0.135	0.161
-62.349	364.189	0.205	-0.407
-61.334	-24.523	-1.305	-0.766
-60.319	73.564	0.350	-0.362
-59.305	-200.000	-0.136	-1.385
-58.290	800.000	0.498	1.630
-57.276	408.578	1.037	2.163
-56.261	-200.000	96.028	571.688
-55.246	648.365	1368.327	3447.662
-54.232	200.456	2536.523	3840.477
-53.217	119.570	2129.215	2597.939
-52.203	45.155	1597.912	1450.963
-51.188	37.003	1338.017	1166.143
-50.173	33.779	1296.175	1110.807
-49.159	57.240	1345.363	1293.169
-48.144	57.817	1362.482	1313.005
-47.130	36.966	1320.517	1150.488
-46.115	33.444	1303.025	1114.530
-45.100	33.090	1298.611	1108.630
-44.086	33.201	1295.765	1106.807
-43.071	33.222	1293.659	1105.089
-42.057	33.042	1291.489	1102.142
-41.042	33.344	1289.266	1101.959
-40.027	32.871	1290.190	1099.948
-39.013	33.511	1285.412	1099.544
-37.998	33.008	1285.197	1096.397
-36.984	33.040	1284.165	1095.660
-35.969	33.094	1282.946	1094.888
-34.954	33.204	1280.351	1093.266
-33.940	33.411	1278.166	1092.553
-32.925	33.125	1277.304	1090.124
-31.911	33.276	1276.345	1090.131
-30.896	33.256	1273.830	1087.827
-29.881	33.235	1273.125	1087.061
-28.867	33.383	1271.963	1086.876
-27.852	33.402	1268.888	1084.315
-26.838	33.307	1268.269	1083.199
-25.823	33.247	1267.204	1081.901
-24.809	33.512	1266.079	1082.412
-23.794	33.434	1264.576	1080.638
-22.779	33.399	1263.128	1079.161
-21.765	33.291	1262.529	1077.992
-20.750	33.416	1260.753	1077.144
-19.736	33.212	1259.411	1074.793
-18.721	33.428	1258.038	1074.808
-17.706	33.272	1257.117	1073.093
-16.692	33.437	1256.180	1073.183
-15.677	33.065	1255.644	1070.577
-14.663	33.351	1253.705	1070.500
-13.648	33.247	1253.376	1069.589
-12.633	33.249	1252.722	1068.996
-11.619	33.185	1251.180	1067.279
-10.604	33.047	1251.490	1066.723
-9.590	33.240	1249.291	1065.889
-8.575	33.225	1248.397	1065.004
-7.560	33.140	1246.978	1063.273
-6.546	32.937	1247.629	1062.642
-5.531	33.159	1246.317	1062.731
-4.517	33.290	1244.925	1062.235
-3.502	33.290	1243.603	1061.067
-2.487	33.343	1243.081	1060.876
-1.473	33.001	1239.857	1056.169
-0.458	31.621	1224.450	1035.376
0.556	29.082	1206.677	997.146
1.571	25.328	1211.941	980.942
2.586	24.148	1227.407	986.841
3.600	23.725	1216.133	975.369
4.615	17.312	1144.658	884.701
5.629	7.365	1069.072	777.642
6.644	3.383	1048.958	743.756
7.659	3.212	1044.902	739.992
8.673	2.661	1044.300	736.854
9.688	2.468	1043.073	734.997
10.702	3.284	1040.902	737.309
11.717	9.768	1048.332	773.691
12.731	19.047	1064.610	830.633
13.746	24.481	1070.408	861.384
14.761	25.310	1071.306	866.031
15.775	25.511	1069.548	865.499
16.790	25.265	1069.121	863.891
17.804	25.035	1068.469	862.181
18.819	25.374	1068.290	863.593
19.834	25.207	1068.454	862.844
20.848	25.069	1068.102	861.823
21.863	25.286	1066.920	861.831
22.877	24.969	1067.058	860.348
23.892	25.282	1065.551	860.555
24.907	25.082	1065.054	859.120
25.921	25.127	1063.259	857.812
26.936	24.945	1062.810	856.505
27.950	25.082	1061.193	855.777
28.965	25.096	1058.951	853.963
29.980	24.883	1057.750	851.903
30.994	24.910	1057.875	852.060
32.009	25.391	1054.999	851.945
33.023	25.404	1053.949	851.084
34.038	25.085	1054.369	849.839
35.053	24.923	1054.226	848.878
36.067	25.332	1053.011	849.761
37.082	25.083	1052.171	847.834
38.096	25.129	1052.542	848.273
39.111	25.082	1051.136	846.842
40.126	25.145	1049.699	845.907
41.140	25.020	1047.681	843.616
42.155	24.564	1047.103	840.933
43.169	24.856	1045.865	841.238
44.184	24.427	1046.050	839.292
45.199	24.805	1043.067	838.599
46.213	25.058	1042.383	839.157
47.228	25.292	1042.384	840.182
48.242	25.270	1041.719	839.466
49.257	25.008	1042.334	838.661
50.271	25.178	1041.168	838.443
51.286	25.406	1040.068	838.547
52.301	25.249	1039.498	837.282
53.315	24.960	1038.406	834.981
54.330	25.376	1036.071	834.965
55.344	25.473	1035.513	834.891
56.359	25.310	1034.645	833.361
57.374	24.917	1034.569	831.402
58.388	24.854	1034.614	831.071
59.403	24.906	1033.631	830.451
60.417	24.964	1031.893	829.249
61.432	25.085	1030.957	828.983
62.447	25.043	1030.451	828.310
63.461	25.068	1030.122	828.089
64.476	24.584	1029.869	825.576
65.490	24.680	1028.015	824.456
66.505	25.076	1027.796	826.036
67.520	24.949	1027.229	824.919
68.534	24.577	1025.892	822.064
69.549	24.780	1023.994	821.399
70.563	24.596	1023.425	820.028
71.578	24.685	1022.415	819.555
72.593	24.158	1022.209	816.898
73.607	24.481	1021.377	817.643
74.622	24.611	1021.663	818.394
75.636	24.931	1019.767	818.267
76.651	24.718	1019.894	817.324
77.666	24.715	1018.953	816.481
78.680	24.738	1017.725	815.529
79.695	24.296	1019.010	814.469
80.709	24.789	1017.139	815.150
81.724	24.830	1017.075	815.210
82.739	24.948	1015.738	814.607
83.753	24.899	1016.153	814.642
84.768	25.793	1014.510	817.312
85.782	25.650	1013.975	816.163
86.797	25.464	1013.825	815.126
87.812	25.180	1012.988	813.093
88.826	25.576	1011.130	813.320
89.841	25.536	1010.075	812.218
90.855	25.604	1008.686	811.339
91.870	25.448	1009.102	810.896
92.884	25.505	1008.342	810.468
93.899	25.595	1006.693	809.479
94.914	25.483	1006.003	808.347
95.928	25.549	1004.657	807.493
96.943	25.240	1003.670	805.240
97.957	25.064	1003.580	804.306
98.972	24.932	1003.389	803.490
99.987	25.296	1002.073	803.995
101.001	25.387	1001.110	803.558
102.016	25.337	999.389	801.885
103.030	25.472	998.968	802.079
104.045	25.376	997.712	800.571
105.060	25.195	997.363	799.414
106.074	25.326	995.806	798.676
107.089	25.534	995.690	799.441
108.103	25.552	993.901	798.011
109.118	25.008	993.117	794.900
110.133	24.982	992.661	794.346
111.147	25.060	991.138	793.404
112.162	24.568	990.643	790.760
113.176	24.851	990.117	791.523
114.191	24.941	989.851	791.637
115.206	24.348	989.212	788.437
116.220	24.585	986.570	787.303
117.235	24.611	986.656	787.420
118.249	24.485	986.447	786.628
119.264	24.716	985.078	786.482
120.279	24.634	985.043	786.026
121.293	24.818	983.192	785.287
122.308	24.674	982.241	783.825
123.322	24.890	981.147	783.830
124.337	24.615	980.632	782.142
125.352	24.551	978.520	780.110
126.366	24.779	977.924	780.561
127.381	24.722	978.130	780.409
128.395	25.091	978.019	781.858
129.410	25.423	975.969	781.599
130.424	25.236	975.806	780.582
131.439	25.411	974.470	780.208
132.454	24.908	975.196	778.532
133.468	25.052	973.519	777.751
134.483	25.243	972.743	777.886
135.497	25.477	972.168	778.375
136.512	25.463	971.790	777.940
137.527	25.355	970.335	776.243
138.541	25.352	969.530	775.515
139.556	25.249	968.675	774.320
140.570	25.289	968.634	774.390
141.585	25.196	967.904	773.336
142.600	25.480	966.300	773.210
143.614	26.085	965.305	774.943
144.629	25.952	964.994	774.056
145.643	25.626	964.205	771.952
146.658	25.306	963.249	769.748
147.673	25.415	961.361	768.639
148.687	25.314	960.408	767.377
149.702	25.247	959.267	766.111
150.716	25.347	958.294	765.691
151.731	25.473	958.321	766.182
152.746	25.580	957.885	766.223
153.760	25.495	956.829	764.948
154.775	25.803	956.621	766.026
155.789	25.869	954.392	764.453
156.804	25.580	955.059	763.690
157.819	25.693	954.352	763.539
158.833	26.027	952.826	763.663
159.848	26.038	952.238	763.172
160.862	25.564	952.561	761.357
161.877	25.724	949.865	759.808
162.892	25.909	948.871	759.728
163.906	25.677	948.198	758.144
164.921	25.484	947.600	756.787
165.935	25.531	946.773	756.257
166.950	25.863	945.636	756.674
167.964	25.605	945.157	755.144
168.979	25.546	943.409	753.431
169.994	25.472	943.399	753.048
171.008	25.706	942.308	753.089
172.023	25.950	941.996	753.793
173.037	26.006	941.017	753.176
174.052	25.431	939.991	749.891
175.067	25.060	940.071	748.338
176.081	25.430	939.697	749.520
177.096	25.100	938.961	747.492
178.110	24.943	938.016	746.018
179.125	25.154	936.802	745.865
180.140	24.844	937.005	744.671
181.154	25.412	935.228	745.551
182.169	25.514	935.949	746.483
183.183	25.779	935.584	747.224
184.198	25.496	934.092	744.796
185.213	25.512	933.606	744.407
186.227	25.519	933.453	744.249
187.242	25.499	933.291	743.970
188.256	25.987	932.235	745.081
189.271	25.781	931.755	743.779
190.286	25.581	930.871	742.182
191.300	24.966	928.681	737.839
192.315	24.533	926.910	734.585
193.329	24.289	926.518	733.205
194.344	25.187	926.626	736.920
195.359	25.749	926.415	738.992
196.373	25.899	926.451	739.571
197.388	25.971	925.853	739.325
198.402	25.773	925.732	738.350
199.417	25.816	924.923	737.815
200.432	26.118	923.326	737.709
201.446	25.682	924.074	736.459
202.461	25.521	922.611	734.571
203.475	24.978	921.644	731.520
204.490	24.431	919.784	727.748
205.504	25.253	920.285	731.432
206.519	25.513	919.798	732.037
207.534	25.521	919.999	732.169
208.548	25.656	918.813	731.709
209.563	25.641	918.868	731.625
210.577	25.609	918.691	731.291
211.592	25.986	917.785	732.033
212.607	26.367	916.035	732.117
213.621	26.122	915.972	731.009
214.636	26.359	914.694	730.883
215.650	25.934	914.362	728.837
216.665	25.984	913.414	728.219
217.680	26.019	913.104	728.048
218.694	25.671	913.381	726.799
219.709	25.771	911.507	725.646
220.723	25.821	911.270	725.594
221.738	25.562	911.837	724.936
222.753	25.755	911.163	725.113
223.767	25.940	909.879	724.772
224.782	26.233	909.350	725.464
225.796	26.292	908.404	724.884
226.811	25.722	907.429	721.756
227.826	24.950	906.016	717.477
228.840	25.356	905.933	718.974
229.855	25.485	905.419	719.019
230.869	24.816	904.573	715.608
231.884	25.305	903.883	716.951
232.899	25.858	904.069	719.246
233.913	25.484	903.626	717.336
234.928	25.640	903.015	717.409
235.942	25.351	901.984	715.375
236.957	25.415	901.477	715.163
237.972	25.243	900.799	713.879
238.986	25.539	899.693	714.115
240.001	25.325	898.726	712.437
241.015	25.652	898.154	713.218
242.030	25.836	899.144	714.668
243.045	26.102	897.500	714.352
244.059	25.879	897.267	713.221
245.074	25.883	896.791	712.795
246.088	25.903	896.310	712.430
247.103	26.239	896.265	713.658
248.117	26.831	895.617	715.414
249.132	26.699	894.962	714.307
250.147	26.981	894.956	715.351
251.161	26.866	893.791	713.903
252.176	26.554	895.114	713.667
253.190	27.180	893.218	714.554
254.205	27.192	893.202	714.525
255.220	26.717	892.167	711.771
256.234	26.906	890.940	711.471
257.249	27.048	889.873	711.109
258.263	26.362	889.811	708.313
259.278	27.010	889.348	710.418
260.293	26.748	889.479	709.431
261.307	26.785	888.065	708.385
262.322	26.549	888.216	707.521
263.336	26.012	886.216	703.772
264.351	25.472	884.553	700.286
265.366	25.511	884.228	700.117
266.380	26.137	884.301	702.552
267.395	26.795	883.193	704.165
268.409	26.345	883.772	702.815
269.424	26.397	883.152	702.461
270.439	26.373	882.245	701.586
271.453	26.360	881.707	701.043
272.468	26.549	881.320	701.406
273.482	27.417	879.651	703.373
274.497	26.786	879.160	700.481
275.512	26.313	879.771	699.077
276.526	26.550	878.720	699.094
277.541	26.714	878.274	699.312
278.555	26.522	878.140	698.401
279.570	26.643	877.762	698.505
280.585	26.895	875.912	697.941
281.599	26.745	875.290	696.807
282.614	26.602	874.544	695.603
283.628	26.332	874.467	694.443
284.643	26.106	873.756	692.951
285.657	26.127	872.760	692.178
286.672	26.003	872.605	691.516
287.687	26.771	871.362	693.413
288.701	26.580	871.002	692.332
289.716	26.340	870.821	691.209
290.730	26.026	869.676	689.041
291.745	25.848	869.550	688.199
292.760	26.105	869.230	688.867
293.774	26.981	868.803	691.809
294.789	27.265	868.486	692.577
295.803	27.133	868.049	691.663
296.818	27.129	866.869	690.646
297.833	27.138	865.085	689.201
298.847	26.780	865.287	687.942
299.862	26.763	865.819	688.238
300.876	27.233	865.044	689.343
301.891	27.225	864.892	689.131
302.906	26.777	863.863	686.552
303.920	26.742	864.075	686.531
304.935	26.867	864.890	687.592
305.949	27.713	861.608	688.112
306.964	26.902	861.467	684.879
307.979	26.984	860.921	684.695
308.993	27.125	860.275	684.652
310.008	27.180	860.346	684.852
311.022	26.899	860.260	683.665
312.037	26.855	859.079	682.502
313.052	26.597	858.107	680.699
314.066	25.851	856.673	676.700
315.081	25.735	856.572	676.126
316.095	26.130	856.765	677.702
317.110	26.627	855.581	678.569
318.125	26.105	854.763	675.904
319.139	25.223	853.803	671.784
320.154	25.280	852.951	671.267
321.168	25.905	853.294	673.816
322.183	26.678	853.414	676.741
323.197	26.809	852.767	676.655
324.212	26.815	852.354	676.290
325.227	26.791	851.251	675.266
326.241	26.730	851.411	675.105
327.256	26.318	850.366	672.686
328.270	26.338	850.105	672.492
329.285	26.612	848.382	672.089
330.300	26.405	847.060	670.212
331.314	26.628	847.568	671.383
332.329	26.611	848.158	671.728
333.343	27.240	847.206	673.246
334.358	26.971	847.164	672.157
335.373	26.888	847.006	671.663
336.387	27.239	846.467	672.474
337.402	27.361	846.399	672.812
338.416	27.409	846.495	673.005
339.431	27.499	846.101	672.965
340.446	27.488	846.049	672.826
341.460	27.463	845.326	672.097
342.475	27.566	844.325	671.622
343.489	27.860	843.256	671.793
344.504	27.994	842.863	671.914
345.519	27.704	842.458	670.467
346.533	27.661	842.357	670.169
347.548	27.689	842.467	670.298
348.562	27.353	842.327	668.893
349.577	27.517	840.476	667.965
350.592	27.193	840.480	666.723
351.606	27.435	840.178	667.310
352.621	27.244	839.628	666.114
353.635	27.112	838.776	664.898
354.650	26.898	837.793	663.278
355.665	26.320	836.732	660.267
356.679	26.448	835.953	660.062
357.694	27.289	834.731	662.100
358.708	26.990	834.003	660.377
359.723	26.904	835.084	660.860
360.738	26.902	834.201	660.097
361.752	27.137	833.406	660.263
362.767	27.579	833.087	661.557
363.781	27.729	832.102	661.262
364.796	27.532	832.890	661.112
365.810	27.817	831.449	660.944
366.825	27.733	831.237	660.413
367.840	27.657	830.779	659.715
368.854	27.447	830.581	658.741
369.869	27.696	829.179	658.469
370.883	27.223	829.752	657.156
371.898	27.811	829.065	658.675
372.913	27.435	828.821	657.069
373.927	27.335	827.468	655.577
374.942	27.114	826.961	654.321
375.956	27.626	825.713	655.116
376.971	27.684	826.344	655.769
377.986	27.784	826.110	655.883
379.000	27.837	825.836	655.798
380.015	27.840	824.603	654.771
381.029	27.494	824.512	653.399
382.044	27.615	824.868	654.059
383.059	27.820	824.125	654.146
384.073	27.784	822.794	652.905
385.088	27.375	821.720	650.534
386.102	27.569	820.534	650.230
387.117	27.222	820.903	649.225
388.132	27.012	819.449	647.269
389.146	26.787	819.265	646.264
390.161	27.337	819.155	648.078
391.175	27.616	819.385	649.196
392.190	27.354	818.287	647.337
393.205	26.335	816.185	642.002
394.219	24.966	815.095	636.229
395.234	25.099	814.409	636.107
396.248	26.178	815.304	640.580
397.263	27.102	816.078	644.412
398.278	26.643	815.428	642.214
399.292	26.490	814.078	640.552
400.307	26.639	813.750	640.765
401.321	26.504	813.704	640.195
402.336	27.451	812.619	642.628
403.350	27.704	813.173	643.903
404.365	27.744	813.568	644.298
405.380	27.882	813.272	644.496
406.394	27.920	812.071	643.620
407.409	28.170	811.876	644.290
408.423	28.202	811.390	643.957
409.438	27.986	811.604	643.311
410.453	27.962	810.198	642.054
411.467	27.960	809.630	641.542
412.482	28.365	808.722	642.187
413.496	28.023	809.087	641.217
414.511	27.648	809.035	639.807
415.526	27.732	808.408	639.548
416.540	27.750	808.086	639.298
417.555	28.242	806.780	639.929
418.569	28.257	806.508	639.709
419.584	27.959	806.199	638.367
420.599	27.825	805.529	637.314
421.613	159.990	1371.344	1794.162
422.628	139.039	1453.754	1794.232
