DTS Sentinel unit serial number:	SN413079Multiplexer serial number:	ORYXHardware model number:	OX4-SRSoftware version number:	ORYX F/W v4.00 Oryx Data Collector v3.7.2.0data status	okinstallation	princeton_trtdifferential loss correction	single-endedforward channel	channel 1reverse channel	N/Adate	2019/09/15time	02:26:35forward acquisition time	60.00reverse acquisition time	0.00gamma	496.2192k internal	0.2323k external	0.2323temperature offset calibration	0.9983default loss term (dB/km)	0.3790temperature slope calibration	1.0000multiplexer offset coefficient	1.0000multiplexer slope coefficient	1.0000fibre end	0.00T internal ref (°C)	31.56T ext. ref 1 (°C)	4.55T ext. ref 2 (°C)	26.00length (m)	temperature (°C)	Stokes	anti-Stokes-747.200	-200.000	-0.000	-0.173
-746.185	-200.000	-0.009	0.230
-745.171	800.000	0.029	-0.122
-744.156	289.383	-0.119	-0.219
-743.142	-105.000	0.129	0.030
-742.127	161.340	0.207	0.292
-741.112	-75.162	-0.206	-0.074
-740.098	-200.000	-0.002	-0.066
-739.083	291.192	-0.143	0.263
-738.069	-200.000	-0.010	-0.241
-737.054	289.613	0.055	-0.101
-736.039	-200.000	-0.006	-0.122
-735.025	-153.690	0.031	-0.002
-734.010	-1.007	0.170	0.122
-732.996	800.000	-0.038	0.120
-731.981	-200.000	-0.025	-0.138
-730.966	-153.249	-0.182	0.013
-729.952	-53.917	-0.144	-0.066
-728.937	-69.735	-0.370	-0.143
-727.923	3.726	-0.056	-0.042
-726.908	-138.342	-0.438	0.049
-725.894	-193.527	0.128	0.001
-724.879	24.699	-0.034	-0.029
-723.864	706.592	0.135	-0.361
-722.850	-56.189	-0.263	-0.118
-721.835	37.197	0.070	-0.063
-720.821	-200.000	-0.013	-0.077
-719.806	-70.018	0.343	0.132
-718.791	-71.811	0.082	0.031
-717.777	-200.000	-0.005	0.231
-716.762	-200.000	-0.002	-0.102
-715.748	-116.408	-0.404	0.075
-714.733	-200.000	0.064	0.344
-713.718	-200.000	-0.019	-0.148
-712.704	751.069	0.069	-0.187
-711.689	63.737	0.233	-0.236
-710.675	-38.874	-0.164	0.087
-709.660	242.038	0.050	-0.084
-708.645	64.577	0.053	0.053
-707.631	-1.240	0.215	-0.153
-706.616	36.963	0.087	-0.077
-705.602	-102.834	-0.149	0.036
-704.587	67.009	0.124	-0.127
-703.572	-45.870	-0.366	0.182
-702.558	-73.754	-0.131	-0.048
-701.543	-81.864	0.142	0.047
-700.529	-86.707	0.130	-0.040
-699.514	458.010	-0.167	-0.375
-698.499	-45.342	0.110	-0.055
-697.485	-200.000	-0.000	-0.049
-696.470	126.167	-0.023	0.030
-695.456	-111.662	-0.042	-0.009
-694.441	225.526	0.061	0.099
-693.426	-14.625	0.124	0.080
-692.412	-200.000	0.022	0.185
-691.397	-144.174	-0.141	0.013
-690.383	-144.269	-0.407	0.038
-689.368	293.616	0.070	-0.129
-688.354	-200.000	0.015	0.169
-687.339	153.162	0.075	0.103
-686.324	-200.000	-0.053	-0.238
-685.310	-200.000	-0.047	-0.285
-684.295	144.416	-0.136	-0.183
-683.281	800.000	0.062	0.229
-682.266	800.000	0.095	-0.402
-681.251	98.839	0.087	0.102
-680.237	-110.927	-0.049	-0.010
-679.222	228.616	-0.027	0.044
-678.208	441.247	0.085	-0.188
-677.193	184.557	0.103	-0.154
-676.178	38.549	-0.170	-0.152
-675.164	-200.000	-0.010	-0.050
-674.149	-94.260	0.174	-0.048
-673.135	365.799	0.011	0.022
-672.120	115.379	-0.211	-0.260
-671.105	800.000	-0.054	-0.157
-670.091	-200.000	-0.003	0.120
-669.076	800.000	0.022	0.073
-668.062	-107.816	0.168	-0.037
-667.047	-124.909	-0.252	0.039
-666.032	26.350	-0.261	-0.219
-665.018	-200.000	-0.002	-0.257
-664.003	-64.072	-0.206	0.085
-662.989	800.000	0.062	-0.178
-661.974	-87.275	0.315	-0.096
-660.959	-200.000	-0.024	-0.157
-659.945	148.458	-0.135	-0.183
-658.930	-200.000	0.011	0.226
-657.916	-8.008	0.185	0.126
-656.901	307.745	-0.112	-0.209
-655.886	-200.000	0.009	-0.052
-654.872	-110.561	0.316	-0.066
-653.857	360.599	0.108	-0.218
-652.843	-200.000	0.030	-0.324
-651.828	-153.816	-0.264	-0.018
-650.814	27.950	-0.170	-0.144
-649.799	40.642	0.150	-0.136
-648.784	-0.973	-0.041	-0.029
-647.770	647.667	-0.041	-0.104
-646.755	-165.167	-0.099	-0.004
-645.741	22.771	-0.080	0.066
-644.726	-81.878	-0.111	0.036
-643.711	-18.269	-0.215	-0.135
-642.697	64.920	0.120	0.122
-641.682	254.820	-0.136	-0.233
-640.668	800.000	-0.061	0.224
-639.653	70.517	0.129	0.134
-638.638	182.419	-0.141	-0.208
-637.624	-19.860	-0.219	-0.136
-636.609	-59.687	-0.391	0.168
-635.595	81.162	-0.191	0.208
-634.580	104.193	-0.179	0.212
-633.565	-171.565	-0.296	-0.010
-632.551	59.964	0.164	0.163
-631.536	-73.696	-0.178	0.065
-630.522	-200.000	0.001	-0.121
-629.507	85.676	0.124	-0.137
-628.492	800.000	-0.027	0.110
-627.478	261.570	-0.074	0.129
-626.463	96.830	-0.017	0.019
-625.449	-182.772	-0.143	0.003
-624.434	-200.000	-0.024	0.268
-623.419	164.213	0.052	0.074
-622.405	-39.151	0.171	-0.090
-621.390	-111.075	-0.361	0.074
-620.376	-200.000	-0.032	-0.333
-619.361	227.049	-0.194	0.316
-618.346	200.971	-0.093	-0.143
-617.332	-126.981	-0.109	0.016
-616.317	-33.713	0.137	0.076
-615.303	8.344	0.199	0.150
-614.288	98.945	0.091	0.105
-613.273	-200.000	0.018	0.145
-612.259	800.000	0.085	0.244
-611.244	-114.346	0.343	-0.066
-610.230	86.644	-0.070	-0.078
-609.215	800.000	0.050	0.159
-608.201	69.272	-0.266	0.275
-607.186	114.848	0.105	-0.128
-606.171	270.159	-0.117	-0.207
-605.157	-200.000	-0.014	0.228
-604.142	-68.284	0.222	-0.087
-603.128	255.152	-0.136	-0.234
-602.113	-120.994	-0.124	0.021
-601.098	-200.000	-0.075	-0.333
-600.084	41.820	-0.359	-0.327
-599.069	275.223	-0.076	-0.136
-598.055	16.181	0.139	-0.110
-597.040	33.572	-0.218	0.190
-596.025	-37.976	0.061	-0.032
-595.011	131.921	0.049	0.064
-593.996	-129.035	0.290	0.041
-592.982	-24.835	-0.125	-0.075
-591.967	10.319	-0.383	-0.293
-590.952	648.822	0.082	0.210
-589.938	53.888	-0.079	-0.077
-588.923	800.000	0.079	0.301
-587.909	-200.000	0.003	-0.400
-586.894	305.793	0.147	-0.274
-585.879	-73.262	-0.218	-0.080
-584.865	-10.849	0.139	0.092
-583.850	672.501	0.052	-0.136
-582.836	-200.000	0.011	0.185
-581.821	472.998	-0.105	-0.237
-580.806	-200.000	0.054	0.489
-579.792	469.753	-0.133	0.301
-578.777	744.630	-0.083	0.224
-577.763	-113.449	-0.506	-0.100
-576.748	158.252	-0.099	0.137
-575.733	384.663	0.073	-0.150
-574.719	192.217	-0.090	-0.136
-573.704	-200.000	-0.204	-0.001
-572.690	-131.333	0.366	0.049
-571.675	-200.000	0.025	-0.132
-570.661	464.980	0.084	-0.189
-569.646	-200.000	-0.001	0.165
-568.631	-165.157	-0.182	0.008
-567.617	279.232	0.060	-0.107
-566.602	-136.968	-0.141	-0.016
-565.588	-49.107	-0.266	-0.128
-564.573	656.182	0.086	0.221
-563.558	90.539	0.187	0.210
-562.544	800.000	0.046	0.144
-561.529	170.943	0.087	0.125
-560.515	-200.000	0.045	-0.235
-559.500	800.000	0.050	0.158
-558.485	-183.304	0.156	-0.003
-557.471	-127.919	0.113	-0.016
-556.456	-89.390	-0.287	0.085
-555.442	73.532	0.169	-0.178
-554.427	249.756	0.094	-0.160
-553.412	-129.560	-0.177	0.025
-552.398	158.929	0.328	-0.457
-551.383	105.385	0.141	-0.167
-550.369	116.794	0.166	-0.205
-549.354	-90.732	0.289	-0.084
-548.339	312.512	-0.085	0.160
-547.325	-70.832	0.083	-0.031
-546.310	-200.000	0.040	-0.230
-545.296	23.023	-0.236	0.194
-544.281	201.919	0.060	0.093
-543.266	-132.539	-0.284	0.037
-542.252	800.000	0.098	-0.307
-541.237	21.241	-0.383	0.311
-540.223	-68.958	0.072	-0.028
-539.208	-112.908	-0.051	-0.010
-538.193	-74.330	0.135	0.049
-537.179	302.671	-0.137	-0.254
-536.164	-119.051	-0.311	0.055
-535.150	100.833	0.196	0.229
-534.135	-140.492	0.259	-0.027
-533.121	-6.321	0.189	-0.129
-532.106	-123.948	0.141	-0.022
-531.091	117.316	-0.280	-0.344
-530.077	800.000	-0.081	-0.314
-529.062	94.653	-0.099	-0.112
-528.048	-200.000	-0.036	-0.282
-527.033	-122.353	-0.125	0.020
-526.018	-3.038	-0.047	0.033
-525.004	10.543	0.082	-0.063
-523.989	-200.000	-0.003	-0.247
-522.975	-200.000	0.009	0.227
-521.960	-89.637	-0.044	-0.013
-520.945	20.940	-0.076	-0.062
-519.931	800.000	0.047	-0.133
-518.916	47.108	0.209	-0.195
-517.902	13.610	-0.075	0.059
-516.887	78.420	0.297	0.317
-515.872	-200.000	0.026	-0.157
-514.858	-200.000	0.002	0.079
-513.843	-31.195	-0.197	-0.111
-512.829	-157.131	-0.282	-0.017
-511.814	-75.939	0.078	0.028
-510.799	-200.000	-0.011	0.226
-509.785	514.248	0.076	0.176
-508.770	-50.532	-0.110	0.052
-507.756	-165.055	0.065	0.003
-506.741	353.773	0.101	-0.200
-505.726	-169.454	-0.241	-0.009
-504.712	800.000	0.067	-0.269
-503.697	-136.084	-0.284	0.033
-502.683	150.889	-0.201	-0.274
-501.668	523.240	0.133	0.313
-500.653	754.615	-0.099	0.266
-499.639	-87.310	-0.194	-0.059
-498.624	-77.732	0.273	0.095
-497.610	256.375	-0.012	-0.020
-496.595	6.763	0.353	-0.263
-495.581	-83.796	0.241	-0.077
-494.566	800.000	0.044	0.130
-493.551	15.659	0.081	-0.064
-492.537	133.423	-0.196	-0.254
-491.522	184.945	0.070	0.103
-490.508	-85.245	0.245	0.077
-489.493	-166.677	0.356	-0.015
-488.478	-116.982	-0.427	0.078
-487.464	-200.000	-0.012	0.394
-486.449	-189.845	0.112	-0.001
-485.435	760.039	0.024	-0.065
-484.420	437.345	-0.113	-0.245
-483.405	-55.425	-0.311	-0.139
-482.391	-200.000	-0.041	0.253
-481.376	800.000	-0.127	0.551
-480.362	763.726	-0.178	0.482
-479.347	-64.532	0.271	0.110
-478.332	-97.134	0.178	0.047
-477.318	-200.000	0.007	0.286
-476.303	-5.861	-0.233	0.160
-475.289	-200.000	0.023	-0.109
-474.274	-200.000	0.023	0.239
-473.259	800.000	0.060	-0.193
-472.245	-116.261	-0.214	0.040
-471.230	-93.747	-0.288	0.079
-470.216	-200.000	-0.028	-0.176
-469.201	-63.471	-0.306	0.126
-468.186	797.938	-0.129	-0.355
-467.172	800.000	-0.102	0.312
-466.157	-136.312	-0.352	-0.041
-465.143	-40.068	0.266	0.138
-464.128	-47.273	0.259	0.126
-463.113	800.000	0.102	-0.339
-462.099	279.236	-0.135	0.242
-461.084	800.000	-0.025	-0.097
-460.070	800.000	0.078	0.299
-459.055	157.378	-0.010	0.013
-458.040	-103.725	0.143	0.033
-457.026	-200.000	0.027	-0.121
-456.011	69.695	0.202	0.208
-454.997	283.212	-0.187	0.335
-453.982	-200.000	0.023	-0.160
-452.968	67.692	-0.255	0.260
-451.953	467.111	0.025	0.056
-450.938	-200.000	0.012	0.237
-449.924	-30.660	-0.205	0.116
-448.909	534.512	-0.048	0.113
-447.895	800.000	0.088	0.326
-446.880	332.355	0.065	-0.125
-445.865	800.000	0.125	-0.528
-444.851	-200.000	0.030	-0.170
-443.836	-200.000	0.043	0.394
-442.822	-156.960	0.232	-0.014
-441.807	121.089	-0.352	0.438
-440.792	800.000	-0.019	0.068
-439.778	-91.588	0.545	-0.155
-438.763	-200.000	0.034	-0.355
-437.749	3.046	0.245	-0.178
-436.734	-42.846	0.364	0.185
-435.719	-109.151	0.178	-0.038
-434.705	-145.415	-0.145	-0.013
-433.690	92.669	-0.031	-0.035
-432.676	-200.000	-0.013	-0.302
-431.661	-44.535	0.039	-0.020
-430.646	-180.878	-0.438	-0.009
-429.632	-200.000	0.043	0.190
-428.617	306.341	-0.156	-0.290
-427.603	-5.275	0.167	0.114
-426.588	28.501	0.244	-0.206
-425.573	-122.801	-0.413	-0.067
-424.559	-200.000	0.035	-0.166
-423.544	252.670	0.098	0.167
-422.530	-160.838	-0.238	-0.013
-421.515	-200.000	0.002	-0.110
-420.500	-120.331	0.412	0.070
-419.486	56.533	0.219	-0.212
-418.471	37.509	0.151	-0.133
-417.457	800.000	0.106	-0.366
-416.442	-100.660	0.193	0.048
-415.428	-135.768	-0.446	-0.053
-414.413	-1.014	0.104	0.073
-413.398	-200.000	-0.004	-0.047
-412.384	-200.000	-0.035	0.205
-411.369	179.493	0.254	-0.370
-410.355	-200.000	-0.074	0.353
-409.340	26.698	0.175	0.146
-408.325	212.567	0.086	-0.136
-407.311	-200.000	0.043	0.224
-406.296	467.170	-0.120	-0.268
-405.282	-13.950	0.180	-0.116
-404.267	800.000	-0.029	-0.082
-403.252	188.700	0.172	-0.256
-402.238	-120.169	0.275	0.047
-401.223	-69.657	0.268	-0.102
-400.209	-163.327	0.195	0.009
-399.194	424.855	0.134	0.288
-398.179	-118.658	0.136	-0.024
-397.165	-200.000	-0.008	-0.199
-396.150	13.536	0.117	-0.090
-395.136	138.312	-0.125	0.163
-394.121	-65.442	-0.113	0.045
-393.106	800.000	-0.031	0.116
-392.092	800.000	0.025	0.093
-391.077	800.000	-0.086	0.340
-390.063	-59.424	-0.111	0.048
-389.048	131.030	-0.090	-0.115
-388.033	354.759	-0.094	0.186
-387.019	800.000	0.110	0.318
-386.004	113.207	-0.024	0.029
-384.990	307.407	0.051	-0.096
-383.975	116.452	-0.153	0.187
-382.960	-200.000	-0.026	0.195
-381.946	67.859	0.032	-0.033
-380.931	114.403	0.160	0.194
-379.917	-200.000	0.051	0.261
-378.902	93.675	-0.167	-0.189
-377.888	-200.000	0.014	-0.075
-376.873	-127.625	0.309	-0.044
-375.858	-200.000	-0.049	-0.293
-374.844	-97.687	-0.058	0.015
-373.829	56.482	-0.177	0.171
-372.815	-200.000	0.010	-0.476
-371.800	-16.506	0.077	0.048
-370.785	-27.372	0.159	-0.092
-369.771	-200.000	0.011	-0.122
-368.756	800.000	0.027	0.096
-367.742	443.268	-0.154	-0.336
-366.727	-39.710	-0.187	-0.098
-365.712	-48.697	-0.258	-0.123
-364.698	20.386	-0.177	-0.142
-363.683	-46.739	-0.165	-0.081
-362.669	-81.494	0.226	-0.074
-361.654	419.071	0.102	-0.217
-360.639	407.378	-0.041	0.087
-359.625	342.040	-0.125	-0.244
-358.610	10.845	-0.146	-0.111
-357.596	-200.000	0.030	-0.192
-356.581	-19.326	0.253	-0.156
-355.566	800.000	0.066	0.267
-354.552	735.187	0.065	-0.174
-353.537	-43.336	0.180	-0.091
-352.523	-134.871	-0.019	0.002
-351.508	-116.519	0.274	0.050
-350.493	-107.725	-0.139	0.030
-349.479	190.370	0.094	0.141
-348.464	-55.480	-0.221	-0.099
-347.450	800.000	-0.048	0.155
-346.435	800.000	0.075	0.263
-345.420	78.964	0.299	0.318
-344.406	-60.322	-0.250	-0.106
-343.391	-124.713	-0.540	0.083
-342.377	-200.000	-0.048	-0.558
-341.362	89.543	0.181	-0.201
-340.348	34.607	0.112	0.097
-339.333	-132.106	-0.194	0.025
-338.318	800.000	-0.079	0.284
-337.304	-200.000	0.048	0.235
-336.289	-200.000	0.046	-0.378
-335.275	-55.834	-0.238	0.106
-334.260	-200.000	0.026	-0.239
-333.245	85.604	0.085	0.093
-332.231	-28.148	-0.154	-0.088
-331.216	-200.000	-0.004	0.076
-330.202	-31.697	0.133	-0.074
-329.187	-16.664	0.146	-0.092
-328.172	800.000	0.092	-0.347
-327.158	66.704	-0.121	0.122
-326.143	800.000	0.111	0.307
-325.129	73.460	0.066	-0.069
-324.114	800.000	-0.097	0.274
-323.099	-135.184	-0.314	-0.037
-322.085	437.632	-0.094	0.203
-321.070	800.000	0.032	0.115
-320.056	378.241	0.080	-0.162
-319.041	103.549	-0.088	-0.102
-318.026	-45.554	-0.298	0.147
-317.012	800.000	0.080	-0.226
-315.997	800.000	0.035	-0.105
-314.983	800.000	-0.067	-0.193
-313.968	-94.023	0.179	-0.049
-312.953	-94.751	-0.236	-0.064
-311.939	43.961	-0.018	-0.016
-310.924	-89.862	-0.270	0.078
-309.910	-159.726	0.213	-0.012
-308.895	1.108	-0.258	0.184
-307.880	-99.816	-0.159	0.040
-306.866	25.073	0.060	0.049
-305.851	121.262	-0.065	0.081
-304.837	78.055	0.231	0.245
-303.822	560.471	0.087	0.208
-302.807	-129.824	-0.085	0.012
-301.793	57.779	-0.117	-0.114
-300.778	42.060	0.215	-0.194
-299.764	-142.642	0.235	0.023
-298.749	284.259	-0.120	0.215
-297.735	-49.506	-0.127	-0.060
-296.720	800.000	0.136	-0.446
-295.705	150.116	-0.240	-0.323
-294.691	-155.682	0.358	-0.023
-293.676	652.038	-0.106	0.270
-292.662	-200.000	0.050	-0.237
-291.647	142.999	-0.091	0.120
-290.632	85.103	-0.271	0.295
-289.618	-200.000	-0.031	0.229
-288.603	-87.898	0.094	0.028
-287.589	-142.098	0.200	0.020
-286.574	-143.479	0.357	-0.034
-285.559	-28.235	-0.161	-0.092
-284.545	123.137	-0.073	0.091
-283.530	229.258	0.134	0.216
-282.516	-200.000	0.015	-0.179
-281.501	311.732	0.080	-0.148
-280.486	628.804	0.035	-0.087
-279.472	-100.168	0.273	0.067
-278.457	-97.429	-0.127	-0.033
-277.443	0.354	-0.118	-0.084
-276.428	-104.659	-0.119	0.027
-275.413	62.926	0.186	0.184
-274.399	-151.162	0.125	0.009
-273.384	93.057	-0.108	0.121
-272.370	13.758	-0.256	0.198
-271.355	800.000	-0.090	-0.337
-270.340	197.082	0.123	-0.185
-269.326	-51.691	0.249	-0.115
-268.311	638.594	-0.038	0.095
-267.297	106.997	0.078	0.091
-266.282	-200.000	-0.018	0.094
-265.267	337.692	-0.060	0.116
-264.253	-192.592	-0.170	0.002
-263.238	31.447	0.279	0.237
-262.224	-58.230	0.349	0.151
-261.209	-194.427	-0.122	-0.001
-260.195	-32.856	-0.198	-0.109
-259.180	599.855	0.091	-0.223
-258.165	-60.442	-0.341	0.144
-257.151	-156.569	0.283	0.017
-256.136	-200.000	-0.057	0.386
-255.122	800.000	-0.119	0.325
-254.107	80.712	-0.189	0.202
-253.092	181.178	0.149	0.216
-252.078	-94.360	0.208	-0.056
-251.063	-200.000	-0.003	-0.344
-250.049	-47.874	-0.305	0.147
-249.034	-55.875	-0.145	-0.064
-248.019	800.000	-0.029	0.091
-247.005	298.173	0.096	0.175
-245.990	154.502	0.117	-0.159
-244.976	-40.936	0.045	-0.023
-243.961	-60.335	0.239	0.101
-242.946	-61.443	0.355	-0.148
-241.932	-134.059	-0.254	0.031
-240.917	35.422	0.344	0.299
-239.903	-46.039	-0.272	0.133
-238.888	108.615	-0.124	-0.146
-237.873	-175.982	0.381	-0.010
-236.859	-118.681	0.127	0.022
-235.844	-34.556	0.191	0.104
-234.830	38.795	0.132	-0.117
-233.815	-62.371	0.271	-0.111
-232.800	-148.422	-0.253	0.021
-231.786	90.110	-0.081	-0.089
-230.771	800.000	-0.013	-0.050
-229.757	-11.725	-0.052	0.034
-228.742	-120.214	0.200	-0.034
-227.727	16.043	0.076	-0.059
-226.713	-42.060	-0.200	-0.101
-225.698	-168.199	0.467	-0.018
-224.684	64.102	0.254	0.253
-223.669	-11.580	-0.112	0.073
-222.655	150.550	-0.116	0.157
-221.640	-112.154	0.389	0.077
-220.625	97.040	0.240	0.272
-219.611	-38.616	0.139	-0.073
-218.596	-165.158	0.253	-0.011
-217.582	336.281	0.057	0.110
-216.567	-11.711	-0.179	0.117
-215.552	-200.000	0.003	-0.242
-214.538	800.000	-0.043	0.185
-213.523	192.507	0.097	-0.145
-212.509	-100.330	-0.257	0.063
-211.494	-200.000	-0.015	-0.264
-210.479	-75.948	0.331	0.116
-209.465	178.799	0.128	0.185
-208.450	-145.506	0.252	-0.022
-207.436	-83.448	-0.252	-0.080
-206.421	231.420	-0.152	-0.246
-205.406	-200.000	0.007	0.086
-204.392	-100.665	0.115	-0.028
-203.377	286.255	-0.078	-0.138
-202.363	-147.162	-0.177	-0.015
-201.348	21.723	0.177	-0.142
-200.333	800.000	0.078	-0.329
-199.319	-49.901	0.200	-0.094
-198.304	670.072	-0.126	-0.324
-197.290	-90.652	0.237	-0.068
-196.275	800.000	0.025	0.071
-195.260	13.174	-0.324	-0.248
-194.246	-40.471	-0.159	-0.082
-193.231	319.373	-0.209	-0.392
-192.217	466.276	0.081	0.180
-191.202	-79.976	-0.414	-0.137
-190.187	96.088	-0.188	-0.212
-189.173	-3.759	0.249	0.171
-188.158	-200.000	-0.011	-0.207
-187.144	-200.000	-0.067	-0.620
-186.129	-133.561	-0.239	0.030
-185.114	95.746	-0.140	0.158
-184.100	-138.997	-0.181	0.019
-183.085	800.000	0.097	-0.314
-182.071	25.103	-0.238	-0.195
-181.056	145.691	0.142	-0.188
-180.042	103.425	-0.064	-0.074
-179.027	119.783	0.181	-0.222
-178.012	246.547	0.073	0.122
-176.998	-200.000	0.012	0.119
-175.983	215.966	0.212	0.332
-174.969	-200.000	-0.006	0.325
-173.954	-200.000	-0.002	0.335
-172.939	294.974	0.121	-0.219
-171.925	137.986	-0.047	-0.061
-170.910	800.000	-0.060	0.217
-169.896	-200.000	-0.037	0.187
-168.881	-106.428	0.097	0.021
-167.866	114.909	0.041	0.050
-166.852	135.374	0.092	0.119
-165.837	800.000	0.109	-0.334
-164.823	-200.000	0.047	0.546
-163.808	800.000	0.052	0.172
-162.793	68.147	-0.301	0.304
-161.779	23.462	0.198	0.160
-160.764	-131.983	0.174	-0.022
-159.750	-200.000	-0.016	0.199
-158.735	-200.000	-0.014	-0.137
-157.720	800.000	-0.018	-0.058
-156.706	441.359	0.085	0.184
-155.691	222.935	-0.029	-0.047
-154.677	145.926	-0.104	-0.137
-153.662	392.408	0.032	-0.066
-152.647	-200.000	-0.003	-0.162
-151.633	-34.100	-0.094	-0.051
-150.618	288.259	0.152	0.272
-149.604	193.616	0.068	0.102
-148.589	-200.000	0.051	0.227
-147.574	334.514	-0.034	-0.064
-146.560	-26.190	0.259	-0.150
-145.545	-200.000	0.010	-0.129
-144.531	-16.832	0.316	0.197
-143.516	-101.055	0.336	0.081
-142.502	-119.732	0.148	-0.025
-141.487	-16.653	0.274	0.171
-140.472	800.000	-0.022	0.064
-139.458	-2.315	0.328	0.227
-138.443	-35.556	0.087	-0.047
-137.429	-84.398	0.270	0.084
-136.414	186.343	-0.149	0.218
-135.399	800.000	-0.031	-0.099
-134.385	-51.508	-0.031	-0.014
-133.370	-126.189	0.404	-0.060
-132.356	-15.852	0.151	-0.095
-131.341	800.000	-0.037	0.121
-130.326	172.218	0.117	-0.165
-129.312	4.332	-0.290	-0.210
-128.297	104.672	0.055	-0.064
-127.283	276.927	0.122	0.214
-126.268	-82.660	0.187	0.060
-125.253	800.000	-0.058	0.225
-124.239	-200.000	0.037	-0.339
-123.224	-105.550	0.267	-0.060
-122.210	503.262	-0.077	0.176
-121.195	-200.000	0.024	0.111
-120.180	698.182	0.029	-0.074
-119.166	-79.005	-0.188	-0.063
-118.151	-200.000	0.047	-0.306
-117.137	-116.288	-0.041	0.007
-116.122	800.000	0.080	0.224
-115.107	-200.000	-0.029	0.206
-114.093	-37.227	-0.092	-0.048
-113.078	-155.226	0.491	-0.032
-112.064	30.316	-0.103	-0.087
-111.049	25.064	0.211	0.173
-110.034	-50.399	0.125	0.058
-109.020	-127.173	0.146	-0.021
-108.005	-62.611	-0.185	-0.076
-106.991	169.771	0.239	0.337
-105.976	-42.123	-0.220	0.111
-104.962	22.373	0.175	0.141
-103.947	-27.615	0.081	-0.046
-102.932	800.000	0.068	0.292
-101.918	193.100	0.178	0.265
-100.903	-106.781	0.152	0.033
-99.889	-150.600	0.143	0.011
-98.874	-200.000	0.078	0.430
-97.859	169.515	0.129	0.182
-96.845	174.819	-0.105	-0.150
-95.830	23.970	-0.230	0.187
-94.816	63.808	0.270	-0.267
-93.801	377.838	0.061	0.123
-92.786	76.889	0.042	0.044
-91.772	28.096	0.098	-0.081
-90.757	176.403	-0.110	0.158
-89.743	114.400	-0.158	-0.190
-88.728	104.377	0.115	-0.133
-87.713	-125.785	-0.501	0.074
-86.699	470.629	0.032	-0.071
-85.684	79.314	0.244	0.258
-84.670	391.084	-0.143	-0.292
-83.655	39.740	0.074	-0.065
-82.640	-143.320	-0.139	0.013
-81.626	83.853	-0.148	0.159
-80.611	-177.321	0.272	0.007
-79.597	-150.713	0.136	0.010
-78.582	-120.387	0.276	0.046
-77.567	-200.000	-0.006	0.202
-76.553	-83.962	-0.143	-0.045
-75.538	-195.111	-0.248	-0.002
-74.524	-99.288	-0.126	0.031
-73.509	512.728	0.121	-0.278
-72.494	202.197	0.175	0.265
-71.480	-200.000	0.022	0.194
-70.465	188.643	0.034	-0.050
-69.451	23.449	0.137	0.111
-68.436	-127.778	0.410	-0.058
-67.422	36.054	-0.030	-0.026
-66.407	800.000	0.076	-0.246
-65.392	-110.981	-0.225	-0.046
-64.378	-166.006	0.395	-0.017
-63.363	-200.000	-0.008	0.178
-62.349	-71.465	0.339	0.125
-61.334	16.665	-0.892	-0.694
-60.319	54.893	0.405	0.385
-59.305	689.729	-0.255	-0.655
-58.290	288.462	0.487	0.867
-57.276	166.778	0.817	1.139
-56.261	-200.000	98.102	605.314
-55.246	624.439	1387.102	3438.038
-54.232	196.381	2566.077	3842.099
-53.217	119.951	2138.220	2606.726
-52.203	43.721	1597.274	1437.205
-51.188	35.199	1333.501	1149.001
-50.173	31.963	1291.946	1094.312
-49.159	55.029	1340.609	1272.990
-48.144	56.924	1357.154	1299.882
-47.130	35.289	1315.261	1133.634
-46.115	31.775	1297.582	1097.806
-45.100	31.574	1292.456	1092.254
-44.086	31.475	1290.266	1089.788
-43.071	31.439	1287.953	1087.581
-42.057	31.533	1285.412	1085.933
-41.042	31.569	1283.806	1084.744
-40.027	31.446	1283.126	1083.413
-39.013	31.417	1281.437	1081.778
-37.998	31.494	1279.197	1080.287
-36.984	31.515	1277.675	1079.083
-35.969	31.523	1275.929	1077.612
-34.954	31.444	1274.492	1075.897
-33.940	31.625	1272.539	1075.249
-32.925	31.736	1271.178	1074.689
-31.911	31.651	1269.869	1073.056
-30.896	31.628	1268.512	1071.735
-29.881	31.734	1267.248	1071.230
-28.867	31.704	1265.646	1069.663
-27.852	31.734	1264.549	1068.861
-26.838	31.742	1262.723	1067.322
-25.823	31.641	1261.688	1065.830
-24.809	31.677	1260.165	1064.707
-23.794	31.665	1258.839	1063.474
-22.779	31.607	1258.120	1062.499
-21.765	31.685	1256.416	1061.456
-20.750	31.600	1255.169	1059.879
-19.736	31.712	1253.301	1058.894
-18.721	31.606	1252.177	1057.304
-17.706	31.507	1251.586	1056.202
-16.692	31.420	1250.661	1054.893
-15.677	31.396	1249.381	1053.634
-14.663	31.525	1248.111	1053.250
-13.648	31.531	1246.693	1052.041
-12.633	31.475	1246.051	1051.147
-11.619	31.500	1245.275	1050.591
-10.604	31.503	1244.046	1049.530
-9.590	31.428	1243.627	1048.712
-8.575	31.458	1242.523	1047.907
-7.560	31.467	1241.410	1046.978
-6.546	31.498	1241.044	1046.803
-5.531	31.498	1240.021	1045.896
-4.517	31.516	1238.893	1045.004
-3.502	31.531	1238.446	1044.668
-2.487	31.492	1237.230	1043.385
-1.473	31.420	1232.995	1039.372
-0.458	30.119	1217.463	1019.088
0.556	25.119	1199.959	980.385
1.571	21.373	1204.858	963.692
2.586	20.285	1219.499	969.247
3.600	19.868	1208.087	957.780
4.615	15.141	1138.063	877.480
5.629	7.797	1066.297	785.902
6.644	4.697	1047.627	757.010
7.659	4.469	1045.226	754.102
8.673	4.432	1044.184	753.105
9.688	4.592	1042.140	752.335
10.702	4.508	1040.930	750.992
11.717	8.695	1045.746	774.697
12.731	15.537	1055.623	815.263
13.746	18.504	1058.458	831.797
14.761	17.775	1057.653	827.557
15.775	17.025	1055.075	821.834
16.790	15.776	1053.628	814.591
17.804	15.046	1051.823	809.591
18.819	14.697	1050.851	807.085
19.834	14.380	1050.246	805.019
20.848	14.340	1048.947	803.759
21.863	14.146	1048.192	802.174
22.877	13.904	1047.480	800.394
23.892	13.863	1046.740	799.557
24.907	13.973	1045.969	799.430
25.921	14.033	1044.980	798.891
26.936	14.036	1043.145	797.429
27.950	14.068	1042.781	797.234
28.965	14.089	1040.864	795.802
29.980	14.323	1039.232	795.602
30.994	14.264	1038.331	794.558
32.009	14.173	1037.413	793.352
33.023	14.170	1036.458	792.537
34.038	14.224	1034.829	791.478
35.053	14.094	1034.239	790.338
36.067	14.052	1033.164	789.247
37.082	14.109	1032.816	789.184
38.096	14.172	1031.974	788.770
39.111	14.225	1031.125	788.301
40.126	14.026	1030.016	786.441
41.140	13.865	1028.703	784.609
42.155	13.875	1027.668	783.795
43.169	13.703	1026.759	782.222
44.184	13.960	1025.236	782.203
45.199	13.794	1024.296	780.638
46.213	14.070	1022.876	780.783
47.228	14.083	1022.143	780.212
48.242	14.110	1021.440	779.733
49.257	14.005	1020.347	778.340
50.271	14.083	1019.765	778.191
51.286	14.149	1018.779	777.677
52.301	14.065	1018.049	776.660
53.315	14.023	1016.837	775.473
54.330	13.976	1015.543	774.199
55.344	14.016	1014.832	773.772
56.359	14.016	1014.002	773.070
57.374	13.865	1013.406	771.845
58.388	13.884	1012.119	770.884
59.403	13.925	1011.140	770.261
60.417	13.871	1010.680	769.593
61.432	13.928	1009.664	769.018
62.447	13.820	1009.128	768.040
63.461	13.669	1008.588	766.863
64.476	13.714	1006.980	765.781
65.490	13.724	1006.563	765.442
66.505	13.800	1005.824	765.161
67.520	13.876	1005.287	765.037
68.534	13.832	1004.719	764.332
69.549	13.838	1003.624	763.460
70.563	13.658	1003.252	762.281
71.578	13.725	1002.226	761.743
72.593	13.642	1000.903	760.288
73.607	13.627	1000.526	759.866
74.622	13.613	1000.004	759.340
75.636	13.636	999.801	759.223
76.651	13.588	998.562	757.998
77.666	13.658	997.866	757.720
78.680	13.760	997.330	757.712
79.695	13.828	996.787	757.542
80.709	13.765	996.552	757.009
81.724	13.893	995.532	756.750
82.739	14.015	994.720	756.623
83.753	14.119	994.052	756.520
84.768	14.138	993.538	756.151
85.782	14.277	992.539	755.953
86.797	14.236	991.367	754.806
87.812	14.007	990.604	753.122
88.826	14.077	989.331	752.406
89.841	14.063	989.038	752.052
90.855	14.172	987.784	751.524
91.870	14.245	987.070	751.244
92.884	14.228	985.941	750.242
93.899	14.195	985.511	749.699
94.914	14.278	984.636	749.340
95.928	14.347	983.568	748.770
96.943	14.150	982.937	747.340
97.957	14.107	981.946	746.330
98.972	14.187	981.493	746.277
99.987	14.160	980.265	745.157
101.001	14.265	979.278	744.807
102.016	14.145	978.648	743.726
103.030	14.326	977.684	743.737
104.045	14.053	977.273	742.143
105.060	14.137	976.240	741.664
106.074	14.004	975.387	740.359
107.089	13.840	973.994	738.505
108.103	13.976	973.154	738.407
109.118	13.807	972.244	736.903
110.133	13.878	971.130	736.309
111.147	13.964	970.363	736.040
112.162	13.830	970.363	735.381
113.176	14.143	968.732	735.468
114.191	13.961	968.570	734.474
115.206	14.100	967.181	733.971
116.220	13.860	966.905	732.636
117.235	13.957	965.508	731.938
118.249	13.952	965.153	731.585
119.264	13.978	964.294	730.982
120.279	13.884	963.805	730.134
121.293	13.765	962.994	728.930
122.308	13.795	962.092	728.315
123.322	13.855	960.782	727.523
124.337	13.807	959.797	726.503
125.352	13.912	958.714	726.080
126.366	13.732	958.043	724.719
127.381	13.753	956.844	723.841
128.395	13.862	956.134	723.712
129.410	13.886	955.037	722.922
130.424	14.105	953.660	722.769
131.439	14.083	953.330	722.360
132.454	14.008	952.795	721.567
133.468	14.132	951.786	721.276
134.483	14.054	951.010	720.285
135.497	13.964	950.497	719.442
136.512	14.026	949.649	719.007
137.527	13.952	949.165	718.257
138.541	14.076	947.950	717.809
139.556	14.127	947.483	717.611
140.570	14.253	946.678	717.482
141.585	14.304	946.214	717.285
142.600	14.224	945.308	716.191
143.614	14.279	944.520	715.765
144.629	14.170	943.640	714.567
145.643	14.287	942.430	714.090
146.658	14.142	941.781	712.913
147.673	14.089	940.916	711.972
148.687	14.094	939.602	710.936
149.702	14.051	939.471	710.589
150.716	14.007	938.352	709.490
151.731	14.141	937.807	709.588
152.746	14.144	936.750	708.740
153.760	14.313	936.201	708.978
154.775	14.208	936.004	708.322
155.789	14.271	935.174	707.897
156.804	14.300	934.818	707.688
157.819	14.296	933.818	706.852
158.833	14.384	933.219	706.708
159.848	14.439	932.213	706.119
160.862	14.369	931.300	705.067
161.877	14.306	930.643	704.241
162.892	14.055	929.644	702.362
163.906	14.203	928.558	702.104
164.921	14.109	927.749	701.035
165.935	14.256	927.084	701.089
166.950	14.317	925.932	700.412
167.964	14.287	924.959	699.491
168.979	14.172	924.412	698.529
169.994	14.279	923.154	697.965
171.008	14.269	922.786	697.584
172.023	14.489	922.248	698.037
173.037	14.536	921.737	697.786
174.052	14.339	920.853	696.231
175.067	14.270	920.201	695.391
176.081	14.261	919.793	694.982
177.096	14.316	918.950	694.511
178.110	14.328	918.339	694.038
179.125	14.331	917.942	693.689
180.140	14.224	917.692	692.995
181.154	14.367	917.082	693.068
182.169	14.540	916.231	693.084
183.183	14.439	915.854	692.316
184.198	14.685	914.787	692.468
185.213	14.693	914.512	692.233
186.227	14.610	913.998	691.437
187.242	14.642	913.153	690.868
188.256	14.679	912.933	690.797
189.271	14.712	911.769	689.989
190.286	14.533	910.526	688.251
191.300	14.354	910.281	687.264
192.315	14.229	909.463	686.073
193.329	14.240	909.243	685.889
194.344	14.249	908.703	685.457
195.359	14.404	908.139	685.612
196.373	14.554	907.175	685.440
197.388	14.537	907.092	685.246
198.402	14.775	906.231	685.512
199.417	14.806	906.217	685.567
200.432	14.913	905.511	685.411
201.446	14.881	905.234	685.011
202.461	14.973	904.486	684.758
203.475	14.930	903.911	684.088
204.490	14.818	902.772	682.707
205.504	14.762	901.832	681.707
206.519	14.704	901.302	681.009
207.534	14.836	900.480	680.866
208.548	14.806	900.181	680.458
209.563	14.805	899.082	679.565
210.577	14.690	898.555	678.636
211.592	14.875	897.912	678.844
212.607	14.936	897.557	678.764
213.621	14.916	896.667	677.949
214.636	14.883	895.992	677.243
215.650	14.904	895.073	676.576
216.665	14.966	894.636	676.434
217.680	15.066	894.191	676.443
218.694	15.094	893.172	675.725
219.709	15.013	892.475	674.811
220.723	14.949	892.434	674.462
221.738	15.055	891.690	674.268
222.753	15.020	890.946	673.504
223.767	15.192	890.327	673.667
224.782	15.256	889.647	673.353
225.796	15.183	889.117	672.597
226.811	15.063	888.592	671.661
227.826	15.114	887.904	671.283
228.840	15.100	887.154	670.603
229.855	15.126	886.264	669.972
230.869	15.090	885.498	669.193
231.884	15.030	885.109	668.599
232.899	15.092	884.356	668.217
233.913	15.028	883.677	667.391
234.928	14.973	883.069	666.656
235.942	14.933	882.282	665.843
236.957	15.101	881.654	665.978
237.972	14.978	881.425	665.255
238.986	15.092	880.408	664.884
240.001	15.015	879.963	664.180
241.015	15.068	879.243	663.788
242.030	15.182	878.736	663.802
243.045	15.063	878.191	662.859
244.059	15.203	877.481	662.817
245.074	15.200	876.807	662.237
246.088	15.260	876.217	661.972
247.103	15.322	875.848	661.877
248.117	15.355	875.398	661.611
249.132	15.635	874.796	662.200
250.147	15.605	874.143	661.530
251.161	15.637	873.622	661.202
252.176	15.770	872.601	660.892
253.190	15.705	872.073	660.179
254.205	15.588	871.918	659.545
255.220	15.679	871.093	659.220
256.234	15.735	870.325	658.799
257.249	15.722	869.514	658.077
258.263	15.623	869.316	657.481
259.278	15.722	868.164	656.936
260.293	15.719	867.731	656.540
261.307	15.756	867.268	656.276
262.322	15.877	866.680	656.244
263.336	16.032	865.517	655.909
264.351	15.786	865.039	654.533
265.366	15.926	864.258	654.427
266.380	15.890	864.023	654.053
267.395	15.860	863.005	653.106
268.409	15.938	862.002	652.592
269.424	15.906	861.575	652.088
270.439	15.656	861.160	650.748
271.453	15.939	860.062	650.954
272.468	15.850	859.633	650.229
273.482	15.816	859.768	650.140
274.497	15.790	858.990	649.394
275.512	15.794	858.497	648.981
276.526	15.977	857.492	648.870
277.541	15.950	857.048	648.371
278.555	15.826	856.841	647.680
279.570	16.105	856.099	648.136
280.585	16.078	855.252	647.331
281.599	16.089	854.153	646.485
282.614	16.066	853.832	646.097
283.628	16.062	853.498	645.772
284.643	16.045	852.675	645.026
285.657	16.021	852.174	644.498
286.672	16.011	851.748	644.080
287.687	15.813	851.106	642.783
288.701	15.913	850.513	642.660
289.716	16.030	849.906	642.591
290.730	16.193	849.193	642.615
291.745	16.133	848.438	641.759
292.760	16.183	848.072	641.614
293.774	16.138	847.612	641.040
294.789	16.266	846.827	640.876
295.803	16.258	845.828	640.030
296.818	16.098	845.559	639.164
297.833	16.047	844.809	638.349
298.847	16.129	844.250	638.182
299.862	16.230	843.364	637.836
300.876	16.307	843.321	638.038
301.891	16.214	842.648	637.119
302.906	16.214	842.553	636.991
303.920	16.441	841.792	637.216
304.935	16.478	840.899	636.623
305.949	16.380	840.473	635.878
306.964	16.352	840.092	635.427
307.979	16.409	839.033	634.785
308.993	16.482	838.815	634.835
310.008	16.533	838.185	634.496
311.022	16.572	837.813	634.302
312.037	16.291	836.923	632.522
313.052	16.242	836.274	631.789
314.066	16.415	835.731	631.972
315.081	16.357	835.385	631.439
316.095	16.360	834.834	630.976
317.110	16.339	834.277	630.422
318.125	16.457	833.822	630.460
319.139	16.316	833.274	629.467
320.154	16.456	832.774	629.555
321.168	16.432	831.955	628.792
322.183	16.489	831.591	628.670
323.197	16.471	831.267	628.305
324.212	16.475	830.561	627.731
325.227	16.591	829.983	627.667
326.241	16.492	829.418	626.818
327.256	16.439	828.863	626.146
328.270	16.448	828.392	625.769
329.285	16.417	827.865	625.201
330.300	16.484	827.202	624.890
331.314	16.544	826.602	624.605
332.329	16.682	826.146	624.715
333.343	16.606	826.082	624.329
334.358	16.673	825.524	624.101
335.373	16.742	824.834	623.777
336.387	16.704	824.846	623.593
337.402	16.730	824.391	623.289
338.416	16.770	824.604	623.541
339.431	16.957	823.611	623.423
340.446	16.959	822.927	622.855
341.460	16.813	823.275	622.528
342.475	16.978	822.888	622.788
343.489	16.881	822.212	621.863
344.504	16.876	821.733	621.428
345.519	17.112	821.391	621.980
346.533	16.950	820.601	620.733
347.548	17.004	819.753	620.236
348.562	16.811	819.632	619.383
349.577	16.812	819.413	619.165
350.592	16.821	818.355	618.346
351.606	16.905	817.604	618.029
352.621	16.951	816.909	617.615
353.635	17.090	816.445	617.715
354.650	16.841	815.959	616.390
355.665	17.098	815.097	616.615
356.679	17.054	814.584	616.014
357.694	17.015	814.208	615.533
358.708	16.980	813.079	614.498
359.723	17.070	812.623	614.427
360.738	17.017	812.602	614.164
361.752	17.280	811.536	614.256
362.767	17.157	811.296	613.574
363.781	17.148	811.173	613.396
364.796	17.235	810.533	613.171
365.810	17.483	809.538	613.258
366.825	17.278	809.716	612.599
367.840	17.381	809.433	612.702
368.854	17.262	808.733	611.689
369.869	17.138	808.124	610.728
370.883	17.366	807.604	611.099
371.898	17.433	807.536	611.236
372.913	17.335	806.877	610.330
373.927	17.399	806.350	610.109
374.942	17.368	805.935	609.630
375.956	17.505	805.777	609.946
376.971	17.686	805.044	609.986
377.986	17.526	804.947	609.284
379.000	17.777	804.187	609.552
380.015	17.484	803.697	608.080
381.029	17.677	803.503	608.570
382.044	17.631	802.539	607.621
383.059	17.676	802.257	607.516
384.073	17.519	801.825	606.573
385.088	17.376	801.383	605.678
386.102	17.444	800.740	605.378
387.117	17.367	800.302	604.720
388.132	17.492	799.367	604.405
389.146	17.471	798.877	603.906
390.161	17.482	798.835	603.859
391.175	17.640	797.818	603.597
392.190	17.545	797.390	602.884
393.205	17.507	796.957	602.368
394.219	17.545	796.850	602.368
395.234	17.564	796.107	601.822
396.248	17.640	795.800	601.806
397.263	17.408	795.146	600.437
398.278	17.454	794.911	600.369
399.292	17.420	794.896	600.184
400.307	17.434	794.368	599.782
401.321	17.460	793.734	599.343
402.336	17.609	792.961	599.230
403.350	17.772	792.602	599.480
404.365	17.828	792.347	599.430
405.380	17.876	791.617	598.994
406.394	17.929	791.144	598.768
407.409	17.888	791.389	598.757
408.423	17.953	791.090	598.705
409.438	17.986	790.434	598.271
410.453	17.957	790.142	597.897
411.467	17.954	789.745	597.531
412.482	18.044	789.255	597.423
413.496	18.110	788.842	597.289
414.511	18.146	788.238	596.905
415.526	18.128	787.913	596.543
416.540	18.135	787.681	596.337
417.555	18.072	786.882	595.461
418.569	18.088	786.479	595.159
419.584	18.092	786.304	594.987
420.599	18.212	785.837	595.000
421.613	156.655	1369.749	1794.865
422.628	135.377	1454.845	1794.956
