DTS Sentinel unit serial number:	SN413079Multiplexer serial number:	ORYXHardware model number:	OX4-SRSoftware version number:	ORYX F/W v4.00 Oryx Data Collector v3.7.2.0data status	okinstallation	princeton_trtdifferential loss correction	single-endedforward channel	channel 1reverse channel	N/Adate	2019/09/16time	02:06:35forward acquisition time	60.00reverse acquisition time	0.00gamma	496.2192k internal	0.2332k external	0.2332temperature offset calibration	0.9976default loss term (dB/km)	0.3790temperature slope calibration	1.0000multiplexer offset coefficient	1.0000multiplexer slope coefficient	1.0000fibre end	0.00T internal ref (°C)	27.50T ext. ref 1 (°C)	10.12T ext. ref 2 (°C)	22.42length (m)	temperature (°C)	Stokes	anti-Stokes-747.200	88.569	-0.217	-0.243
-746.185	175.050	0.210	0.306
-745.171	3.699	0.273	0.201
-744.156	-118.599	-0.185	-0.033
-743.142	-200.000	0.003	0.094
-742.127	470.398	0.088	-0.200
-741.112	-58.568	0.444	0.194
-740.098	-200.000	-0.089	0.395
-739.083	130.603	-0.063	-0.081
-738.069	457.177	0.118	-0.263
-737.054	172.882	0.043	-0.062
-736.039	800.000	-0.108	-0.355
-735.025	-39.336	-0.213	-0.113
-734.010	-91.530	-0.294	-0.084
-732.996	36.332	-0.403	-0.358
-731.981	-142.064	-0.324	0.032
-730.966	-17.616	0.270	-0.171
-729.952	3.134	-0.309	-0.226
-728.937	-30.255	-0.124	0.071
-727.923	25.508	-0.100	0.084
-726.908	-200.000	-0.008	-0.101
-725.894	-109.522	-0.186	0.039
-724.879	-149.539	-0.098	-0.008
-723.864	800.000	-0.069	-0.220
-722.850	-200.000	0.021	-0.442
-721.835	800.000	-0.048	0.169
-720.821	766.791	0.069	0.188
-719.806	68.482	-0.140	0.144
-718.791	-200.000	0.010	0.159
-717.777	-64.897	-0.247	-0.101
-716.762	-200.000	-0.009	-0.234
-715.748	368.889	-0.130	-0.265
-714.733	176.641	-0.074	0.107
-713.718	295.438	0.214	-0.394
-712.704	394.491	-0.117	-0.246
-711.689	-110.096	0.189	0.040
-710.675	5.816	-0.164	0.122
-709.660	115.506	0.245	-0.301
-708.645	-65.880	0.272	-0.109
-707.631	307.901	0.102	0.190
-706.616	800.000	0.106	-0.309
-705.602	-159.779	0.125	-0.007
-704.587	129.473	0.054	-0.069
-703.572	-18.276	-0.139	0.087
-702.558	-45.307	-0.058	-0.029
-701.543	501.979	0.064	0.148
-700.529	279.709	0.049	-0.088
-699.514	-20.231	0.149	0.092
-698.499	800.000	0.075	-0.292
-697.485	-130.975	0.185	0.025
-696.470	800.000	-0.101	-0.311
-695.456	462.435	-0.103	0.232
-694.441	-143.056	0.243	-0.024
-693.426	-200.000	0.046	-0.272
-692.412	800.000	-0.047	0.190
-691.397	-126.099	-0.041	0.006
-690.383	48.421	-0.298	-0.280
-689.368	-60.454	0.166	0.071
-688.354	-200.000	0.037	0.163
-687.339	-200.000	0.014	-0.076
-686.324	-121.168	-0.074	-0.012
-685.310	86.369	-0.114	0.126
-684.295	245.495	0.071	0.120
-683.281	347.082	0.069	-0.137
-682.266	-14.918	-0.166	-0.107
-681.251	-200.000	-0.036	-0.182
-680.237	46.424	0.179	-0.167
-679.222	-59.299	-0.351	0.152
-678.208	-126.647	-0.284	-0.042
-677.193	800.000	-0.086	-0.356
-676.178	-64.383	0.290	-0.118
-675.164	800.000	-0.069	-0.194
-674.149	7.550	0.188	0.141
-673.135	800.000	0.062	0.259
-672.120	-200.000	0.007	0.058
-671.105	-200.000	-0.022	-0.204
-670.091	-200.000	0.008	-0.251
-669.076	337.827	0.140	0.274
-668.062	-23.504	0.119	0.072
-667.047	522.971	-0.131	0.308
-666.032	-185.972	-0.198	-0.003
-665.018	-146.400	-0.231	0.020
-664.003	800.000	-0.023	0.069
-662.989	291.200	0.039	0.071
-661.974	-200.000	0.023	0.156
-660.959	-200.000	0.008	-0.099
-659.945	-84.309	0.174	0.055
-658.930	-27.932	-0.174	0.101
-657.916	-24.965	0.167	-0.100
-656.901	105.930	0.157	0.186
-655.886	15.186	-0.120	0.094
-654.872	-44.248	-0.335	-0.168
-653.857	-200.000	-0.021	-0.129
-652.843	147.188	0.091	0.123
-651.828	-0.957	-0.166	-0.118
-650.814	-200.000	-0.012	0.078
-649.799	55.690	-0.059	0.057
-648.784	33.624	-0.069	0.060
-647.770	800.000	-0.098	-0.321
-646.755	-36.971	0.356	-0.191
-645.741	123.542	0.095	-0.120
-644.726	800.000	0.123	-0.435
-643.711	-55.427	0.128	-0.057
-642.697	-77.415	0.018	0.006
-641.682	-35.666	0.077	0.042
-640.668	-66.122	0.161	-0.064
-639.653	368.213	-0.046	0.093
-638.638	242.861	-0.030	0.051
-637.624	87.967	-0.103	-0.115
-636.609	619.082	0.057	0.144
-635.595	287.859	-0.192	0.348
-634.580	79.868	0.179	0.193
-633.565	9.081	-0.074	-0.056
-632.551	117.105	-0.210	-0.259
-631.536	-200.000	0.018	0.156
-630.522	26.083	-0.042	-0.035
-629.507	-123.611	0.067	0.011
-628.492	-200.000	-0.024	-0.205
-627.478	-81.420	-0.260	-0.086
-626.463	-96.395	0.432	-0.114
-625.449	111.476	-0.103	0.125
-624.434	516.638	-0.081	-0.190
-623.419	800.000	-0.036	-0.120
-622.405	-65.531	0.233	0.094
-621.390	-21.248	0.298	-0.182
-620.376	-140.141	-0.365	0.038
-619.361	800.000	0.056	0.217
-618.346	10.866	0.260	-0.199
-617.332	-38.568	-0.263	-0.139
-616.317	-118.764	-0.006	0.001
-615.303	-110.238	-0.143	0.030
-614.288	-200.000	0.050	-0.291
-613.273	-124.617	0.082	-0.013
-612.259	81.766	0.187	0.202
-611.244	-200.000	0.009	0.210
-610.230	131.481	-0.086	0.110
-609.215	-74.532	-0.407	0.147
-608.201	-200.000	0.040	0.299
-607.186	-44.911	-0.066	0.033
-606.171	-122.528	0.124	0.020
-605.157	-11.257	0.157	-0.103
-604.142	217.584	-0.158	-0.251
-603.128	-65.010	-0.069	-0.028
-602.113	-58.372	-0.298	0.129
-601.098	-54.536	-0.060	0.027
-600.084	-200.000	0.022	-0.314
-599.069	-134.739	0.277	-0.034
-598.055	-146.140	-0.198	0.017
-597.040	-143.257	0.204	-0.020
-596.025	-200.000	0.060	0.278
-595.011	-29.208	-0.323	0.185
-593.996	107.465	-0.032	-0.038
-592.982	-148.183	0.105	0.009
-591.967	-200.000	0.011	0.401
-590.952	800.000	-0.106	0.424
-589.938	-200.000	0.033	0.265
-588.923	800.000	0.106	0.378
-587.909	-200.000	-0.008	-0.228
-586.894	-140.526	0.278	-0.029
-585.879	83.094	-0.256	0.278
-584.865	-67.341	-0.336	0.132
-583.850	20.588	-0.181	-0.147
-582.836	-116.417	-0.153	-0.028
-581.821	-200.000	0.019	-0.173
-580.806	791.661	-0.033	-0.090
-579.792	757.683	0.084	0.227
-578.777	65.326	0.166	-0.168
-577.763	-200.000	0.021	0.498
-576.748	-50.840	0.188	0.088
-575.733	-114.127	0.106	-0.021
-574.719	373.060	-0.097	0.197
-573.704	-16.825	0.160	0.101
-572.690	-200.000	-0.044	-0.208
-571.675	-69.162	0.222	0.086
-570.661	-46.531	-0.122	-0.060
-569.646	-200.000	-0.033	-0.209
-568.631	736.063	-0.037	0.100
-567.617	800.000	0.038	0.111
-566.602	800.000	-0.018	-0.076
-565.588	210.810	-0.078	-0.122
-564.573	-200.000	0.005	0.501
-563.558	-19.922	-0.239	-0.148
-562.544	-69.216	-0.240	-0.092
-561.529	800.000	-0.060	0.221
-560.515	130.649	0.038	-0.048
-559.500	210.052	0.031	0.048
-558.485	-2.622	-0.074	0.052
-557.471	-112.829	0.125	-0.025
-556.456	105.239	-0.087	-0.103
-555.442	-38.343	0.174	-0.092
-554.427	-117.191	-0.270	0.049
-553.412	34.368	0.034	-0.030
-552.398	48.687	-0.231	-0.216
-551.383	800.000	0.091	0.339
-550.369	-7.048	-0.199	-0.135
-549.354	-96.821	0.303	-0.079
-548.339	-165.313	0.204	0.009
-547.325	-137.565	0.060	0.007
-546.310	150.569	-0.053	-0.072
-545.296	800.000	0.033	-0.137
-544.281	56.556	0.052	0.051
-543.266	151.187	0.150	0.204
-542.252	800.000	-0.067	0.197
-541.237	-52.286	0.103	0.048
-540.223	800.000	0.090	-0.312
-539.208	-200.000	-0.005	0.173
-538.193	-95.206	-0.495	-0.133
-537.179	-200.000	-0.000	-0.406
-536.164	-114.755	0.046	-0.009
-535.150	-200.000	-0.008	0.376
-534.135	427.460	0.020	-0.044
-533.121	-55.889	0.211	-0.094
-532.106	131.721	0.067	-0.086
-531.091	-200.000	0.065	-0.321
-530.077	-200.000	0.045	-0.291
-529.062	-200.000	0.020	-0.235
-528.048	-88.950	0.075	-0.022
-527.033	55.471	0.289	-0.279
-526.018	-180.520	-0.430	-0.009
-525.004	136.875	-0.084	-0.110
-523.989	-200.000	0.075	-0.489
-522.975	-126.714	-0.317	0.047
-521.960	295.461	-0.072	0.131
-520.945	-47.058	-0.122	-0.059
-519.931	-200.000	-0.004	-0.085
-518.916	184.500	0.130	-0.192
-517.902	-155.525	0.323	-0.021
-516.887	348.127	-0.073	0.144
-515.872	-200.000	-0.062	-0.304
-514.858	350.403	-0.051	0.101
-513.843	185.011	0.130	-0.193
-512.829	-32.497	-0.157	-0.087
-511.814	-107.442	-0.269	0.059
-510.799	-157.896	0.117	-0.007
-509.785	-200.000	-0.024	-0.212
-508.770	-139.583	-0.026	-0.003
-507.756	202.444	0.152	0.234
-506.741	7.134	-0.129	0.096
-505.726	-92.878	-0.240	-0.067
-504.712	-200.000	-0.023	0.118
-503.697	25.765	0.192	-0.159
-502.683	228.316	-0.071	0.115
-501.668	171.378	-0.026	0.037
-500.653	-67.393	0.359	0.140
-499.639	-30.219	-0.021	-0.012
-498.624	-200.000	-0.010	0.091
-497.610	371.786	-0.051	0.104
-496.595	-91.956	0.283	-0.080
-495.581	-30.537	-0.133	0.075
-494.566	-37.707	-0.246	-0.130
-493.551	316.013	0.059	0.111
-492.537	-48.283	-0.075	0.036
-491.522	-6.937	0.305	0.207
-490.508	-8.165	0.259	-0.174
-489.493	-200.000	-0.036	-0.338
-488.478	66.984	0.012	0.012
-487.464	16.280	0.296	-0.232
-486.449	-193.893	-0.437	0.004
-485.435	27.516	-0.127	0.106
-484.420	-129.855	0.128	0.017
-483.405	408.461	-0.159	0.335
-482.391	538.096	0.050	-0.118
-481.376	18.885	-0.282	-0.225
-480.362	589.470	-0.137	-0.336
-479.347	252.407	-0.045	-0.077
-478.332	-200.000	-0.039	-0.183
-477.318	103.719	0.219	0.256
-476.303	266.293	-0.029	-0.051
-475.289	-17.661	-0.285	-0.178
-474.274	20.260	0.337	-0.271
-473.259	-122.329	-0.050	0.008
-472.245	-162.009	-0.297	0.015
-471.230	545.484	-0.115	-0.274
-470.216	749.213	-0.034	0.090
-469.201	199.342	0.067	-0.103
-468.186	-200.000	0.000	-0.238
-467.172	148.532	-0.138	0.186
-466.157	-200.000	-0.039	0.200
-465.143	315.189	-0.132	-0.249
-464.128	373.239	0.018	-0.036
-463.113	-33.204	0.135	-0.074
-462.099	-104.209	0.426	-0.098
-461.084	-200.000	-0.028	-0.216
-460.070	205.724	0.073	-0.113
-459.055	-200.000	0.019	-0.275
-458.040	59.212	-0.241	0.236
-457.026	-200.000	-0.026	0.238
-456.011	-127.681	0.217	0.031
-454.997	140.555	0.113	-0.149
-453.982	-38.564	0.040	0.021
-452.968	-200.000	-0.012	-0.090
-451.953	105.569	0.242	-0.284
-450.938	800.000	0.170	-0.650
-449.924	603.668	0.043	0.106
-448.909	468.855	-0.134	-0.298
-447.895	713.436	-0.047	-0.125
-446.880	800.000	-0.011	-0.035
-445.865	-137.635	0.339	-0.038
-444.851	-200.000	0.000	0.046
-443.836	-26.734	0.065	0.038
-442.822	-11.750	0.222	-0.145
-441.807	164.177	-0.098	0.137
-440.792	-128.763	0.179	0.025
-439.778	-200.000	-0.058	-0.405
-438.763	-119.851	-0.424	0.073
-437.749	-71.317	-0.228	-0.085
-436.734	-200.000	0.045	-0.281
-435.719	667.131	0.038	0.097
-434.705	-200.000	0.028	-0.418
-433.690	800.000	-0.138	-0.385
-432.676	252.106	0.197	0.333
-431.661	785.493	0.069	-0.188
-430.646	28.700	0.214	0.180
-429.632	280.324	-0.234	0.416
-428.617	-200.000	0.021	0.198
-427.603	-200.000	0.081	-0.000
-426.588	176.121	-0.177	0.256
-425.573	172.878	-0.038	0.054
-424.559	-108.451	0.551	0.118
-423.544	-165.625	-0.084	-0.004
-422.530	192.444	-0.079	-0.118
-421.515	4.464	0.232	-0.169
-420.500	-135.506	-0.281	0.033
-419.486	-200.000	-0.044	0.447
-418.471	242.864	-0.212	0.354
-417.457	226.646	0.090	-0.145
-416.442	-4.993	0.122	0.084
-415.428	289.670	0.084	-0.152
-414.413	-66.490	0.172	0.068
-413.398	134.220	-0.196	0.252
-412.384	11.832	0.141	-0.108
-411.369	-105.826	-0.327	-0.073
-410.355	55.512	0.259	0.249
-409.340	86.235	-0.150	-0.164
-408.325	-200.000	-0.067	0.000
-407.311	-200.000	-0.040	0.186
-406.296	363.918	-0.092	0.183
-405.282	800.000	0.021	-0.059
-404.267	116.043	-0.046	-0.055
-403.252	-200.000	-0.010	-0.051
-402.238	-108.176	0.264	-0.057
-401.223	58.562	0.063	-0.062
-400.209	119.694	-0.172	-0.212
-399.194	233.095	0.085	-0.138
-398.179	40.150	0.084	0.075
-397.165	186.643	-0.275	-0.407
-396.150	-64.355	0.194	0.078
-395.136	-113.148	0.230	0.045
-394.121	138.032	0.069	-0.089
-393.106	381.702	-0.070	-0.143
-392.092	327.219	-0.172	-0.327
-391.077	-72.322	-0.304	-0.112
-390.063	383.485	-0.114	-0.233
-389.048	55.940	0.071	0.068
-388.033	-41.063	-0.254	-0.130
-387.019	800.000	0.024	-0.094
-386.004	800.000	0.113	-0.330
-384.990	-5.204	-0.140	-0.096
-383.975	76.383	-0.243	0.255
-382.960	650.086	-0.037	0.094
-381.946	55.102	-0.211	-0.202
-380.931	-67.648	-0.158	-0.062
-379.917	339.979	0.105	-0.202
-378.902	203.333	0.041	-0.064
-377.888	215.922	-0.230	0.363
-376.873	-200.000	0.019	-0.085
-375.858	-199.128	0.161	-0.001
-374.844	-83.267	0.416	0.132
-373.829	-77.898	0.397	0.136
-372.815	-148.883	-0.171	0.014
-371.800	360.688	-0.107	0.213
-370.785	-200.000	0.010	0.241
-369.771	800.000	0.020	0.088
-368.756	157.597	0.151	0.207
-367.742	10.507	0.088	0.067
-366.727	516.436	0.082	-0.191
-365.712	-157.606	-0.321	0.019
-364.698	225.044	-0.130	-0.209
-363.683	116.133	0.052	-0.063
-362.669	-157.368	-0.388	-0.023
-361.654	-119.055	0.177	0.031
-360.639	-200.000	0.051	0.250
-359.625	-60.217	0.272	-0.115
-358.610	800.000	-0.075	-0.208
-357.596	77.386	0.294	-0.310
-356.581	222.083	-0.233	0.371
-355.566	-200.000	0.017	-0.092
-354.552	-200.000	0.009	0.254
-353.537	-200.000	-0.002	0.161
-352.523	-4.807	0.229	-0.157
-351.508	-77.771	-0.215	-0.074
-350.493	35.045	-0.155	-0.135
-349.479	-95.372	-0.163	-0.043
-348.464	-89.594	0.108	-0.031
-347.450	100.792	0.117	-0.135
-346.435	-200.000	0.031	-0.228
-345.420	-18.166	-0.155	-0.096
-344.406	72.260	0.229	-0.236
-343.391	310.197	0.103	0.191
-342.377	-95.710	0.250	0.066
-341.362	434.291	-0.009	0.019
-340.348	-200.000	0.019	0.178
-339.333	-200.000	0.026	0.296
-338.318	19.605	0.221	0.176
-337.304	-200.000	-0.027	-0.166
-336.289	-73.710	0.057	0.021
-335.275	-200.000	0.015	-0.069
-334.260	215.142	-0.076	0.119
-333.245	100.740	0.122	-0.140
-332.231	-160.229	0.157	0.008
-331.216	296.056	0.040	0.072
-330.202	-111.487	0.026	0.005
-329.187	673.837	-0.061	-0.157
-328.172	223.761	-0.072	-0.115
-327.158	-200.000	0.063	0.291
-326.143	-200.000	0.024	-0.159
-325.129	-46.844	0.092	-0.045
-324.114	-200.000	-0.005	0.112
-323.099	-200.000	0.029	0.291
-322.085	292.394	-0.102	0.183
-321.070	-140.015	-0.094	0.010
-320.056	-5.047	-0.303	-0.206
-319.041	-77.514	0.237	0.082
-318.026	36.954	-0.350	0.306
-317.012	800.000	0.099	0.276
-315.997	-193.099	0.412	-0.004
-314.983	-147.945	-0.481	-0.040
-313.968	346.665	-0.064	-0.124
-312.953	-172.711	-0.195	-0.006
-311.939	134.538	-0.215	0.276
-310.924	283.884	0.093	-0.166
-309.910	121.909	0.143	0.177
-308.895	-5.205	-0.235	0.160
-307.880	268.457	0.102	-0.176
-306.866	405.075	-0.022	-0.045
-305.851	-101.403	-0.247	0.059
-304.837	-109.217	-0.345	0.072
-303.822	356.082	-0.014	0.027
-302.807	-51.139	-0.174	0.080
-301.793	141.920	-0.228	-0.300
-300.778	415.360	-0.061	-0.129
-299.764	-84.855	-0.293	-0.091
-298.749	125.096	0.197	0.245
-297.735	-86.907	0.170	-0.051
-296.720	226.868	-0.085	0.137
-295.705	46.218	-0.225	-0.206
-294.691	35.099	-0.125	-0.108
-293.676	343.118	0.077	-0.150
-292.662	-200.000	0.005	0.029
-291.647	191.120	-0.131	-0.194
-290.632	800.000	-0.067	-0.262
-289.618	148.766	0.187	-0.250
-288.603	-14.554	-0.132	0.084
-287.589	538.220	0.177	0.416
-286.574	-50.572	0.394	-0.183
-285.559	243.748	0.093	-0.154
-284.545	77.498	0.142	-0.149
-283.530	151.994	-0.134	-0.180
-282.516	9.392	0.003	0.002
-281.501	-119.301	-0.369	0.063
-280.486	647.630	0.118	-0.297
-279.472	-99.771	-0.412	0.102
-278.457	800.000	-0.075	0.322
-277.443	800.000	0.076	0.261
-276.428	-45.348	-0.227	-0.111
-275.413	168.422	-0.278	0.391
-274.399	-43.404	-0.106	-0.053
-273.384	239.308	-0.094	-0.155
-272.370	486.846	0.087	0.196
-271.355	-82.249	-0.213	-0.068
-270.340	-75.239	-0.081	-0.029
-269.326	-13.753	0.303	0.194
-268.311	-163.701	0.283	-0.013
-267.297	-80.930	0.090	0.029
-266.282	-200.000	0.016	0.257
-265.267	-200.000	0.007	-0.093
-264.253	344.099	0.050	0.097
-263.238	-200.000	0.015	0.072
-262.224	20.882	0.084	-0.067
-261.209	-75.868	0.185	0.065
-260.195	-123.782	0.141	-0.022
-259.180	74.589	0.140	0.146
-258.165	-200.000	-0.026	0.146
-257.151	218.448	-0.119	-0.188
-256.136	-86.669	0.091	-0.027
-255.122	-18.845	-0.093	0.057
-254.107	-20.367	0.258	0.157
-253.092	66.386	0.061	0.062
-252.078	-22.964	0.162	0.097
-251.063	-160.349	0.225	-0.012
-250.049	800.000	0.076	0.283
-249.034	-200.000	0.042	0.204
-248.019	-200.000	-0.025	0.285
-247.005	483.088	-0.101	-0.227
-245.990	78.787	0.168	0.177
-244.976	-200.000	-0.043	-0.251
-243.961	800.000	0.036	-0.153
-242.946	245.289	0.075	0.124
-241.932	-107.387	-0.454	-0.098
-240.917	-68.714	0.276	0.105
-239.903	800.000	-0.048	0.142
-238.888	-8.530	0.228	-0.151
-237.873	9.010	-0.227	-0.169
-236.859	197.659	0.047	0.071
-235.844	291.575	-0.058	0.104
-234.830	252.196	-0.086	-0.144
-233.815	-56.736	0.154	0.067
-232.800	-130.791	0.243	-0.032
-231.786	463.113	0.137	0.301
-230.771	-6.406	-0.249	0.167
-229.757	302.383	-0.083	0.151
-228.742	-114.099	0.141	0.027
-227.727	407.861	-0.073	0.153
-226.713	37.122	-0.005	0.004
-225.698	5.997	0.026	-0.019
-224.684	-178.597	0.062	0.001
-223.669	41.617	-0.126	-0.112
-222.655	800.000	0.104	0.432
-221.640	-54.205	0.428	-0.192
-220.625	800.000	0.010	-0.031
-219.611	800.000	-0.035	0.141
-218.596	-40.941	-0.026	0.013
-217.582	800.000	0.034	0.094
-216.567	159.722	-0.169	0.232
-215.552	-200.000	0.010	0.167
-214.538	270.687	-0.034	0.059
-213.523	-20.865	0.072	-0.044
-212.509	-169.365	0.096	-0.003
-211.494	-200.000	0.000	0.069
-210.479	-2.915	0.270	0.186
-209.465	-103.467	-0.195	-0.045
-208.450	-200.000	0.061	0.293
-207.436	-178.468	0.079	0.002
-206.421	363.082	0.015	-0.030
-205.406	800.000	-0.048	0.140
-204.392	-29.483	0.202	-0.114
-203.377	113.888	0.015	-0.017
-202.363	-32.813	-0.249	0.136
-201.348	-200.000	0.040	-0.394
-200.333	118.662	0.150	0.183
-199.319	-200.000	0.004	0.211
-198.304	114.577	-0.087	-0.105
-197.290	67.141	0.203	-0.204
-196.275	-8.460	0.233	-0.154
-195.260	30.582	0.232	-0.195
-194.246	-10.249	-0.315	0.206
-193.231	21.749	0.292	0.234
-192.217	-200.000	-0.047	0.228
-191.202	-200.000	0.015	-0.192
-190.187	-200.000	0.006	-0.129
-189.173	214.024	0.210	0.327
-188.158	9.924	0.087	-0.065
-187.144	800.000	-0.065	-0.206
-186.129	-6.612	0.132	-0.088
-185.114	38.565	0.132	-0.116
-184.100	800.000	-0.029	0.107
-183.085	800.000	0.099	0.425
-182.071	100.064	-0.204	0.233
-181.056	-88.530	-0.301	-0.088
-180.042	74.889	-0.256	0.266
-179.027	-200.000	-0.008	-0.119
-178.012	49.855	-0.262	0.243
-176.998	147.446	0.092	-0.122
-175.983	800.000	-0.130	0.391
-174.969	111.440	0.159	0.189
-173.954	-200.000	-0.018	0.084
-172.939	-104.417	0.331	0.075
-171.925	-37.682	-0.319	-0.167
-170.910	14.271	0.072	-0.055
-169.896	-154.283	-0.408	0.027
-168.881	-200.000	0.059	-0.320
-167.866	800.000	-0.028	-0.090
-166.852	-62.078	-0.200	0.082
-165.837	-37.106	0.200	0.105
-164.823	112.541	0.106	0.126
-163.808	-68.209	0.279	0.107
-162.793	290.303	-0.048	-0.085
-161.779	-3.806	-0.340	-0.232
-160.764	566.861	0.198	0.474
-159.750	-132.266	-0.304	-0.039
-158.735	41.040	-0.229	-0.204
-157.720	27.973	-0.051	-0.043
-156.706	117.679	-0.103	0.125
-155.691	-200.000	-0.032	0.138
-154.677	-49.691	0.353	0.165
-153.662	-1.813	-0.137	-0.095
-152.647	-200.000	0.006	-0.055
-151.633	-49.180	0.433	-0.203
-150.618	-200.000	-0.041	0.411
-149.604	-22.542	-0.025	0.015
-148.589	22.195	0.243	-0.195
-147.574	151.816	0.229	0.307
-146.560	-11.108	0.221	-0.143
-145.545	330.850	-0.177	0.336
-144.531	-36.590	0.224	-0.118
-143.516	-125.652	-0.230	0.034
-142.502	67.308	0.109	0.109
-141.487	-121.766	0.302	-0.049
-140.472	-5.536	-0.099	-0.067
-139.458	-16.459	0.207	0.129
-138.443	-16.911	-0.290	-0.180
-137.429	-48.932	-0.134	-0.063
-136.414	-138.162	-0.155	0.017
-135.399	559.372	0.006	0.013
-134.385	-200.000	0.005	-0.033
-133.370	800.000	-0.133	0.404
-132.356	6.314	0.096	-0.070
-131.341	211.401	-0.010	0.015
-130.326	-174.512	0.046	-0.001
-129.312	1.918	0.235	0.166
-128.297	50.524	0.413	-0.384
-127.283	612.116	0.165	0.404
-126.268	-200.000	-0.011	0.161
-125.253	19.113	-0.251	0.198
-124.239	93.015	-0.129	0.143
-123.224	-200.000	-0.008	-0.156
-122.210	-82.001	0.388	0.124
-121.195	-178.535	-0.075	0.002
-120.180	468.278	0.256	0.564
-119.166	800.000	0.049	0.165
-118.151	20.329	0.249	-0.198
-117.137	-134.248	-0.071	-0.009
-116.122	-40.247	-0.339	0.173
-115.107	800.000	0.083	0.268
-114.093	-193.438	-0.126	0.001
-113.078	73.598	0.117	-0.120
-112.064	502.964	-0.118	-0.267
-111.049	-53.373	-0.147	-0.066
-110.034	-200.000	-0.030	0.192
-109.020	-131.130	-0.278	0.036
-108.005	-200.000	-0.272	-0.000
-106.991	-200.000	0.035	0.416
-105.976	201.998	-0.362	-0.547
-104.962	-135.460	0.178	-0.021
-103.947	-200.000	0.016	-0.262
-102.932	54.386	0.097	-0.091
-101.918	-200.000	-0.013	-0.076
-100.903	-200.000	-0.043	-0.296
-99.889	-200.000	0.031	-0.155
-98.874	800.000	-0.019	0.065
-97.859	665.878	-0.112	-0.283
-96.845	-200.000	-0.005	0.223
-95.830	576.384	-0.016	0.038
-94.816	291.251	-0.101	-0.180
-93.801	-101.440	0.325	-0.078
-92.786	118.686	0.246	0.298
-91.772	485.281	0.039	-0.088
-90.757	382.262	0.085	0.171
-89.743	-158.147	0.150	0.009
-88.728	699.134	-0.141	-0.363
-87.713	-161.113	-0.167	-0.009
-86.699	80.106	0.185	0.196
-85.684	-34.138	-0.152	0.082
-84.670	-200.000	-0.041	-0.216
-83.655	233.853	-0.155	-0.251
-82.640	-200.000	-0.022	0.251
-81.626	-162.735	-0.384	0.018
-80.611	57.231	0.246	0.235
-79.597	-5.764	0.099	-0.066
-78.582	589.060	0.146	-0.353
-77.567	-93.515	0.015	0.004
-76.553	-63.322	0.216	0.087
-75.538	68.836	0.043	0.043
-74.524	800.000	0.099	0.285
-73.509	-200.000	-0.138	0.619
-72.494	-80.190	-0.174	-0.057
-71.480	279.541	-0.049	-0.086
-70.465	-68.695	-0.041	0.016
-69.451	800.000	0.099	0.389
-68.436	120.102	0.166	0.202
-67.422	-200.000	0.039	-0.252
-66.407	800.000	0.106	0.345
-65.392	-20.914	-0.099	0.059
-64.378	800.000	-0.066	0.222
-63.363	41.663	0.193	-0.172
-62.349	-200.000	0.024	0.262
-61.334	48.608	-0.870	-0.799
-60.319	67.891	0.672	0.674
-59.305	-200.000	-0.051	-1.045
-58.290	800.000	0.454	1.234
-57.276	216.291	0.965	1.503
-56.261	-200.000	113.105	644.021
-55.246	474.747	1501.622	3319.067
-54.232	148.363	2664.861	3523.672
-53.217	104.309	2147.700	2475.173
-52.203	38.792	1598.453	1397.662
-51.188	30.750	1345.838	1128.226
-50.173	27.904	1307.459	1079.222
-49.159	55.522	1362.615	1291.781
-48.144	54.229	1377.947	1298.497
-47.130	31.193	1333.527	1120.385
-46.115	27.583	1316.027	1084.209
-45.100	27.372	1311.116	1078.870
-44.086	27.377	1308.286	1076.527
-43.071	27.220	1306.496	1074.084
-42.057	27.216	1304.725	1072.566
-41.042	27.380	1302.640	1071.770
-40.027	27.316	1301.154	1070.131
-39.013	27.383	1299.041	1068.746
-37.998	27.376	1297.327	1067.252
-36.984	27.397	1295.578	1065.895
-35.969	27.434	1293.765	1064.574
-34.954	27.515	1292.045	1063.590
-33.940	27.501	1291.018	1062.620
-32.925	27.562	1289.506	1061.690
-31.911	27.592	1288.008	1060.590
-30.896	27.593	1286.163	1059.034
-29.881	27.624	1285.068	1058.268
-28.867	27.650	1283.390	1056.994
-27.852	27.587	1282.327	1055.715
-26.838	27.620	1280.802	1054.609
-25.823	27.580	1279.803	1053.515
-24.809	27.552	1278.211	1051.998
-23.794	27.591	1276.752	1050.980
-22.779	27.574	1275.818	1050.072
-21.765	27.619	1274.310	1049.050
-20.750	27.522	1273.304	1047.619
-19.736	27.481	1272.059	1046.320
-18.721	27.532	1270.767	1045.506
-17.706	27.543	1269.738	1044.681
-16.692	27.479	1268.503	1043.260
-15.677	27.442	1267.573	1042.243
-14.663	27.361	1266.848	1041.137
-13.648	27.382	1264.859	1039.583
-12.633	27.474	1264.228	1039.552
-11.619	27.419	1263.632	1038.704
-10.604	27.507	1262.459	1038.198
-9.590	27.432	1261.366	1036.831
-8.575	27.434	1260.543	1036.126
-7.560	27.445	1259.359	1035.175
-6.546	27.489	1258.596	1034.756
-5.531	27.546	1257.408	1034.061
-4.517	27.458	1256.910	1033.114
-3.502	27.405	1256.662	1032.564
-2.487	27.558	1255.342	1032.307
-1.473	27.489	1250.939	1028.260
-0.458	26.012	1236.552	1008.143
0.556	21.327	1220.571	973.017
1.571	17.985	1227.163	959.443
2.586	17.305	1242.775	967.695
3.600	17.350	1231.508	959.092
4.615	15.612	1164.494	897.548
5.629	12.048	1097.428	827.808
6.644	10.286	1080.564	806.247
7.659	10.146	1078.144	803.677
8.673	10.007	1077.319	802.300
9.688	10.052	1075.609	801.176
10.702	10.283	1073.651	800.790
11.717	12.473	1076.173	813.446
12.731	15.908	1080.202	833.453
13.746	17.787	1082.606	844.546
14.761	17.400	1082.170	842.214
15.775	16.554	1079.661	836.008
16.790	15.603	1077.143	829.294
17.804	14.870	1075.828	824.591
18.819	14.383	1074.723	821.272
19.834	14.181	1073.926	819.596
20.848	13.902	1072.827	817.312
21.863	13.608	1072.210	815.325
22.877	13.519	1071.593	814.346
23.892	13.427	1071.060	813.415
24.907	13.419	1069.937	812.453
25.921	13.628	1068.635	812.417
26.936	13.575	1067.670	811.350
27.950	13.629	1066.045	810.306
28.965	13.687	1064.663	809.467
29.980	13.816	1062.770	808.586
30.994	13.714	1062.099	807.508
32.009	13.788	1061.013	806.970
33.023	13.825	1060.065	806.357
34.038	13.687	1058.687	804.566
35.053	13.552	1058.255	803.513
36.067	13.625	1057.132	802.943
37.082	13.659	1056.246	802.366
38.096	13.727	1055.256	801.871
39.111	13.744	1055.184	801.829
40.126	13.579	1053.108	799.381
41.140	13.456	1052.243	798.062
42.155	13.522	1050.851	797.252
43.169	13.466	1049.976	796.249
44.184	13.442	1048.967	795.301
45.199	13.462	1047.846	794.476
46.213	13.506	1046.891	793.891
47.228	13.497	1046.120	793.194
48.242	13.732	1044.722	793.188
49.257	13.561	1044.124	791.844
50.271	13.532	1043.383	791.076
51.286	13.602	1042.478	790.654
52.301	13.616	1041.595	789.978
53.315	13.549	1040.179	788.518
54.330	13.491	1039.339	787.536
55.344	13.542	1038.586	787.135
56.359	13.511	1037.693	786.244
57.374	13.365	1036.609	784.659
58.388	13.525	1035.520	784.522
59.403	13.394	1034.908	783.373
60.417	13.296	1034.251	782.341
61.432	13.418	1033.315	782.138
62.447	13.374	1032.324	781.111
63.461	13.419	1031.667	780.759
64.476	13.256	1030.970	779.396
65.490	13.242	1030.378	778.812
66.505	13.309	1029.407	778.323
67.520	13.462	1028.661	778.410
68.534	13.476	1027.810	777.766
69.549	13.484	1026.982	777.106
70.563	13.457	1026.089	776.233
71.578	13.357	1025.369	775.152
72.593	13.283	1024.689	774.223
73.607	13.349	1024.087	774.007
74.622	13.267	1023.547	773.151
75.636	13.391	1022.481	772.855
76.651	13.376	1022.115	772.437
77.666	13.298	1021.618	771.631
78.680	13.265	1021.085	771.006
79.695	13.309	1020.173	770.453
80.709	13.400	1019.122	770.015
81.724	13.412	1018.828	769.784
82.739	13.457	1018.144	769.405
83.753	13.684	1017.295	769.751
84.768	13.717	1016.687	769.378
85.782	13.717	1015.604	768.487
86.797	13.627	1014.590	767.235
87.812	13.411	1014.274	765.932
88.826	13.654	1012.660	765.768
89.841	13.654	1011.698	764.969
90.855	13.644	1011.046	764.366
91.870	13.820	1009.739	764.119
92.884	13.799	1008.774	763.224
93.899	13.753	1008.274	762.568
94.914	13.740	1007.653	761.969
95.928	13.732	1007.002	761.372
96.943	13.704	1006.115	760.505
97.957	13.729	1005.326	759.958
98.972	13.822	1004.083	759.376
99.987	13.744	1003.211	758.292
101.001	13.748	1002.223	757.500
102.016	13.707	1001.342	756.580
103.030	13.730	1000.544	756.014
104.045	13.762	999.529	755.325
105.060	13.662	999.039	754.434
106.074	13.685	997.630	753.408
107.089	13.476	997.274	752.123
108.103	13.495	995.989	751.172
109.118	13.596	994.868	750.716
110.133	13.474	994.193	749.588
111.147	13.544	993.076	748.998
112.162	13.667	992.148	748.788
113.176	13.682	991.301	748.149
114.191	13.669	990.794	747.642
115.206	13.647	990.278	747.086
116.220	13.523	989.056	745.542
117.235	13.565	988.140	744.973
118.249	13.508	987.728	744.341
119.264	13.565	986.815	743.843
120.279	13.453	986.368	742.937
121.293	13.523	985.171	742.284
122.308	13.496	984.168	741.340
123.322	13.368	983.276	740.030
124.337	13.526	981.981	739.696
125.352	13.420	981.227	738.593
126.366	13.486	979.891	737.813
127.381	13.505	978.961	737.134
128.395	13.448	977.964	736.065
129.410	13.536	977.175	735.795
130.424	13.486	976.483	734.986
131.439	13.647	975.601	734.974
132.454	13.712	974.923	734.687
133.468	13.638	973.986	733.586
134.483	13.764	972.986	733.324
135.497	13.584	972.581	732.160
136.512	13.607	971.599	731.457
137.527	13.620	970.894	730.921
138.541	13.653	970.486	730.693
139.556	13.639	969.537	729.851
140.570	13.659	968.774	729.301
141.585	13.764	967.960	729.084
142.600	13.843	967.233	728.819
143.614	13.786	966.533	727.980
144.629	13.855	965.993	727.812
145.643	13.842	964.325	726.434
146.658	13.726	963.672	725.367
147.673	13.697	962.191	724.063
148.687	13.749	961.586	723.769
149.702	13.623	960.895	722.635
150.716	13.650	959.700	721.793
151.731	13.701	959.485	721.787
152.746	13.618	958.730	720.796
153.760	13.843	957.825	721.028
154.775	13.812	957.562	720.634
155.789	13.866	956.811	720.237
156.804	13.968	956.175	720.137
157.819	13.855	955.063	718.748
158.833	14.023	954.687	719.129
159.848	13.936	954.135	718.273
160.862	13.979	952.910	717.471
161.877	13.638	952.352	715.518
162.892	13.856	951.172	715.506
163.906	13.786	950.217	714.423
164.921	13.863	949.175	713.909
165.935	13.956	948.250	713.547
166.950	13.914	947.553	712.779
167.964	13.811	946.772	711.689
168.979	13.704	945.983	710.572
169.994	13.806	944.859	710.102
171.008	13.903	944.295	710.032
172.023	13.940	943.737	709.706
173.037	14.104	942.975	709.773
174.052	14.017	941.787	708.445
175.067	14.045	941.090	707.974
176.081	13.848	940.764	706.827
177.096	13.942	940.165	706.715
178.110	13.924	939.673	706.208
179.125	13.953	939.391	706.056
180.140	13.949	938.585	705.372
181.154	14.134	937.773	705.485
182.169	14.125	937.508	705.181
183.183	14.130	936.799	704.607
184.198	14.035	936.302	703.772
185.213	14.153	935.414	703.541
186.227	14.131	934.637	702.798
187.242	14.224	934.282	702.863
188.256	14.391	933.399	702.843
189.271	14.153	933.075	701.530
190.286	14.050	932.030	700.251
191.300	14.027	930.796	699.162
192.315	13.965	930.906	698.925
193.329	13.992	930.046	698.332
194.344	13.974	929.510	697.792
195.359	14.267	928.907	698.506
196.373	14.166	928.187	697.477
197.388	14.188	928.083	697.431
198.402	14.347	927.495	697.591
199.417	14.373	926.864	697.168
200.432	14.369	926.538	696.842
201.446	14.472	926.070	696.857
202.461	14.449	925.339	696.150
203.475	14.419	924.712	695.494
204.490	14.353	923.984	694.608
205.504	14.456	922.527	693.881
206.519	14.320	922.225	693.026
207.534	14.451	921.109	692.668
208.548	14.526	920.668	692.588
209.563	14.382	920.121	691.518
210.577	14.405	919.439	691.041
211.592	14.588	918.419	690.970
212.607	14.572	917.629	690.250
213.621	14.558	917.221	689.822
214.636	14.547	916.752	689.363
215.650	14.735	915.463	689.110
216.665	14.513	915.548	688.196
217.680	14.615	914.819	688.006
218.694	14.571	914.287	687.367
219.709	14.780	913.038	687.226
220.723	14.619	912.728	686.272
221.738	14.594	911.929	685.507
222.753	14.642	911.405	685.250
223.767	14.693	911.016	685.104
224.782	14.758	910.323	684.790
225.796	14.897	909.515	684.691
226.811	14.825	908.722	683.738
227.826	14.804	908.181	683.182
228.840	14.756	907.455	682.379
229.855	14.702	906.569	681.432
230.869	14.802	906.026	681.372
231.884	14.715	905.404	680.490
232.899	14.603	904.630	679.392
233.913	14.765	903.502	679.144
234.928	14.659	903.378	678.562
235.942	14.739	902.580	678.227
236.957	14.838	901.900	678.055
237.972	14.633	901.666	676.990
238.986	14.684	900.879	676.547
240.001	14.746	900.374	676.355
241.015	14.709	899.888	675.784
242.030	14.808	899.167	675.581
243.045	14.752	898.736	674.970
244.059	14.844	897.814	674.591
245.074	14.857	897.439	674.301
246.088	14.884	896.525	673.664
247.103	14.856	895.780	672.931
248.117	14.993	895.337	673.090
249.132	15.155	894.963	673.403
250.147	15.229	894.328	673.163
251.161	15.190	893.528	672.344
252.176	15.329	893.174	672.576
253.190	15.291	892.448	671.815
254.205	15.276	891.699	671.132
255.220	15.269	891.074	670.574
256.234	15.419	890.034	670.331
257.249	15.398	889.473	669.768
258.263	15.263	888.943	668.768
259.278	15.354	888.607	668.822
260.293	15.305	887.947	668.068
261.307	15.403	887.348	667.950
262.322	15.439	886.893	667.691
263.336	15.466	885.655	666.808
264.351	15.465	885.459	666.598
265.366	15.467	884.744	666.008
266.380	15.550	883.964	665.690
267.395	15.495	883.060	664.732
268.409	15.425	882.515	663.986
269.424	15.553	881.547	663.704
270.439	15.457	880.942	662.812
271.453	15.480	880.277	662.345
272.468	15.340	879.901	661.451
273.482	15.399	879.755	661.516
274.497	15.541	878.512	661.079
275.512	15.490	878.123	660.528
276.526	15.521	877.733	660.300
277.541	15.579	877.378	660.203
278.555	15.581	876.936	659.818
279.570	15.593	876.157	659.221
280.585	15.717	875.112	658.862
281.599	15.671	874.097	657.858
282.614	15.714	873.190	657.287
283.628	15.673	872.901	656.852
284.643	15.558	872.721	656.208
285.657	15.541	872.292	655.763
286.672	15.719	871.128	655.522
287.687	15.885	870.412	655.573
288.701	15.707	870.103	654.587
289.716	15.552	869.829	653.723
290.730	15.770	868.997	653.884
291.745	15.749	868.552	653.413
292.760	15.958	867.375	653.277
293.774	15.904	867.022	652.745
294.789	15.975	866.466	652.543
295.803	16.036	865.448	651.957
296.818	15.819	864.995	650.716
297.833	15.929	863.843	650.220
298.847	15.806	863.984	649.793
299.862	15.798	863.729	649.512
300.876	16.030	862.718	649.588
301.891	15.891	862.258	648.648
302.906	16.041	861.794	648.821
303.920	16.014	861.396	648.358
304.935	16.094	860.551	647.973
305.949	16.004	859.925	647.099
306.964	16.179	859.143	647.126
307.979	16.124	858.568	646.423
308.993	16.399	857.783	646.827
310.008	16.158	857.010	645.268
311.022	16.179	857.020	645.297
312.037	16.045	856.414	644.269
313.052	16.037	855.788	643.711
314.066	16.074	854.929	643.153
315.081	16.078	854.492	642.780
316.095	16.046	853.989	642.223
317.110	16.057	853.420	641.783
318.125	15.996	853.050	641.213
319.139	16.153	852.522	641.358
320.154	16.118	852.180	640.909
321.168	16.010	851.726	640.103
322.183	16.161	851.059	640.116
323.197	16.159	850.656	639.749
324.212	16.134	850.230	639.277
325.227	16.160	849.350	638.659
326.241	16.152	848.706	638.086
327.256	16.244	847.992	637.840
328.270	16.111	847.757	637.104
329.285	16.059	847.395	636.580
330.300	16.307	846.245	636.597
331.314	16.232	845.892	635.992
332.329	16.305	845.662	636.037
333.343	16.409	845.066	635.924
334.358	16.393	844.543	635.416
335.373	16.326	844.430	635.021
336.387	16.345	844.294	634.933
337.402	16.423	843.768	634.775
338.416	16.439	843.660	634.697
339.431	16.558	842.754	634.407
340.446	16.513	842.407	633.922
341.460	16.516	842.022	633.585
342.475	16.545	841.657	633.363
343.489	16.543	841.054	632.848
344.504	16.719	840.520	633.046
345.519	16.636	840.281	632.501
346.533	16.723	839.485	632.168
347.548	16.696	838.737	631.448
348.562	16.650	838.652	631.158
349.577	16.628	837.801	630.380
350.592	16.599	837.360	629.883
351.606	16.590	836.716	629.311
352.621	16.576	836.047	628.701
353.635	16.609	835.469	628.333
354.650	16.663	834.594	627.821
355.665	16.653	834.170	627.408
356.679	16.749	833.217	626.991
357.694	16.731	832.921	626.645
358.708	16.654	832.324	625.857
359.723	16.744	831.777	625.724
360.738	16.675	831.653	625.318
361.752	16.876	830.599	625.214
362.767	16.932	830.017	624.927
363.781	16.904	829.603	624.455
364.796	17.067	828.652	624.282
365.810	17.078	828.889	624.449
366.825	17.070	828.281	623.904
367.840	17.059	827.791	623.441
368.854	17.028	827.446	623.010
369.869	17.012	826.832	622.434
370.883	17.239	826.010	622.594
371.898	17.081	826.131	622.049
372.913	17.028	825.679	621.459
373.927	17.291	825.086	621.921
374.942	17.183	824.780	621.241
375.956	17.153	824.440	620.822
376.971	17.267	823.589	620.543
377.986	17.149	823.598	620.060
379.000	17.275	823.137	620.119
380.015	17.234	822.536	619.462
381.029	17.356	821.724	619.239
382.044	17.310	821.144	618.583
383.059	17.455	820.301	618.417
384.073	17.424	820.118	618.113
385.088	17.203	819.428	616.735
386.102	17.281	818.818	616.504
387.117	17.151	818.499	615.739
388.132	17.368	817.994	616.091
389.146	17.286	817.235	615.167
390.161	17.295	817.095	615.042
391.175	17.223	816.694	614.426
392.190	17.435	815.752	614.425
393.205	17.254	815.932	613.852
394.219	17.312	814.829	613.180
395.234	17.218	814.927	612.860
396.248	17.210	814.230	612.254
397.263	17.209	813.805	611.874
398.278	17.261	813.181	611.539
399.292	17.266	812.684	611.128
400.307	17.258	812.238	610.712
401.321	17.192	811.861	610.136
402.336	17.441	811.220	610.495
403.350	17.407	811.133	610.252
404.365	17.408	810.645	609.835
405.380	17.440	810.353	609.677
406.394	17.624	809.327	609.507
407.409	17.543	808.997	608.916
408.423	17.632	808.766	609.005
409.438	17.606	808.383	608.571
410.453	17.674	807.947	608.433
411.467	17.868	807.408	608.665
412.482	17.824	806.934	608.095
413.496	17.797	806.852	607.884
414.511	17.841	806.401	607.648
415.526	17.765	806.256	607.213
416.540	17.747	805.587	606.591
417.555	17.605	805.555	606.011
418.569	17.730	804.631	605.706
419.584	17.778	804.159	605.467
420.599	17.860	803.741	605.388
421.613	111.320	1294.676	1475.905
422.628	95.997	1366.177	1476.043
