DTS Sentinel unit serial number:	SN413079Multiplexer serial number:	ORYXHardware model number:	OX4-SRSoftware version number:	ORYX F/W v4.00 Oryx Data Collector v3.7.2.0data status	okinstallation	princeton_trtdifferential loss correction	single-endedforward channel	channel 1reverse channel	N/Adate	2019/09/12time	19:35:34forward acquisition time	15.00reverse acquisition time	0.00gamma	496.2192k internal	0.2322k external	0.2322temperature offset calibration	1.0121default loss term (dB/km)	0.3790temperature slope calibration	1.0000multiplexer offset coefficient	1.0000multiplexer slope coefficient	1.0000fibre end	0.00T internal ref (°C)	32.19T ext. ref 1 (°C)	3.32T ext. ref 2 (°C)	26.65length (m)	temperature (°C)	Stokes	anti-Stokes-747.200	-200.000	-0.019	0.310
-746.185	-5.884	-0.571	-0.395
-745.171	-200.000	0.003	-0.638
-744.156	9.624	-0.743	0.569
-743.142	-200.000	-0.389	-0.001
-742.127	-35.796	0.344	-0.188
-741.112	173.543	0.193	-0.281
-740.098	587.485	-0.145	-0.362
-739.083	157.998	0.473	0.662
-738.069	97.454	-0.702	-0.815
-737.054	-200.000	0.124	0.590
-736.039	800.000	-0.200	0.616
-735.025	24.502	-0.084	-0.071
-734.010	-50.430	0.300	-0.143
-732.996	55.112	-0.500	-0.488
-731.981	-34.115	-0.451	-0.251
-730.966	-77.977	-0.609	-0.212
-729.952	-73.812	-0.328	-0.120
-728.937	219.232	0.478	-0.772
-727.923	-75.526	-0.717	0.258
-726.908	103.816	0.335	-0.397
-725.894	-35.674	0.317	-0.174
-724.879	227.592	-0.345	0.567
-723.864	-200.000	0.003	0.145
-722.850	131.393	-0.274	0.356
-721.835	-12.458	0.359	0.237
-720.821	338.645	0.448	-0.881
-719.806	27.887	0.173	-0.148
-718.791	-200.000	0.043	-0.297
-717.777	112.136	-0.265	-0.323
-716.762	-152.183	-0.901	0.066
-715.748	107.558	0.322	-0.386
-714.733	621.973	0.334	0.849
-713.718	350.004	-0.313	-0.624
-712.704	-200.000	0.036	0.522
-711.689	-200.000	-0.022	0.739
-710.675	-75.230	-0.950	-0.342
-709.660	-58.005	-0.805	-0.354
-708.645	-110.341	-0.480	0.101
-707.631	275.535	-0.341	0.610
-706.616	-44.110	-0.595	-0.301
-705.602	-101.862	0.836	-0.204
-704.587	-67.028	-0.654	0.260
-703.572	-200.000	0.145	-1.058
-702.558	434.663	-0.246	-0.540
-701.543	110.383	0.132	-0.160
-700.529	-200.000	-0.011	0.196
-699.514	-70.585	-0.657	0.251
-698.499	498.827	-0.310	0.721
-697.485	468.958	0.380	0.861
-696.470	399.560	0.117	-0.247
-695.456	-200.000	-0.088	-0.769
-694.441	143.930	0.174	0.233
-693.426	116.756	-0.218	0.269
-692.412	-200.000	-0.005	0.551
-691.397	-200.000	-0.008	0.106
-690.383	393.826	0.191	0.401
-689.368	-16.840	-0.663	-0.422
-688.354	800.000	-0.399	1.303
-687.339	800.000	-0.193	0.619
-686.324	73.080	-0.229	0.241
-685.310	-55.108	0.266	0.121
-684.295	724.262	0.058	0.155
-683.281	-192.256	-0.990	0.009
-682.266	-42.242	0.446	-0.230
-681.251	-75.607	-0.457	-0.164
-680.237	-200.000	0.020	0.493
-679.222	183.487	0.702	1.046
-678.208	-164.865	-0.363	0.016
-677.193	-1.323	-0.636	-0.453
-676.178	124.511	0.632	-0.801
-675.164	-62.074	0.242	-0.102
-674.149	-200.000	0.047	0.288
-673.135	252.397	-0.346	0.594
-672.120	-57.779	0.630	-0.278
-671.105	151.220	0.256	-0.351
-670.091	-58.702	-0.514	-0.224
-669.076	-112.713	0.808	0.162
-668.062	-71.940	1.141	0.428
-667.047	136.221	0.139	-0.183
-666.032	-93.501	-0.448	-0.125
-665.018	-20.519	-0.319	0.197
-664.003	282.467	-0.289	-0.522
-662.989	399.760	0.158	0.333
-661.974	-117.827	-0.628	-0.114
-660.959	-100.005	-0.722	0.182
-659.945	-61.970	-0.487	0.205
-658.930	-200.000	-0.002	0.052
-657.916	380.001	0.082	0.170
-656.901	222.597	-0.255	-0.413
-655.886	83.974	0.044	0.049
-654.872	-124.196	0.756	-0.119
-653.857	110.721	-0.484	-0.586
-652.843	102.008	-0.418	-0.491
-651.828	138.069	0.256	0.338
-650.814	-1.714	-0.568	-0.403
-649.799	-200.000	-0.084	-0.577
-648.784	495.358	-0.063	0.146
-647.770	263.046	-0.192	0.336
-646.755	785.939	-0.039	-0.108
-645.741	-42.791	-0.569	-0.291
-644.726	800.000	-0.042	0.130
-643.711	-121.814	0.303	0.050
-642.697	-200.000	-0.152	-0.749
-641.682	-200.000	0.066	-0.496
-640.668	-45.881	-0.619	0.307
-639.653	-31.171	0.691	0.392
-638.638	200.371	0.377	0.584
-637.624	167.036	-0.447	0.638
-636.609	-200.000	0.007	0.276
-635.595	-96.096	0.228	-0.061
-634.580	800.000	-0.125	-0.401
-633.565	-200.000	0.091	0.484
-632.551	-200.000	0.112	-0.583
-631.536	105.697	-0.208	-0.248
-630.522	-9.430	0.681	-0.457
-629.507	-59.397	-1.047	-0.453
-628.492	-25.383	-0.352	-0.209
-627.478	112.048	0.310	0.377
-626.463	-56.868	0.155	0.069
-625.449	-66.943	-0.367	-0.146
-624.434	155.697	-0.483	-0.669
-623.419	-122.491	0.579	0.095
-622.405	-4.862	0.656	0.455
-621.390	-125.926	0.669	-0.101
-620.376	582.251	0.273	-0.674
-619.361	-61.949	0.371	-0.156
-618.346	6.479	-0.316	0.236
-617.332	27.737	-0.550	-0.466
-616.317	-71.055	0.518	-0.196
-615.303	-200.000	0.050	-0.254
-614.288	259.712	-0.232	-0.402
-613.273	118.149	-0.388	-0.481
-612.259	183.745	0.314	0.467
-611.244	-43.597	0.555	0.282
-610.230	-200.000	-0.017	-0.331
-609.215	-200.000	0.151	0.707
-608.201	125.951	-0.570	-0.724
-607.186	-94.380	1.271	0.349
-606.171	729.998	0.083	0.222
-605.157	-70.009	-1.439	-0.551
-604.142	-44.847	0.688	0.344
-603.128	-200.000	-0.014	1.253
-602.113	51.914	0.041	-0.039
-601.098	-108.906	0.878	-0.188
-600.084	-116.132	-0.517	-0.097
-599.069	-200.000	-0.026	0.337
-598.055	-200.000	-0.045	0.293
-597.040	-47.728	0.547	0.266
-596.025	800.000	-0.101	0.416
-595.011	-26.733	-0.215	0.126
-593.996	-156.860	-0.370	-0.023
-592.982	213.860	0.247	0.393
-591.967	-3.563	0.488	0.341
-590.952	-200.000	0.102	-0.690
-589.938	-93.032	0.157	0.044
-588.923	310.586	-0.434	-0.816
-587.909	232.479	-0.432	0.712
-586.894	-179.126	0.749	0.017
-585.879	-156.566	0.388	-0.024
-584.865	-1.623	-0.472	-0.334
-583.850	-200.000	-0.059	0.268
-582.836	-66.302	-0.323	-0.129
-581.821	-31.341	0.332	0.188
-580.806	330.640	0.097	0.188
-579.792	-80.508	-0.192	-0.064
-578.777	-34.555	-0.092	0.051
-577.763	-13.037	-0.323	0.211
-576.748	-200.000	0.200	-1.202
-575.733	241.444	0.209	-0.351
-574.719	7.381	0.418	0.314
-573.704	-66.545	-0.704	0.280
-572.690	410.795	-0.135	0.286
-571.675	6.610	0.550	0.410
-570.661	122.856	0.261	0.328
-569.646	-200.000	0.077	-0.499
-568.631	42.916	0.484	-0.443
-567.617	42.512	0.470	0.429
-566.602	-60.853	0.285	0.121
-565.588	-44.402	-0.479	-0.240
-564.573	800.000	-0.122	-0.393
-563.558	800.000	-0.020	-0.056
-562.544	-200.000	-0.096	0.617
-561.529	325.720	0.087	0.167
-560.515	-200.000	0.183	0.901
-559.500	-65.787	0.133	-0.053
-558.485	133.918	-0.215	-0.280
-557.471	199.030	-0.495	0.760
-556.456	-94.806	-1.499	0.408
-555.442	270.914	-0.260	-0.459
-554.427	-43.470	0.289	-0.146
-553.412	-5.529	-0.273	-0.188
-552.398	508.871	0.282	-0.657
-551.383	-200.000	-0.001	0.153
-550.369	104.595	0.019	-0.022
-549.354	-90.481	0.390	0.113
-548.339	-24.176	-0.857	-0.513
-547.325	-93.380	-0.167	0.046
-546.310	-33.101	0.621	0.345
-545.296	-31.393	-0.103	0.058
-544.281	-39.583	-0.503	-0.264
-543.266	686.293	0.098	-0.256
-542.252	63.552	0.302	0.304
-541.237	-22.760	-0.113	-0.068
-540.223	658.271	-0.208	0.536
-539.208	-200.000	-0.050	1.240
-538.193	125.458	-0.794	1.004
-537.179	-35.524	-0.473	0.258
-536.164	-200.000	0.004	-0.299
-535.150	-21.726	0.281	-0.172
-534.135	800.000	0.109	-0.446
-533.121	-200.000	-0.025	0.318
-532.106	15.680	-0.508	0.400
-531.091	-109.406	0.613	0.130
-530.077	-83.394	0.919	0.295
-529.062	800.000	-0.170	-0.735
-528.048	-145.547	0.135	-0.012
-527.033	-200.000	0.021	0.204
-526.018	-65.404	0.608	-0.245
-525.004	-162.245	-0.229	0.011
-523.989	-128.573	-0.604	0.086
-522.975	307.996	0.414	0.773
-521.960	-56.300	-0.327	-0.146
-520.945	-12.625	0.739	-0.483
-519.931	-53.520	0.512	0.235
-518.916	572.057	0.297	-0.726
-517.902	-74.108	0.749	0.272
-516.887	-200.000	0.038	0.314
-515.872	800.000	-0.155	-0.512
-514.858	-119.210	-1.020	-0.178
-513.843	-84.056	0.189	0.060
-512.829	-200.000	0.049	0.655
-511.814	-124.763	-0.139	0.022
-510.799	-75.338	-0.301	-0.107
-509.785	-200.000	-0.004	0.259
-508.770	-200.000	0.045	0.359
-507.756	-200.000	0.078	-0.838
-506.741	-200.000	0.064	-0.422
-505.726	-200.000	0.065	-0.818
-504.712	-164.918	-0.247	0.011
-503.697	-200.000	0.007	-0.120
-502.683	-29.080	0.581	-0.333
-501.668	-200.000	0.106	0.758
-500.653	800.000	-0.144	-0.521
-499.639	-104.161	0.430	-0.100
-498.624	146.969	0.285	-0.384
-497.610	-131.273	-0.663	0.088
-496.595	504.197	-0.259	0.599
-495.581	800.000	0.167	0.647
-494.566	71.305	0.632	-0.656
-493.551	586.904	-0.307	-0.755
-492.537	-124.730	-0.431	0.067
-491.522	-51.578	0.581	-0.271
-490.508	-96.748	-1.058	-0.278
-489.493	-147.002	-0.811	-0.070
-488.478	257.726	-0.150	-0.259
-487.464	663.346	-0.135	-0.349
-486.449	444.485	-0.321	0.705
-485.435	-93.990	1.207	0.332
-484.420	-200.000	-0.019	0.928
-483.405	-134.781	-0.577	-0.070
-482.391	151.492	0.249	-0.339
-481.376	-35.608	-0.418	0.227
-480.362	253.302	-0.152	-0.259
-479.347	-27.669	0.276	-0.160
-478.332	698.520	0.011	0.028
-477.318	-161.190	-0.428	-0.022
-476.303	-200.000	0.016	-0.181
-475.289	800.000	0.157	0.545
-474.274	24.918	0.861	0.714
-473.259	-138.767	0.404	-0.044
-472.245	328.811	-0.457	0.878
-471.230	4.606	0.457	-0.335
-470.216	-200.000	-0.030	-0.796
-469.201	-80.029	0.326	-0.109
-468.186	-84.646	0.597	-0.188
-467.172	102.333	0.812	0.949
-466.157	-158.754	-0.362	0.021
-465.143	407.578	-0.151	0.319
-464.128	-91.782	0.470	-0.133
-463.113	-200.000	-0.003	-0.554
-462.099	-200.000	-0.037	-0.328
-461.084	-200.000	-0.005	0.731
-460.070	82.030	0.623	0.675
-459.055	-82.258	0.380	0.124
-458.040	383.834	0.160	0.330
-457.026	-144.571	0.743	-0.069
-456.011	-146.399	-0.235	-0.021
-454.997	74.503	-0.144	0.152
-453.982	56.286	-1.039	-1.008
-452.968	800.000	0.197	0.652
-451.953	681.384	-0.127	0.331
-450.938	-39.103	-0.407	-0.214
-449.924	353.269	-0.081	-0.160
-448.909	-174.869	-0.560	-0.016
-447.895	-105.277	0.685	0.156
-446.880	227.800	-0.045	0.073
-445.865	132.980	0.514	-0.663
-444.851	-200.000	-0.095	-0.482
-443.836	-127.439	-0.506	-0.073
-442.822	-200.000	-0.053	0.682
-441.807	209.023	-0.283	-0.443
-440.792	33.095	0.470	-0.407
-439.778	-43.212	0.679	-0.343
-438.763	68.428	1.149	-1.176
-437.749	18.741	0.751	0.600
-436.734	800.000	0.180	0.733
-435.719	335.296	0.278	-0.538
-434.705	-46.151	-0.115	-0.056
-433.690	-200.000	-0.042	-0.393
-432.676	-117.428	-0.680	0.123
-431.661	-200.000	0.414	0.001
-430.646	-200.000	0.126	0.574
-429.632	-200.000	-0.133	-0.817
-428.617	170.121	0.498	-0.711
-427.603	-89.068	0.080	-0.024
-426.588	107.982	-0.533	0.634
-425.573	-123.030	0.458	-0.073
-424.559	173.367	-0.399	0.574
-423.544	-51.155	0.217	0.102
-422.530	-44.543	0.024	0.012
-421.515	239.570	-0.296	0.491
-420.500	800.000	0.108	0.411
-419.486	-171.641	-0.562	0.019
-418.471	-51.072	0.139	-0.065
-417.457	143.565	-0.066	0.087
-416.442	-183.492	-0.149	-0.003
-415.428	-74.094	-0.817	0.295
-414.413	-160.741	-0.520	0.028
-413.398	-3.946	0.541	-0.374
-412.384	46.929	-0.393	-0.365
-411.369	78.172	0.343	0.365
-410.355	11.982	0.522	-0.400
-409.340	-77.327	-0.877	-0.304
-408.325	800.000	-0.148	0.543
-407.311	350.623	-0.080	0.158
-406.296	188.401	-0.526	-0.785
-405.282	121.769	-0.201	0.250
-404.267	-178.974	0.307	0.007
-403.252	188.011	-0.730	-1.088
-402.238	80.946	0.407	-0.438
-401.223	279.773	-0.451	0.802
-400.209	800.000	0.086	0.261
-399.194	-200.000	-0.029	-0.367
-398.179	235.585	-0.208	-0.343
-397.165	763.703	-0.219	-0.592
-396.150	208.980	0.078	0.121
-395.136	-200.000	-0.009	0.111
-394.121	-25.046	0.216	-0.127
-393.106	-169.652	-0.256	0.009
-392.092	364.621	0.449	-0.900
-391.077	214.611	0.402	-0.635
-390.063	134.464	0.232	-0.300
-389.048	800.000	0.213	-0.719
-388.033	-92.873	0.435	-0.121
-387.019	151.743	-0.507	-0.688
-386.004	-200.000	0.044	-0.369
-384.990	-200.000	-0.185	-0.821
-383.975	84.509	-0.311	-0.339
-382.960	-200.000	-0.072	-0.600
-381.946	13.745	0.332	-0.257
-380.931	687.630	0.055	0.144
-379.917	-200.000	0.015	0.145
-378.902	-200.000	-0.019	-0.732
-377.888	-123.386	-0.562	-0.089
-376.873	255.804	-0.259	-0.443
-375.858	-200.000	-0.070	-0.752
-374.844	-194.742	0.386	0.003
-373.829	472.417	-0.098	-0.219
-372.815	-200.000	-0.085	-0.564
-371.800	-99.012	0.294	0.074
-370.785	-120.763	0.428	-0.072
-369.771	-200.000	-0.157	0.823
-368.756	45.958	0.483	0.445
-367.742	-182.147	0.930	0.017
-366.727	-94.631	-0.465	-0.126
-365.712	390.184	0.191	0.394
-364.698	-98.203	0.599	-0.153
-363.683	-19.805	0.344	0.211
-362.669	-200.000	0.036	-0.309
-361.654	751.430	-0.358	0.962
-360.639	-43.323	-0.505	-0.254
-359.625	-137.666	-0.710	0.079
-358.610	200.040	0.300	0.458
-357.596	-67.479	-0.720	-0.281
-356.581	239.303	0.078	-0.129
-355.566	-111.692	-0.499	-0.101
-354.552	800.000	0.106	-0.373
-353.537	127.145	0.188	0.237
-352.523	215.372	0.108	-0.171
-351.508	266.430	0.213	-0.371
-350.493	18.179	-0.623	0.495
-349.479	0.857	0.517	0.369
-348.464	15.377	-0.266	-0.208
-347.450	800.000	0.158	-0.470
-346.435	165.224	-0.322	0.452
-345.420	-200.000	-0.140	0.624
-344.406	6.058	-0.034	-0.025
-343.391	-11.201	-0.777	0.509
-342.377	-64.858	-0.339	0.137
-341.362	69.466	-0.638	0.653
-340.348	-64.776	0.131	-0.053
-339.333	328.008	-0.366	0.699
-338.318	-1.197	-0.557	0.391
-337.304	800.000	-0.186	-0.646
-336.289	-4.470	-0.661	0.454
-335.275	793.292	0.302	-0.827
-334.260	101.470	-0.242	-0.280
-333.245	800.000	0.215	0.659
-332.231	-149.103	1.188	0.095
-331.216	-31.138	-0.461	0.258
-330.202	-129.664	-0.424	0.058
-329.187	345.303	0.395	0.771
-328.172	12.826	-0.439	0.337
-327.158	265.668	-0.077	-0.133
-326.143	-58.406	0.166	0.072
-325.129	-152.494	-0.971	0.069
-324.114	60.996	0.172	-0.169
-323.099	-59.072	0.923	0.396
-322.085	219.615	-0.217	0.346
-321.070	-144.779	0.523	-0.048
-320.056	22.758	-0.474	-0.386
-319.041	-103.752	-0.114	0.027
-318.026	22.460	0.287	0.233
-317.012	800.000	-0.140	0.581
-315.997	-81.018	0.877	0.289
-314.983	-1.407	-0.275	0.193
-313.968	-113.569	0.248	-0.048
-312.953	800.000	-0.078	-0.273
-311.939	-44.147	0.784	0.391
-310.924	615.063	-0.243	0.604
-309.910	-117.346	-1.011	-0.182
-308.895	-200.000	0.015	0.349
-307.880	2.712	-0.341	0.245
-306.866	450.304	0.422	0.925
-305.851	-50.925	-0.657	-0.307
-304.837	-200.000	-0.025	0.128
-303.822	21.648	0.202	-0.164
-302.807	-200.000	-0.013	-0.339
-301.793	-75.786	-0.247	0.087
-300.778	-22.325	-0.273	-0.164
-299.764	209.775	0.407	-0.633
-298.749	-200.000	-0.000	0.009
-297.735	444.424	0.299	-0.651
-296.720	-200.000	-0.170	-0.858
-295.705	-200.000	-0.059	-0.314
-294.691	6.250	0.610	0.450
-293.676	785.374	-0.160	0.435
-292.662	800.000	0.253	0.717
-291.647	716.475	-0.364	0.959
-290.632	-200.000	0.109	-0.549
-289.618	103.438	0.331	0.386
-288.603	141.285	-0.168	0.221
-287.589	-158.037	-0.258	0.015
-286.574	-200.000	-0.007	0.042
-285.559	-43.044	0.324	0.163
-284.545	139.903	0.498	-0.652
-283.530	-200.000	-0.024	0.260
-282.516	-75.865	0.121	0.043
-281.501	-23.936	0.306	0.182
-280.486	800.000	-0.072	-0.231
-279.472	-154.978	0.202	0.013
-278.457	-122.677	-0.714	-0.115
-277.443	-178.001	0.571	-0.013
-276.428	6.485	0.409	0.301
-275.413	800.000	0.204	0.647
-274.399	301.007	-0.131	0.239
-273.384	110.526	-0.912	-1.088
-272.370	800.000	0.278	0.768
-271.355	90.030	-0.300	0.333
-270.340	200.758	-0.095	-0.145
-269.326	800.000	0.327	-0.896
-268.311	-105.466	-0.623	-0.140
-267.297	259.719	0.329	0.564
-266.282	74.459	-0.434	0.452
-265.267	465.452	-0.093	0.206
-264.253	120.505	0.336	-0.414
-263.238	-107.489	0.644	0.140
-262.224	165.718	0.257	0.361
-261.209	-200.000	0.199	0.957
-260.195	800.000	0.013	-0.045
-259.180	158.737	-0.153	-0.210
-258.165	288.484	-0.094	0.168
-257.151	-200.000	-0.047	0.481
-256.136	-42.258	-0.280	0.142
-255.122	387.849	-0.191	0.391
-254.107	-66.882	0.057	-0.022
-253.092	-115.411	0.663	0.124
-252.078	800.000	0.038	0.148
-251.063	-200.000	0.090	-0.570
-250.049	-95.028	-0.231	0.062
-249.034	320.669	-0.184	-0.346
-248.019	57.896	0.556	-0.539
-247.005	78.065	0.223	-0.236
-245.990	231.592	-0.374	-0.607
-244.976	-102.681	-0.799	-0.189
-243.961	-14.531	0.564	0.360
-242.946	22.307	-0.221	-0.179
-241.932	272.680	-0.284	-0.497
-240.917	-63.565	0.257	0.105
-239.903	596.558	0.349	0.856
-238.888	-98.556	1.028	0.260
-237.873	-200.000	-0.010	-0.236
-236.859	800.000	-0.131	-0.420
-235.844	-200.000	0.015	-0.327
-234.830	62.638	-0.136	0.135
-233.815	-143.573	0.363	-0.034
-232.800	445.097	0.511	1.112
-231.786	800.000	-0.077	0.227
-230.771	363.113	0.187	-0.372
-229.757	305.318	-0.291	0.535
-228.742	800.000	0.279	-0.827
-227.727	222.548	0.471	-0.751
-226.713	-156.975	1.402	0.085
-225.698	-95.968	-0.565	-0.149
-224.684	46.249	-0.438	-0.401
-223.669	-104.626	-0.128	-0.029
-222.655	-52.312	0.958	0.439
-221.640	-200.000	-0.035	-0.160
-220.625	-200.000	-0.007	-0.642
-219.611	-159.310	-0.567	-0.031
-218.596	85.183	0.267	0.290
-217.582	43.777	0.132	-0.120
-216.567	-175.785	-0.122	-0.003
-215.552	800.000	0.334	-1.087
-214.538	-200.000	-0.171	0.912
-213.523	663.939	-0.147	-0.376
-212.509	-158.835	0.318	0.018
-211.494	-134.640	0.512	0.062
-210.479	-200.000	0.002	-0.241
-209.465	64.749	0.356	0.355
-208.450	56.265	0.164	0.158
-207.436	53.087	-0.191	-0.181
-206.421	-200.000	-0.186	-1.687
-205.406	31.334	-0.336	-0.286
-204.392	64.782	-0.580	0.579
-203.377	-200.000	-0.143	0.787
-202.363	-200.000	0.008	0.127
-201.348	-200.000	0.039	0.201
-200.333	-200.000	-0.054	-0.312
-199.319	-21.580	0.788	-0.475
-198.304	-200.000	0.108	0.629
-197.290	-200.000	0.064	-0.623
-196.275	800.000	-0.073	-0.256
-195.260	64.257	-0.831	-0.828
-194.246	800.000	-0.250	0.806
-193.231	190.916	0.193	0.286
-192.217	-158.209	-0.573	0.033
-191.202	-87.893	-0.346	-0.103
-190.187	274.936	-0.238	0.417
-189.173	-200.000	-0.097	0.593
-188.158	800.000	-0.155	0.670
-187.144	144.522	-0.265	0.350
-186.129	54.717	-0.284	0.270
-185.114	-200.000	0.006	-0.651
-184.100	96.398	0.484	0.548
-183.085	87.312	-0.487	0.532
-182.071	-98.824	0.317	0.080
-181.056	-128.265	0.534	0.075
-180.042	50.952	-0.481	0.451
-179.027	-200.000	0.012	-0.999
-178.012	-82.018	0.662	-0.214
-176.998	-15.413	-0.397	-0.251
-175.983	318.447	-0.400	-0.749
-174.969	-152.764	-0.754	0.053
-173.954	-35.643	-0.905	-0.485
-172.939	39.649	-0.487	-0.431
-171.925	-112.020	0.422	0.084
-170.910	800.000	0.079	-0.283
-169.896	115.242	0.360	0.434
-168.881	-18.229	-0.613	0.379
-167.866	-98.893	0.598	0.150
-166.852	68.543	-0.422	-0.428
-165.837	117.713	-0.342	0.415
-164.823	388.466	0.214	0.438
-163.808	-156.347	-0.530	0.033
-162.793	57.517	0.462	-0.446
-161.779	-200.000	-0.082	0.513
-160.764	-200.000	0.038	-0.364
-159.750	596.249	-0.057	-0.140
-158.735	-105.419	-0.920	-0.207
-157.720	800.000	-0.060	-0.187
-156.706	-45.191	-0.119	0.059
-155.691	800.000	0.165	0.589
-154.677	188.529	-0.272	-0.401
-153.662	-200.000	0.106	0.687
-152.647	-114.427	0.520	-0.099
-151.633	-178.697	-0.655	0.015
-150.618	80.183	0.481	0.511
-149.604	69.303	-0.635	-0.645
-148.589	-118.553	0.244	0.043
-147.574	231.753	-0.703	-1.138
-146.560	225.862	-0.328	-0.525
-145.545	15.643	0.321	0.249
-144.531	-87.203	-0.845	0.253
-143.516	-58.969	0.448	0.191
-142.502	-136.796	0.558	-0.063
-141.487	-200.000	0.032	0.167
-140.472	314.139	0.115	-0.213
-139.458	-200.000	0.024	0.397
-138.443	-47.058	0.696	-0.335
-137.429	-200.000	0.055	0.634
-136.414	-89.161	-0.339	-0.099
-135.399	-52.168	-0.434	0.198
-134.385	-4.177	-0.369	0.252
-133.370	800.000	-0.175	0.529
-132.356	146.126	-0.206	0.273
-131.341	-21.117	0.592	0.357
-130.326	72.673	-0.595	-0.613
-129.312	-200.000	0.020	0.511
-128.297	-56.803	0.360	0.157
-127.283	-30.910	0.149	0.083
-126.268	-61.068	-0.139	-0.058
-125.253	68.914	-0.223	0.226
-124.239	800.000	-0.159	-0.595
-123.224	-200.000	0.045	-0.505
-122.210	-52.847	0.436	0.198
-121.195	185.636	-0.060	-0.089
-120.180	-39.658	-1.024	0.528
-119.166	-200.000	0.085	-0.666
-118.151	33.253	0.525	0.449
-117.137	741.590	0.154	-0.408
-116.122	25.675	0.146	-0.120
-115.107	-113.048	-0.324	-0.063
-114.093	747.801	-0.092	-0.243
-113.078	-200.000	-0.235	1.332
-112.064	800.000	-0.321	-1.096
-111.049	-200.000	-0.013	0.166
-110.034	-180.245	-0.114	-0.002
-109.020	800.000	-0.067	0.284
-108.005	-200.000	-0.053	0.673
-106.991	689.750	0.215	-0.554
-105.976	-6.399	-0.623	0.419
-104.962	-73.183	-0.363	-0.131
-103.947	-62.210	0.079	-0.032
-102.932	800.000	0.116	-0.369
-101.918	31.029	-0.171	-0.144
-100.903	800.000	0.115	-0.433
-99.889	-118.743	0.547	-0.095
-98.874	-200.000	0.092	-0.899
-97.859	800.000	-0.377	1.038
-96.845	141.392	0.215	-0.280
-95.830	-122.261	-0.617	0.099
-94.816	176.208	-0.084	0.120
-93.801	800.000	0.241	0.784
-92.786	107.474	-0.297	-0.348
-91.772	463.873	-0.202	0.445
-90.757	53.263	0.170	0.161
-89.743	-98.421	1.212	-0.306
-88.728	-110.114	-0.389	0.080
-87.713	-63.016	-0.663	-0.270
-86.699	-121.226	0.685	-0.113
-85.684	800.000	-0.061	0.202
-84.670	155.768	-0.148	-0.201
-83.655	-200.000	0.034	-0.337
-82.640	-200.000	0.009	-0.069
-81.626	12.665	0.656	-0.498
-80.611	-119.564	-0.855	0.146
-79.597	241.047	-0.120	0.197
-78.582	-153.798	-0.324	0.022
-77.567	-54.510	-0.156	-0.069
-76.553	41.177	-0.422	-0.375
-75.538	800.000	0.039	0.118
-74.524	-94.693	-0.210	0.056
-73.509	272.079	-0.111	-0.192
-72.494	55.033	-0.643	0.611
-71.480	-112.383	0.593	0.117
-70.465	-112.703	-0.494	-0.097
-69.451	-63.362	1.217	0.493
-68.436	-200.000	-0.072	-0.416
-67.422	-92.765	0.556	-0.153
-66.407	269.946	0.121	0.209
-65.392	4.490	-0.240	0.173
-64.378	-200.000	-0.032	0.395
-63.363	2.548	-0.128	-0.091
-62.349	141.575	0.317	-0.413
-61.334	49.300	-1.088	-1.006
-60.319	49.640	0.645	0.598
-59.305	209.776	-0.972	-1.499
-58.290	-200.000	0.011	1.430
-57.276	800.000	0.565	1.629
-56.261	-200.000	96.205	602.880
-55.246	673.785	1357.174	3463.212
-54.232	204.043	2520.054	3838.908
-53.217	120.476	2115.907	2584.644
-52.203	44.010	1589.039	1432.269
-51.188	35.838	1329.256	1149.504
-50.173	32.524	1289.009	1095.417
-49.159	56.673	1338.432	1280.917
-48.144	57.341	1354.414	1300.112
-47.130	35.868	1313.090	1135.517
-46.115	32.343	1296.095	1100.201
-45.100	32.160	1291.211	1094.949
-44.086	32.323	1288.304	1093.388
-43.071	31.956	1286.569	1089.737
-42.057	31.971	1284.032	1087.632
-41.042	32.218	1280.984	1086.437
-40.027	32.145	1280.572	1085.624
-39.013	32.176	1279.452	1084.808
-37.998	31.802	1277.871	1081.267
-36.984	31.982	1275.365	1080.141
-35.969	32.499	1271.484	1079.775
-34.954	32.268	1271.622	1078.527
-33.940	32.421	1268.698	1076.878
-32.925	32.348	1269.028	1076.701
-31.911	32.276	1268.552	1075.839
-30.896	32.308	1265.562	1073.447
-29.881	32.329	1264.318	1072.467
-28.867	32.290	1263.934	1071.874
-27.852	32.230	1262.514	1070.290
-26.838	32.104	1260.423	1067.758
-25.823	32.180	1259.315	1067.205
-24.809	32.159	1258.271	1066.161
-23.794	32.221	1256.393	1064.880
-22.779	32.358	1255.129	1064.538
-21.765	32.385	1254.009	1063.702
-20.750	32.263	1253.347	1062.407
-19.736	32.142	1250.837	1059.553
-18.721	32.141	1249.361	1058.255
-17.706	32.072	1249.101	1057.607
-16.692	31.965	1247.815	1055.873
-15.677	32.082	1246.497	1055.372
-14.663	32.129	1246.323	1055.449
-13.648	32.194	1245.122	1054.752
-12.633	32.098	1244.199	1053.393
-11.619	32.248	1242.661	1052.886
-10.604	32.133	1241.627	1051.330
-9.590	32.209	1240.118	1050.431
-8.575	32.130	1239.347	1049.295
-7.560	32.284	1239.157	1049.952
-6.546	32.055	1238.824	1048.350
-5.531	32.122	1237.168	1047.279
-4.517	32.210	1236.701	1047.333
-3.502	32.088	1235.846	1045.890
-2.487	32.262	1234.643	1045.801
-1.473	32.015	1231.005	1041.308
-0.458	30.485	1215.557	1019.805
0.556	27.940	1198.275	981.128
1.571	24.136	1203.293	964.594
2.586	22.999	1216.902	969.185
3.600	22.579	1205.706	957.902
4.615	16.783	1135.452	872.251
5.629	7.771	1060.074	770.769
6.644	3.652	1039.669	736.256
7.659	3.586	1036.550	733.671
8.673	2.950	1037.007	730.906
9.688	3.094	1034.077	729.459
10.702	3.665	1033.630	731.783
11.717	9.269	1041.375	763.894
12.731	18.588	1054.539	818.136
13.746	23.651	1060.501	846.912
14.761	24.071	1060.315	848.688
15.775	23.873	1060.235	847.604
16.790	23.511	1059.029	844.842
17.804	23.347	1057.338	842.641
18.819	23.633	1056.812	843.503
19.834	23.654	1056.605	843.364
20.848	23.198	1057.093	841.512
21.863	23.261	1056.326	841.127
22.877	23.531	1054.222	840.658
23.892	22.870	1055.194	838.219
24.907	22.864	1053.947	837.129
25.921	22.852	1053.044	836.279
26.936	22.843	1052.209	835.499
27.950	22.896	1049.927	833.864
28.965	22.653	1048.646	831.626
29.980	23.033	1048.129	832.936
30.994	23.358	1046.317	832.948
32.009	23.129	1045.699	831.307
33.023	23.189	1044.539	830.594
34.038	22.845	1043.333	827.948
35.053	22.856	1043.269	827.877
36.067	22.915	1041.411	826.606
37.082	23.059	1040.681	826.627
38.096	23.065	1040.115	826.128
39.111	23.315	1039.698	826.891
40.126	23.083	1038.512	824.794
41.140	22.875	1036.320	822.012
42.155	22.717	1034.465	819.733
43.169	22.479	1034.235	818.371
44.184	22.399	1032.422	816.495
45.199	22.462	1032.278	816.601
46.213	22.595	1032.270	817.141
47.228	23.264	1032.081	820.016
48.242	23.049	1032.037	818.913
49.257	23.409	1029.619	818.588
50.271	23.166	1029.699	817.455
51.286	23.587	1028.447	818.332
52.301	23.511	1027.536	817.184
53.315	23.219	1026.685	815.091
54.330	22.864	1026.257	813.045
55.344	22.805	1025.226	811.883
56.359	22.912	1023.372	810.834
57.374	22.622	1024.224	810.104
58.388	22.885	1021.946	809.437
59.403	22.644	1021.224	807.691
60.417	22.849	1020.289	807.816
61.432	22.470	1020.086	805.854
62.447	22.573	1019.137	805.503
63.461	22.642	1018.470	805.216
64.476	22.610	1017.047	803.874
65.490	22.385	1016.794	802.580
66.505	22.690	1016.343	803.539
67.520	22.513	1016.209	802.560
68.534	22.210	1014.998	800.154
69.549	21.888	1014.316	798.080
70.563	22.145	1012.321	797.603
71.578	21.795	1011.258	795.110
72.593	22.056	1009.068	794.500
73.607	21.819	1010.024	794.107
74.622	21.891	1009.717	794.123
75.636	22.203	1008.680	794.648
76.651	22.322	1007.723	794.358
77.666	22.234	1007.521	793.734
78.680	22.341	1006.411	793.271
79.695	22.415	1006.075	793.271
80.709	22.235	1006.261	792.533
81.724	22.329	1005.017	791.907
82.739	22.653	1004.533	792.912
83.753	23.150	1003.954	794.619
84.768	23.481	1004.553	796.508
85.782	23.692	1002.895	796.071
86.797	23.551	1002.344	794.931
87.812	23.373	1001.475	793.374
88.826	23.232	1000.926	792.239
89.841	23.343	1000.915	792.658
90.855	23.453	999.148	791.681
91.870	23.691	997.345	791.239
92.884	23.534	997.148	790.313
93.899	23.482	994.989	788.304
94.914	23.447	994.774	787.907
95.928	23.315	993.999	786.637
96.943	23.389	993.117	786.200
97.957	23.125	991.081	783.347
98.972	23.122	991.197	783.357
99.987	23.541	990.876	784.889
101.001	23.556	989.198	783.554
102.016	23.075	989.780	781.822
103.030	23.278	988.142	781.354
104.045	23.456	987.776	781.782
105.060	23.060	986.448	778.918
106.074	22.822	985.704	777.212
107.089	22.790	984.691	776.202
108.103	22.739	982.973	774.559
109.118	22.453	982.112	772.556
110.133	22.488	980.933	771.715
111.147	22.461	979.185	770.154
112.162	22.221	978.849	768.772
113.176	22.391	978.114	768.867
114.191	22.508	978.507	769.618
115.206	22.472	976.631	767.921
116.220	22.604	975.558	767.584
117.235	22.308	974.110	765.088
118.249	22.281	973.328	764.291
119.264	22.146	972.798	763.220
120.279	21.920	972.426	761.878
121.293	21.874	971.228	760.674
122.308	22.192	969.844	760.896
123.322	21.918	968.867	758.879
124.337	21.827	968.543	758.165
125.352	22.007	967.464	758.032
126.366	21.813	967.034	756.789
127.381	22.199	967.133	758.466
128.395	22.350	965.823	758.021
129.410	22.344	963.669	756.239
130.424	22.493	963.003	756.288
131.439	22.680	962.761	756.834
132.454	22.490	962.851	756.021
133.468	22.881	961.164	756.305
134.483	22.521	960.957	754.536
135.497	22.899	960.086	755.400
136.512	22.787	959.508	754.400
137.527	22.833	957.167	752.688
138.541	22.711	957.837	752.628
139.556	22.404	957.959	751.349
140.570	23.153	956.336	753.198
141.585	23.230	956.073	753.252
142.600	23.370	954.554	752.583
143.614	23.544	954.541	753.247
144.629	23.455	954.382	752.677
145.643	23.358	952.609	750.801
146.658	23.518	951.359	750.428
147.673	23.274	950.259	748.461
148.687	22.681	949.746	745.485
149.702	22.752	947.968	744.322
150.716	22.561	948.852	744.143
151.731	23.027	947.890	745.288
152.746	22.902	946.547	743.639
153.760	22.979	946.082	743.533
154.775	23.171	944.373	742.931
155.789	23.329	944.602	743.707
156.804	23.248	943.167	742.174
157.819	23.243	943.024	741.974
158.833	23.637	941.730	742.538
159.848	23.602	942.108	742.626
160.862	23.279	941.377	740.634
161.877	23.231	938.971	738.475
162.892	23.052	937.751	736.704
163.906	22.693	936.996	734.551
164.921	22.574	936.705	733.763
165.935	22.841	935.533	733.889
166.950	22.805	935.529	733.671
167.964	22.838	934.142	732.657
168.979	22.663	933.838	731.627
169.994	22.604	933.057	730.705
171.008	22.796	931.930	730.551
172.023	23.231	931.553	731.990
173.037	23.485	929.187	731.114
174.052	23.333	929.199	730.434
175.067	22.813	928.742	727.865
176.081	22.517	927.565	725.658
177.096	22.390	927.001	724.634
178.110	22.451	926.285	724.260
179.125	22.429	926.147	723.994
180.140	23.144	925.341	726.237
181.154	23.152	925.181	726.081
182.169	23.225	925.747	726.760
183.183	23.287	924.637	726.077
184.198	23.563	923.122	725.954
185.213	23.187	922.402	723.787
186.227	23.179	922.388	723.678
187.242	23.311	922.248	724.044
188.256	23.579	920.702	723.862
189.271	23.435	921.101	723.524
190.286	22.980	919.435	720.298
191.300	22.567	918.352	717.703
192.315	21.811	917.767	714.105
193.329	22.174	916.787	714.755
194.344	22.447	916.672	715.712
195.359	22.671	916.851	716.700
196.373	23.040	916.085	717.535
197.388	23.179	916.008	717.974
198.402	23.328	915.534	718.142
199.417	24.003	914.692	720.150
200.432	23.706	914.614	718.827
201.446	23.888	913.492	718.613
202.461	23.871	912.701	717.861
203.475	23.780	911.379	716.389
204.490	23.189	910.752	713.453
205.504	22.941	910.369	712.089
206.519	22.959	910.129	711.912
207.534	23.043	909.238	711.489
208.548	23.382	908.637	712.319
209.563	22.936	909.097	710.823
210.577	23.193	907.769	710.754
211.592	23.670	907.085	712.069
212.607	23.668	907.050	711.972
213.621	23.948	905.245	711.612
214.636	23.570	904.503	709.452
215.650	23.672	903.918	709.338
216.665	23.769	903.057	708.987
217.680	23.655	903.036	708.454
218.694	23.819	901.891	708.147
219.709	23.310	901.694	705.901
220.723	23.584	900.805	706.236
221.738	23.224	899.932	704.054
222.753	23.378	899.517	704.280
223.767	23.273	899.737	703.973
224.782	23.482	900.030	704.972
225.796	23.723	898.282	704.495
226.811	23.036	897.728	701.274
227.826	22.805	897.241	699.915
228.840	23.060	895.017	699.128
229.855	23.230	893.591	698.624
230.869	23.021	894.447	698.403
231.884	22.951	894.894	698.416
232.899	23.181	892.463	697.363
233.913	23.006	892.522	696.657
234.928	22.695	891.691	694.721
235.942	22.703	890.799	693.999
236.957	22.665	890.274	693.376
237.972	22.703	890.093	693.327
238.986	22.715	888.776	692.284
240.001	22.399	889.461	691.517
241.015	22.849	888.321	692.334
242.030	22.799	888.265	692.033
243.045	22.881	888.426	692.420
244.059	23.058	886.917	691.872
245.074	22.805	886.698	690.652
246.088	23.416	886.079	692.494
247.103	23.653	884.570	692.181
248.117	23.497	884.874	691.748
249.132	24.083	885.709	694.624
250.147	24.200	885.523	694.877
251.161	24.712	884.956	696.363
252.176	24.730	883.406	695.153
253.190	24.402	883.570	693.944
254.205	24.683	882.607	694.220
255.220	24.499	881.829	692.833
256.234	24.441	881.620	692.379
257.249	24.626	880.431	692.103
258.263	24.004	879.434	688.849
259.278	24.286	878.219	688.927
260.293	24.579	878.363	690.111
261.307	24.486	878.974	690.170
262.322	24.542	877.991	689.555
263.336	24.245	877.815	688.207
264.351	24.128	875.968	686.250
265.366	23.782	875.289	684.323
266.380	24.220	874.898	685.645
267.395	24.371	873.753	685.267
268.409	24.520	872.705	684.956
269.424	23.963	873.275	683.204
270.439	24.265	872.050	683.340
271.453	24.042	871.451	681.956
272.468	24.104	871.208	681.945
273.482	24.180	870.194	681.380
274.497	24.440	869.802	682.008
275.512	24.367	869.262	681.246
276.526	24.225	869.266	680.644
277.541	24.435	868.019	680.410
278.555	24.621	868.252	681.240
279.570	24.806	867.693	681.447
280.585	24.476	866.478	679.179
281.599	24.254	866.066	677.951
282.614	23.841	864.843	675.365
283.628	23.975	864.499	675.544
284.643	23.999	863.664	674.922
285.657	24.045	862.800	674.364
286.672	24.214	861.951	674.280
287.687	24.221	862.057	674.330
288.701	24.255	861.895	674.270
289.716	24.023	861.167	672.763
290.730	23.987	861.036	672.466
291.745	23.971	860.123	671.633
292.760	24.315	859.976	672.758
293.774	24.660	859.577	673.686
294.789	24.690	858.433	672.842
295.803	24.433	857.667	671.218
296.818	24.241	856.561	669.570
297.833	24.258	855.752	668.945
298.847	23.967	856.293	668.215
299.862	24.285	855.041	668.371
300.876	24.685	854.308	669.237
301.891	24.604	854.402	668.949
302.906	24.841	854.140	669.571
303.920	24.962	853.954	669.818
304.935	25.297	853.209	670.426
305.949	24.627	852.254	667.116
306.964	24.319	852.293	665.938
307.979	24.602	851.078	665.984
308.993	24.635	850.958	665.953
310.008	24.795	850.549	666.168
311.022	24.668	850.057	665.255
312.037	24.309	848.526	662.660
313.052	24.261	847.922	661.956
314.066	24.094	846.405	660.091
315.081	23.728	846.489	658.744
316.095	24.265	845.590	659.971
317.110	23.882	845.716	658.594
318.125	23.557	845.683	657.307
319.139	23.449	844.028	655.561
320.154	23.500	843.402	655.206
321.168	23.920	842.894	656.303
322.183	23.876	842.169	655.520
323.197	24.348	841.582	656.741
324.212	23.855	841.479	654.790
325.227	23.996	840.651	654.604
326.241	23.763	841.084	654.026
327.256	23.729	840.498	653.388
328.270	23.882	839.091	652.801
329.285	23.817	839.038	652.461
330.300	23.450	838.349	650.520
331.314	23.946	837.651	651.742
332.329	24.299	838.452	653.600
333.343	24.387	838.068	653.564
334.358	24.203	836.990	651.993
335.373	24.192	837.054	651.946
336.387	24.537	836.093	652.400
337.402	24.502	836.314	652.386
338.416	24.701	836.535	653.228
339.431	24.972	836.694	654.284
340.446	25.076	835.876	653.966
341.460	25.173	834.848	653.460
342.475	25.154	835.056	653.495
343.489	25.328	833.972	653.223
344.504	25.446	834.062	653.661
345.519	25.524	834.290	654.066
346.533	25.300	832.423	651.732
347.548	25.217	832.077	651.105
348.562	24.793	831.524	649.075
349.577	24.375	831.479	647.465
350.592	24.456	830.733	647.120
351.606	24.746	829.280	646.982
352.621	24.580	828.437	645.667
353.635	24.398	828.114	644.699
354.650	24.194	827.878	643.722
355.665	24.233	826.797	642.964
356.679	24.318	826.405	642.908
357.694	24.469	825.983	643.069
358.708	24.254	825.387	641.775
359.723	24.459	825.071	642.207
360.738	24.843	822.747	641.722
361.752	24.916	822.940	642.074
362.767	25.425	822.468	643.473
363.781	25.509	821.911	643.284
364.796	25.415	822.258	643.162
365.810	25.608	822.030	643.615
366.825	25.781	821.137	643.477
367.840	25.287	820.406	641.083
368.854	24.831	819.928	639.025
369.869	24.512	820.478	638.258
370.883	25.003	819.163	638.930
371.898	24.994	819.496	639.102
372.913	25.250	818.860	639.461
373.927	24.915	818.670	638.064
374.942	25.071	817.551	637.689
375.956	25.078	818.153	638.126
376.971	25.364	816.039	637.437
377.986	25.497	816.205	637.983
379.000	25.595	816.395	638.422
380.015	25.494	814.864	636.810
381.029	25.289	815.589	636.595
382.044	25.035	814.413	634.722
383.059	25.428	814.176	635.869
384.073	25.652	811.788	634.739
385.088	24.928	812.404	632.609
386.102	24.636	811.698	630.973
387.117	24.870	809.900	630.343
388.132	24.421	810.783	629.390
389.146	25.394	808.582	631.048
390.161	25.222	809.240	630.900
391.175	25.433	809.366	631.685
392.190	25.434	808.053	630.608
393.205	24.610	808.104	627.696
394.219	24.425	807.308	626.375
395.234	24.470	806.326	625.715
396.248	24.811	805.476	626.193
397.263	24.734	805.069	625.551
398.278	24.293	805.410	624.217
399.292	24.276	804.458	623.367
400.307	24.243	804.467	623.202
401.321	24.143	803.898	622.359
402.336	24.947	803.204	624.571
403.350	25.419	802.998	626.001
404.365	25.353	803.308	625.956
405.380	25.726	802.781	626.787
406.394	25.570	802.869	626.259
407.409	26.023	802.298	627.333
408.423	26.148	801.696	627.241
409.438	25.734	801.336	625.468
410.453	26.041	801.184	626.359
411.467	25.653	801.427	625.147
412.482	25.805	799.820	624.362
413.496	25.894	800.638	625.257
414.511	25.937	799.131	624.173
415.526	25.865	798.305	623.224
416.540	26.071	797.645	623.366
417.555	26.079	797.645	623.336
418.569	25.750	797.907	622.350
419.584	25.941	797.077	622.305
420.599	25.782	796.330	621.120
421.613	161.350	1368.990	1792.159
422.628	139.995	1452.431	1792.244
