DTS Sentinel unit serial number:	SN413079Multiplexer serial number:	ORYXHardware model number:	OX4-SRSoftware version number:	ORYX F/W v4.00 Oryx Data Collector v3.7.2.0data status	okinstallation	princeton_trtdifferential loss correction	single-endedforward channel	channel 1reverse channel	N/Adate	2019/09/13time	16:54:35forward acquisition time	60.00reverse acquisition time	0.00gamma	496.2192k internal	0.2305k external	0.2305temperature offset calibration	1.0145default loss term (dB/km)	0.3790temperature slope calibration	1.0000multiplexer offset coefficient	1.0000multiplexer slope coefficient	1.0000fibre end	0.00T internal ref (°C)	34.87T ext. ref 1 (°C)	4.82T ext. ref 2 (°C)	30.45length (m)	temperature (°C)	Stokes	anti-Stokes-747.200	-198.444	0.202	-0.001
-746.185	-200.000	-0.004	0.197
-745.171	1.464	0.031	-0.023
-744.156	243.827	0.053	0.090
-743.142	-93.536	0.246	0.069
-742.127	-140.363	-0.407	0.043
-741.112	272.512	0.043	0.077
-740.098	22.498	0.189	-0.157
-739.083	-97.661	0.181	0.048
-738.069	-200.000	0.061	0.444
-737.054	341.608	0.253	-0.503
-736.039	79.655	0.123	-0.134
-735.025	-200.000	-0.053	0.342
-734.010	-122.407	-0.238	0.039
-732.996	342.017	0.089	-0.177
-731.981	-86.780	-0.005	0.002
-730.966	-99.944	0.233	-0.059
-729.952	-181.889	-0.180	-0.003
-728.937	-41.771	-0.118	0.062
-727.923	27.942	0.153	0.131
-726.908	-43.000	0.341	-0.176
-725.894	-200.000	0.024	-0.141
-724.879	-126.058	0.418	-0.064
-723.864	800.000	-0.025	-0.093
-722.850	-75.562	0.310	0.112
-721.835	-95.635	0.271	-0.074
-720.821	-110.916	-0.055	0.012
-719.806	-200.000	0.011	-0.253
-718.791	-200.000	0.010	-0.489
-717.777	225.577	-0.032	-0.052
-716.762	503.763	0.103	-0.243
-715.748	-108.041	-0.193	-0.043
-714.733	-78.211	-0.229	0.080
-713.718	73.062	0.105	-0.112
-712.704	44.606	0.110	-0.103
-711.689	224.410	-0.045	0.074
-710.675	-17.526	-0.248	-0.159
-709.660	67.755	0.265	0.275
-708.645	-97.775	0.029	-0.008
-707.631	-39.544	-0.137	-0.073
-706.616	202.543	-0.083	0.130
-705.602	143.068	-0.138	0.187
-704.587	-120.472	0.191	-0.033
-703.572	143.885	-0.142	0.192
-702.558	-200.000	0.035	0.179
-701.543	-200.000	0.028	-0.321
-700.529	211.935	0.185	-0.297
-699.514	-6.928	0.331	0.229
-698.499	148.678	0.098	0.134
-697.485	-200.000	-0.013	-0.128
-696.470	-60.828	0.271	0.116
-695.456	-92.215	-0.101	-0.029
-694.441	-200.000	0.022	0.287
-693.426	-75.279	0.199	-0.072
-692.412	68.083	0.141	0.146
-691.397	188.910	0.109	0.166
-690.383	-33.658	0.158	-0.088
-689.368	800.000	0.046	0.163
-688.354	160.029	-0.153	-0.217
-687.339	73.270	-0.117	0.124
-686.324	-89.907	-0.150	0.044
-685.310	-27.293	-0.233	0.138
-684.295	102.561	0.140	-0.167
-683.281	16.091	0.137	-0.110
-682.266	170.104	0.028	-0.041
-681.251	444.650	0.105	0.235
-680.237	-19.528	-0.203	-0.128
-679.222	349.815	-0.115	0.230
-678.208	-200.000	0.013	0.216
-677.193	800.000	-0.053	0.154
-676.178	-124.132	0.226	-0.036
-675.164	-129.941	-0.112	-0.016
-674.149	279.477	-0.102	0.185
-673.135	-142.713	-0.296	0.029
-672.120	-64.155	0.054	-0.022
-671.105	57.964	-0.048	-0.048
-670.091	-200.000	0.012	-0.149
-669.076	456.128	0.049	0.110
-668.062	-95.651	0.179	0.049
-667.047	-82.306	-0.172	-0.057
-666.032	-41.721	-0.263	0.137
-665.018	255.613	0.124	0.216
-664.003	-42.133	-0.096	-0.050
-662.989	83.080	-0.047	-0.052
-661.974	800.000	0.093	-0.371
-660.959	800.000	0.128	-0.376
-659.945	-200.000	0.002	0.023
-658.930	262.616	-0.067	0.117
-657.916	-200.000	0.044	-0.290
-656.901	57.468	0.140	-0.139
-655.886	-141.522	-0.235	-0.024
-654.872	478.368	-0.049	0.113
-653.857	130.384	0.156	-0.203
-652.843	94.390	-0.164	-0.189
-651.828	800.000	-0.068	0.287
-650.814	204.781	-0.013	0.021
-649.799	-134.122	0.420	0.053
-648.784	399.865	-0.174	-0.371
-647.770	-0.720	0.126	-0.091
-646.755	23.503	0.279	-0.232
-645.741	189.308	-0.128	-0.194
-644.726	-200.000	-0.039	0.261
-643.711	259.141	-0.103	0.180
-642.697	-100.679	-0.254	0.063
-641.682	-24.979	0.124	0.075
-640.668	-95.519	-0.085	0.023
-639.653	-200.000	-0.022	-0.156
-638.638	-20.327	0.323	0.202
-637.624	-200.000	0.006	-0.054
-636.609	800.000	0.076	-0.279
-635.595	-200.000	-0.004	0.105
-634.580	-38.021	0.179	0.096
-633.565	173.848	-0.213	-0.312
-632.551	64.527	-0.334	-0.341
-631.536	800.000	-0.117	0.371
-630.522	112.788	-0.082	-0.100
-629.507	24.902	0.114	-0.096
-628.492	377.300	-0.130	-0.269
-627.478	8.231	0.158	-0.120
-626.463	-128.918	-0.210	-0.030
-625.449	176.358	-0.055	0.080
-624.434	46.823	0.184	-0.173
-623.419	-153.779	0.271	-0.019
-622.405	-200.000	0.056	0.253
-621.390	673.707	0.063	0.165
-620.376	800.000	0.038	-0.125
-619.361	-200.000	0.020	-0.351
-618.346	-91.261	0.328	-0.095
-617.332	800.000	-0.038	0.158
-616.317	106.258	-0.226	0.271
-615.303	-167.479	-0.175	-0.007
-614.288	-57.263	-0.365	-0.163
-613.273	106.357	-0.252	-0.302
-612.259	-22.226	0.190	0.117
-611.244	739.865	0.183	-0.498
-610.230	115.005	-0.141	-0.174
-609.215	-96.117	-0.295	-0.079
-608.201	-105.750	-0.166	0.038
-607.186	139.906	-0.194	0.259
-606.171	116.629	-0.131	0.162
-605.157	-128.214	-0.345	0.050
-604.142	-200.000	0.165	0.000
-603.128	43.626	-0.255	-0.236
-602.113	132.828	-0.207	-0.271
-601.098	46.651	0.041	0.038
-600.084	800.000	0.116	-0.357
-599.069	206.971	-0.164	-0.259
-598.055	569.097	0.011	0.026
-597.040	52.142	0.052	0.050
-596.025	20.671	0.284	0.232
-595.011	-52.684	0.105	-0.049
-593.996	-68.244	0.248	0.098
-592.982	-118.561	0.154	0.027
-591.967	198.640	0.058	0.090
-590.952	-200.000	-0.035	0.389
-589.938	119.643	-0.206	-0.258
-588.923	-81.919	-0.303	0.100
-587.909	800.000	0.065	0.235
-586.894	168.889	0.292	0.422
-585.879	-64.292	-0.329	0.135
-584.865	244.510	0.177	0.301
-583.850	-103.860	0.335	0.079
-582.836	-143.179	-0.114	-0.011
-581.821	18.999	0.157	-0.128
-580.806	114.880	-0.103	-0.127
-579.792	193.045	-0.285	-0.435
-578.777	34.933	-0.208	-0.184
-577.763	1.402	0.384	-0.279
-576.748	47.264	-0.138	-0.130
-575.733	-200.000	0.052	0.299
-574.719	285.401	0.085	0.155
-573.704	800.000	-0.068	0.233
-572.690	-62.759	-0.041	-0.017
-571.675	-200.000	-0.059	-0.285
-570.661	-200.000	-0.025	-0.191
-569.646	-0.031	0.314	0.226
-568.631	-96.606	0.318	0.085
-567.617	-147.195	-0.337	-0.029
-566.602	90.792	-0.118	0.134
-565.588	164.271	0.144	-0.204
-564.573	-28.482	-0.300	-0.175
-563.558	-40.978	0.165	-0.086
-562.544	1.012	-0.297	-0.215
-561.529	-200.000	0.032	-0.242
-560.515	-30.303	-0.119	-0.068
-559.500	-200.000	-0.013	-0.208
-558.485	-173.566	0.273	-0.008
-557.471	0.252	-0.258	-0.186
-556.456	58.165	0.172	-0.170
-555.442	347.978	0.150	-0.299
-554.427	56.694	-0.190	-0.187
-553.412	800.000	0.063	-0.207
-552.398	125.718	0.093	0.119
-551.383	117.130	-0.142	0.176
-550.369	800.000	0.052	-0.191
-549.354	51.265	-0.169	0.162
-548.339	488.820	0.121	0.280
-547.325	800.000	-0.066	0.233
-546.310	-200.000	0.004	0.035
-545.296	65.514	-0.066	-0.068
-544.281	509.374	-0.079	-0.185
-543.266	-105.829	0.145	0.033
-542.252	-200.000	-0.016	0.200
-541.237	20.563	-0.199	-0.163
-540.223	-48.250	-0.190	0.092
-539.208	800.000	-0.058	-0.172
-538.193	800.000	0.110	0.358
-537.179	-48.615	0.102	-0.049
-536.164	85.605	0.221	-0.245
-535.150	-88.202	-0.188	-0.057
-534.135	-32.464	-0.365	-0.205
-533.121	-62.880	-0.152	0.063
-532.106	80.226	-0.122	-0.132
-531.091	261.013	-0.153	-0.268
-530.077	-200.000	-0.073	-0.383
-529.062	800.000	-0.029	-0.112
-528.048	800.000	0.031	-0.088
-527.033	-200.000	0.017	-0.098
-526.018	327.566	0.076	0.148
-525.004	-200.000	-0.023	-0.121
-523.989	47.307	-0.218	-0.205
-522.975	-143.088	0.097	-0.009
-521.960	800.000	0.023	-0.073
-520.945	-200.000	-0.038	0.177
-519.931	55.369	-0.094	0.092
-518.916	395.293	-0.088	-0.184
-517.902	-200.000	-0.038	-0.256
-516.887	-109.257	-0.301	-0.064
-515.872	-14.530	-0.232	-0.150
-514.858	-171.191	0.207	-0.007
-513.843	-200.000	-0.014	-0.084
-512.829	-200.000	-0.008	-0.070
-511.814	-61.163	-0.192	-0.082
-510.799	21.212	-0.145	0.119
-509.785	67.914	0.107	0.110
-508.770	-68.366	0.211	0.082
-507.756	-200.000	-0.011	-0.101
-506.741	-128.872	0.097	0.014
-505.726	42.209	-0.165	-0.151
-504.712	-200.000	0.011	-0.174
-503.697	66.580	0.138	0.142
-502.683	-200.000	0.007	-0.238
-501.668	-200.000	0.001	0.084
-500.653	800.000	-0.128	0.531
-499.639	-72.494	0.067	0.025
-498.624	-200.000	-0.053	-0.234
-497.610	-200.000	0.007	-0.107
-496.595	534.789	0.066	-0.157
-495.581	800.000	-0.121	-0.380
-494.566	-84.731	0.116	0.037
-493.551	-200.000	0.072	-0.322
-492.537	800.000	-0.059	0.231
-491.522	-140.825	0.145	0.015
-490.508	335.081	-0.153	-0.298
-489.493	-200.000	0.029	0.164
-488.478	-115.686	-0.186	0.035
-487.464	139.074	0.055	-0.073
-486.449	540.644	-0.101	-0.242
-485.435	287.436	0.107	0.194
-484.420	151.436	0.089	0.122
-483.405	231.383	-0.087	-0.144
-482.391	285.947	0.143	0.259
-481.376	-24.824	-0.135	0.081
-480.362	0.729	-0.121	0.087
-479.347	-35.429	-0.262	0.143
-478.332	615.247	-0.149	0.375
-477.318	2.882	-0.043	0.031
-476.303	16.816	-0.130	-0.103
-475.289	-85.891	0.046	-0.014
-474.274	-105.764	-0.483	-0.110
-473.259	-85.171	0.170	0.054
-472.245	198.513	0.038	0.059
-471.230	75.546	0.013	0.014
-470.216	181.064	0.094	0.140
-469.201	-123.481	-0.295	-0.047
-468.186	67.681	0.198	-0.204
-467.172	551.730	-0.105	0.254
-466.157	800.000	-0.067	0.231
-465.143	-0.506	-0.307	-0.219
-464.128	-102.199	-0.176	0.043
-463.113	-65.656	0.274	-0.110
-462.099	41.561	0.118	-0.108
-461.084	-200.000	0.026	-0.148
-460.070	-32.061	-0.171	-0.096
-459.055	138.825	-0.262	0.346
-458.040	-57.849	0.249	-0.109
-457.026	-137.656	0.194	-0.022
-456.011	126.031	0.095	0.121
-454.997	106.425	0.096	-0.114
-453.982	-29.248	0.232	-0.134
-452.968	-107.648	0.178	0.039
-451.953	-200.000	-0.024	-0.280
-450.938	-109.786	-0.303	0.064
-449.924	7.969	-0.109	-0.083
-448.909	93.089	0.127	-0.144
-447.895	-200.000	0.027	-0.248
-446.880	65.488	0.207	-0.211
-445.865	175.968	-0.074	-0.108
-444.851	-65.269	0.132	-0.053
-443.836	-71.878	0.130	-0.049
-442.822	-38.233	0.234	-0.125
-441.807	379.269	-0.093	-0.191
-440.792	730.749	0.113	0.303
-439.778	569.299	0.075	0.183
-438.763	800.000	-0.028	0.122
-437.749	-48.725	-0.163	0.079
-436.734	800.000	0.100	-0.336
-435.719	-200.000	-0.067	-0.320
-434.705	-200.000	0.019	-0.173
-433.690	-149.706	0.172	0.014
-432.676	61.130	0.235	-0.235
-431.661	-200.000	-0.019	-0.121
-430.646	-117.136	0.226	0.041
-429.632	173.057	0.104	-0.150
-428.617	-200.000	-0.005	0.024
-427.603	-41.617	0.344	0.178
-426.588	800.000	-0.023	0.079
-425.573	456.694	0.111	0.247
-424.559	104.062	-0.226	-0.267
-423.544	-200.000	0.061	-0.341
-422.530	-82.879	-0.070	-0.023
-421.515	16.546	-0.181	0.144
-420.500	-200.000	-0.011	-0.065
-419.486	-22.764	0.107	0.065
-418.471	95.024	0.079	0.090
-417.457	-200.000	-0.023	-0.120
-416.442	-200.000	-0.038	0.172
-415.428	-200.000	0.037	-0.488
-414.413	-106.001	0.245	-0.055
-413.398	56.289	0.234	-0.228
-412.384	800.000	-0.072	-0.252
-411.369	190.034	0.067	0.101
-410.355	38.152	-0.089	0.079
-409.340	-1.094	0.351	-0.249
-408.325	97.704	0.116	-0.134
-407.311	324.397	-0.067	0.128
-406.296	-200.000	0.028	0.256
-405.282	-92.531	-0.070	0.020
-404.267	-200.000	0.020	0.181
-403.252	-88.106	0.097	0.029
-402.238	89.687	0.036	-0.040
-401.223	-200.000	0.011	0.135
-400.209	748.183	-0.030	0.082
-399.194	260.999	0.051	-0.089
-398.179	-167.059	0.192	-0.008
-397.165	-129.859	-0.226	0.031
-396.150	800.000	-0.016	0.059
-395.136	178.065	0.102	-0.150
-394.121	44.769	0.184	-0.170
-393.106	33.956	0.032	0.028
-392.092	17.394	-0.082	-0.065
-391.077	448.110	-0.081	0.180
-390.063	-103.790	-0.147	0.034
-389.048	-200.000	0.002	0.080
-388.033	-91.458	-0.158	-0.045
-387.019	169.130	0.102	0.147
-386.004	162.754	0.108	0.153
-384.990	495.260	0.014	-0.031
-383.975	-200.000	0.008	0.226
-382.960	550.220	-0.106	-0.256
-381.946	145.163	-0.132	-0.177
-380.931	-62.240	0.147	0.062
-379.917	-31.220	0.163	-0.092
-378.902	-2.009	-0.341	-0.240
-377.888	-113.360	-0.396	0.078
-376.873	105.356	-0.254	0.301
-375.858	-20.986	0.326	-0.200
-374.844	-45.123	0.191	-0.095
-373.829	23.925	0.147	0.122
-372.815	317.483	-0.072	0.136
-371.800	-200.000	-0.072	0.404
-370.785	800.000	-0.083	0.238
-369.771	-15.858	-0.131	-0.084
-368.756	287.048	-0.140	-0.254
-367.742	84.406	0.312	-0.342
-366.727	800.000	0.070	0.216
-365.712	66.181	-0.246	0.251
-364.698	-200.000	-0.058	0.262
-363.683	-37.678	0.210	-0.112
-362.669	107.855	-0.166	0.198
-361.654	-18.010	-0.067	-0.042
-360.639	666.901	0.045	-0.117
-359.625	-7.461	-0.125	-0.085
-358.610	207.335	0.076	0.118
-357.596	1.574	-0.093	-0.067
-356.581	-99.798	-0.051	0.013
-355.566	94.880	0.142	0.162
-354.552	-183.181	0.189	0.003
-353.537	800.000	0.042	0.127
-352.523	80.224	0.131	0.141
-351.508	-112.347	0.184	0.037
-350.493	74.582	-0.134	0.142
-349.479	-200.000	0.001	-0.084
-348.464	-113.035	0.145	0.029
-347.450	13.752	0.298	-0.232
-346.435	-161.747	-0.092	-0.005
-345.420	-120.591	-0.408	0.069
-344.406	16.193	-0.176	0.139
-343.391	-104.813	0.092	-0.021
-342.377	800.000	-0.126	0.421
-341.362	-129.077	0.188	0.026
-340.348	800.000	0.088	-0.243
-339.333	466.480	-0.058	-0.130
-338.318	123.238	-0.166	0.208
-337.304	-200.000	-0.021	-0.155
-336.289	65.861	0.088	0.090
-335.275	56.130	-0.109	0.106
-334.260	-95.971	0.347	-0.093
-333.245	-116.788	0.204	-0.037
-332.231	430.452	0.060	-0.130
-331.216	46.660	0.196	-0.182
-330.202	-60.092	-0.405	0.173
-329.187	-46.847	-0.224	0.110
-328.172	93.858	-0.179	0.203
-327.158	-200.000	0.018	0.304
-326.143	-113.155	0.240	-0.047
-325.129	-62.820	-0.073	-0.030
-324.114	-107.020	0.218	-0.048
-323.099	-102.376	0.181	-0.043
-322.085	70.963	-0.228	0.236
-321.070	102.206	0.040	0.047
-320.056	168.314	0.131	0.187
-319.041	42.081	-0.204	-0.185
-318.026	-108.736	-0.224	0.048
-317.012	485.705	0.079	0.181
-315.997	-54.865	0.132	0.060
-314.983	-107.887	0.279	-0.061
-313.968	55.760	0.073	0.071
-312.953	-18.955	-0.121	-0.075
-311.939	-198.964	-0.341	-0.002
-310.924	-48.751	0.344	0.165
-309.910	150.549	-0.238	0.324
-308.895	-125.043	0.356	-0.055
-307.880	184.044	0.039	0.057
-306.866	-200.000	-0.004	-0.285
-305.851	60.884	0.341	-0.338
-304.837	800.000	0.080	-0.261
-303.822	-20.399	0.160	-0.098
-302.807	-200.000	0.008	-0.147
-301.793	-118.943	0.078	-0.014
-300.778	52.029	0.297	0.283
-299.764	100.938	-0.081	0.094
-298.749	53.240	-0.051	0.048
-297.735	2.822	-0.307	0.223
-296.720	31.095	0.169	0.145
-295.705	179.636	0.067	0.098
-294.691	-136.114	-0.167	-0.020
-293.676	94.033	-0.072	-0.081
-292.662	-26.507	0.169	0.099
-291.647	676.485	-0.071	0.185
-290.632	26.532	-0.183	-0.153
-289.618	-187.483	0.183	0.002
-288.603	-200.000	0.048	-0.296
-287.589	-59.559	0.341	-0.146
-286.574	49.552	0.085	-0.080
-285.559	16.937	-0.247	0.195
-284.545	378.636	-0.115	-0.235
-283.530	391.104	0.043	-0.090
-282.516	-52.748	0.063	0.029
-281.501	-194.733	0.143	-0.001
-280.486	-200.000	0.044	0.264
-279.472	158.787	-0.090	0.125
-278.457	19.799	0.211	0.170
-277.443	26.961	0.151	0.127
-276.428	-188.131	-0.187	0.002
-275.413	-184.999	-0.175	-0.003
-274.399	85.486	0.162	0.178
-273.384	-200.000	-0.018	-0.105
-272.370	-200.000	-0.006	-0.083
-271.355	-124.922	0.177	-0.027
-270.340	800.000	0.056	0.236
-269.326	-200.000	-0.090	-0.394
-268.311	2.568	0.209	-0.151
-267.297	-200.000	-0.073	-0.344
-266.282	-105.155	0.160	-0.036
-265.267	800.000	-0.117	-0.383
-264.253	-200.000	0.044	0.333
-263.238	-200.000	-0.009	0.063
-262.224	99.848	-0.292	0.338
-261.209	-200.000	0.055	0.375
-260.195	79.945	-0.168	0.180
-259.180	22.426	0.202	-0.165
-258.165	-59.671	-0.345	-0.148
-257.151	-103.235	-0.240	-0.057
-256.136	-8.948	0.168	0.113
-255.122	241.053	0.104	0.173
-254.107	-194.069	-0.092	0.001
-253.092	-0.796	0.321	0.227
-252.078	159.018	0.118	0.163
-251.063	74.467	-0.325	0.341
-250.049	-174.386	0.104	0.003
-249.034	-45.145	-0.208	0.103
-248.019	-200.000	0.015	0.138
-247.005	-200.000	0.008	0.255
-245.990	-200.000	0.004	-0.131
-244.976	-122.866	-0.211	-0.034
-243.961	273.010	0.071	-0.126
-242.946	-200.000	0.027	-0.204
-241.932	-68.773	-0.264	-0.102
-240.917	-26.746	0.243	0.142
-239.903	-59.653	-0.245	-0.105
-238.888	800.000	-0.032	-0.125
-237.873	-200.000	0.130	0.624
-236.859	-81.450	0.189	-0.062
-235.844	112.779	0.027	0.033
-234.830	-107.851	0.224	0.049
-233.815	7.048	-0.505	0.375
-232.800	-127.022	0.216	0.032
-231.786	-150.531	0.369	0.028
-230.771	149.530	-0.184	0.249
-229.757	123.219	-0.373	0.466
-228.742	-128.513	-0.220	-0.031
-227.727	-106.503	-0.161	-0.036
-226.713	-20.236	-0.326	0.200
-225.698	399.175	-0.183	-0.381
-224.684	164.212	-0.028	0.040
-223.669	-11.854	0.218	-0.143
-222.655	-53.868	0.172	-0.078
-221.640	-200.000	-0.038	-0.226
-220.625	-37.547	0.182	0.097
-219.611	453.775	-0.043	0.094
-218.596	-54.172	-0.268	-0.121
-217.582	-200.000	0.020	-0.231
-216.567	96.637	-0.079	0.091
-215.552	-200.000	-0.017	-0.324
-214.538	115.516	0.158	0.192
-213.523	800.000	-0.065	0.182
-212.509	-200.000	0.033	0.299
-211.494	260.503	0.208	-0.358
-210.479	800.000	0.066	-0.246
-209.465	-87.709	0.144	0.043
-208.450	-40.153	0.232	0.121
-207.436	71.382	-0.163	-0.168
-206.421	798.523	-0.095	0.261
-205.406	800.000	0.046	0.172
-204.392	-4.766	-0.085	-0.058
-203.377	-200.000	-0.013	0.066
-202.363	195.579	0.061	0.093
-201.348	265.657	-0.120	-0.209
-200.333	-81.209	0.114	0.037
-199.319	115.964	-0.042	0.051
-198.304	91.417	0.030	-0.034
-197.290	41.795	-0.209	-0.188
-196.275	145.945	-0.041	-0.055
-195.260	137.923	-0.076	0.099
-194.246	14.718	0.019	0.015
-193.231	-8.230	-0.258	-0.173
-192.217	576.965	-0.106	0.259
-191.202	-200.000	-0.004	-0.113
-190.187	-79.353	0.251	-0.085
-189.173	226.817	0.324	0.524
-188.158	-200.000	-0.084	0.427
-187.144	-36.841	-0.107	-0.057
-186.129	800.000	0.038	-0.122
-185.114	800.000	0.136	0.445
-184.100	-157.176	-0.370	-0.022
-183.085	-200.000	-0.013	0.277
-182.071	-182.528	0.239	0.004
-181.056	-39.150	-0.210	0.110
-180.042	-200.000	-0.035	0.180
-179.027	402.187	-0.115	0.241
-178.012	-200.000	-0.006	0.186
-176.998	-103.780	0.113	0.026
-175.983	-155.850	0.170	-0.011
-174.969	417.262	-0.096	0.205
-173.954	-53.287	-0.192	-0.087
-172.939	74.438	0.214	-0.224
-171.925	86.476	0.232	0.255
-170.910	-200.000	-0.040	0.394
-169.896	601.792	-0.047	0.117
-168.881	124.694	-0.173	0.216
-167.866	215.847	-0.073	-0.116
-166.852	-200.000	0.063	0.314
-165.837	-96.693	0.262	-0.068
-164.823	32.694	0.112	0.097
-163.808	-200.000	-0.017	-0.141
-162.793	-129.135	0.202	0.028
-161.779	95.979	0.067	0.076
-160.764	-30.806	-0.094	-0.053
-159.750	-58.355	0.182	-0.079
-158.735	-121.941	0.285	0.047
-157.720	-90.525	-0.199	-0.057
-156.706	112.636	0.123	0.148
-155.691	123.492	0.242	0.301
-154.677	164.941	-0.070	0.098
-153.662	-200.000	0.045	-0.280
-152.647	-200.000	0.016	0.178
-151.633	-62.392	0.059	-0.024
-150.618	-86.611	0.216	-0.066
-149.604	88.234	-0.063	-0.069
-148.589	-109.026	0.197	-0.042
-147.574	7.156	0.238	-0.177
-146.560	200.310	0.112	-0.170
-145.545	-103.256	0.242	0.057
-144.531	-96.308	0.315	0.083
-143.516	-180.399	0.399	-0.008
-142.502	-8.804	-0.325	0.217
-141.487	196.012	-0.192	0.291
-140.472	62.614	0.174	-0.173
-139.458	19.859	-0.203	0.163
-138.443	-200.000	-0.009	0.066
-137.429	18.666	-0.370	-0.294
-136.414	5.415	0.117	0.086
-135.399	154.882	-0.123	0.168
-134.385	-146.174	-0.234	-0.020
-133.370	67.887	0.195	0.198
-132.356	-104.556	-0.360	-0.083
-131.341	800.000	-0.090	0.382
-130.326	800.000	-0.090	0.383
-129.312	-116.396	0.201	-0.037
-128.297	277.491	0.112	-0.198
-127.283	800.000	-0.088	-0.245
-126.268	-34.519	0.344	-0.187
-125.253	-148.718	0.251	0.020
-124.239	295.425	0.151	-0.274
-123.224	375.620	-0.042	0.085
-122.210	800.000	-0.125	-0.359
-121.195	17.052	-0.357	-0.281
-120.180	-17.577	-0.151	-0.094
-119.166	306.343	-0.190	0.352
-118.151	800.000	-0.072	-0.219
-117.137	-109.604	0.068	-0.014
-116.122	323.478	-0.068	0.129
-115.107	-200.000	-0.039	0.210
-114.093	800.000	0.059	-0.175
-113.078	-102.383	0.162	0.039
-112.064	48.100	0.231	-0.214
-111.049	292.777	0.049	0.088
-110.034	45.962	0.134	-0.123
-109.020	-200.000	-0.047	-0.273
-108.005	66.497	-0.123	-0.125
-106.991	390.663	0.167	0.343
-105.976	-200.000	-0.026	0.340
-104.962	-154.678	0.429	0.028
-103.947	352.827	0.052	0.103
-102.932	641.734	0.046	-0.116
-101.918	-68.675	-0.406	0.156
-100.903	-32.159	-0.029	-0.016
-99.889	-200.000	-0.017	0.156
-98.874	518.600	-0.093	0.217
-97.859	-142.930	-0.293	0.028
-96.845	412.602	0.060	-0.127
-95.830	-123.849	-0.189	0.030
-94.816	-100.553	-0.053	0.013
-93.801	119.210	0.136	-0.167
-92.786	-200.000	0.052	0.323
-91.772	703.260	0.101	-0.265
-90.757	770.407	0.088	-0.237
-89.743	256.770	0.128	-0.219
-88.728	-200.000	-0.005	0.271
-87.713	-110.853	0.172	0.035
-86.699	-200.000	-0.004	-0.203
-85.684	12.791	-0.134	-0.102
-84.670	66.095	-0.113	-0.114
-83.655	645.273	0.108	-0.273
-82.640	-145.404	0.310	0.028
-81.626	71.956	0.044	-0.045
-80.611	-200.000	-0.066	-0.421
-79.597	50.710	0.088	0.083
-78.582	-200.000	-0.030	-0.143
-77.567	800.000	-0.050	-0.162
-76.553	-147.644	-0.115	0.010
-75.538	352.291	0.107	-0.210
-74.524	156.653	-0.098	-0.134
-73.509	139.051	0.143	-0.186
-72.494	-32.531	-0.293	-0.162
-71.480	134.607	-0.105	-0.134
-70.465	645.303	0.018	0.045
-69.451	-59.436	0.092	0.039
-68.436	305.724	0.154	-0.284
-67.422	-87.379	0.242	-0.073
-66.407	-116.276	0.164	-0.030
-65.392	-142.880	-0.239	0.023
-64.378	6.941	-0.366	-0.270
-63.363	314.026	0.120	0.224
-62.349	-142.589	-0.262	0.025
-61.334	21.808	-0.756	-0.611
-60.319	800.000	0.081	0.331
-59.305	-200.000	-0.198	-0.930
-58.290	127.146	0.493	0.620
-57.276	800.000	0.538	1.552
-56.261	-200.000	96.700	574.568
-55.246	649.394	1384.152	3508.375
-54.232	186.931	2598.980	3836.187
-53.217	123.212	2181.017	2706.687
-52.203	46.718	1633.794	1502.917
-51.188	38.286	1369.104	1207.578
-50.173	35.130	1326.070	1150.650
-49.159	56.748	1375.301	1326.074
-48.144	61.145	1393.202	1370.122
-47.130	38.745	1347.403	1191.037
-46.115	34.998	1329.674	1152.803
-45.100	34.856	1325.082	1147.923
-44.086	34.829	1322.485	1145.465
-43.071	34.724	1319.834	1142.493
-42.057	34.637	1318.140	1140.464
-41.042	34.745	1316.268	1139.445
-40.027	34.825	1314.411	1138.270
-39.013	34.738	1312.823	1136.330
-37.998	34.730	1311.060	1134.710
-36.984	34.911	1309.499	1134.388
-35.969	34.967	1307.413	1132.871
-34.954	34.851	1305.531	1130.506
-33.940	34.802	1304.277	1129.087
-32.925	34.994	1302.969	1129.043
-31.911	34.984	1301.283	1127.479
-30.896	35.092	1299.974	1126.932
-29.881	35.056	1298.735	1125.603
-28.867	34.963	1297.486	1123.927
-27.852	35.060	1295.840	1123.029
-26.838	35.032	1294.414	1121.587
-25.823	34.977	1293.540	1120.463
-24.809	34.985	1291.497	1118.694
-23.794	34.943	1290.360	1117.420
-22.779	34.904	1288.591	1115.617
-21.765	34.889	1287.995	1114.969
-20.750	34.918	1286.833	1114.086
-19.736	34.904	1285.356	1112.679
-18.721	34.802	1283.878	1110.763
-17.706	34.850	1282.666	1109.953
-16.692	34.855	1281.088	1108.569
-15.677	34.887	1279.974	1107.746
-14.663	34.843	1279.328	1106.889
-13.648	34.800	1278.289	1105.701
-12.633	34.784	1277.260	1104.671
-11.619	34.793	1276.568	1104.081
-10.604	34.794	1275.730	1103.318
-9.590	34.734	1274.810	1102.133
-8.575	34.844	1273.630	1101.702
-7.560	34.814	1272.574	1100.576
-6.546	34.644	1272.638	1099.604
-5.531	34.849	1270.858	1099.205
-4.517	34.774	1270.242	1098.194
-3.502	34.744	1269.583	1097.411
-2.487	34.811	1268.415	1096.745
-1.473	34.868	1264.330	1093.495
-0.458	33.451	1249.158	1072.311
0.556	31.063	1229.672	1028.911
1.571	26.522	1233.488	1006.819
2.586	25.070	1246.630	1009.285
3.600	23.340	1234.358	989.604
4.615	17.808	1161.663	902.075
5.629	9.233	1086.392	800.975
6.644	5.160	1065.552	765.597
7.659	4.801	1062.577	761.634
8.673	4.693	1060.971	759.891
9.688	4.627	1060.135	758.900
10.702	5.226	1059.626	761.388
11.717	10.822	1067.011	794.036
12.731	18.738	1078.347	841.343
13.746	21.740	1081.519	858.473
14.761	21.433	1080.405	856.008
15.775	20.476	1078.634	849.851
16.790	19.479	1076.690	843.375
17.804	18.778	1074.842	838.432
18.819	18.475	1073.748	836.026
19.834	18.448	1072.775	835.065
20.848	18.357	1072.113	834.033
21.863	18.048	1071.529	832.000
22.877	17.908	1070.995	830.828
23.892	17.864	1069.704	829.539
24.907	17.928	1069.088	829.302
25.921	17.959	1067.599	828.221
26.936	17.926	1066.729	827.317
27.950	17.920	1065.178	826.010
28.965	18.035	1063.922	825.516
29.980	18.176	1062.539	825.053
30.994	18.133	1061.496	823.962
32.009	18.271	1060.716	823.950
33.023	18.184	1059.234	822.307
34.038	18.060	1058.132	820.784
35.053	17.973	1057.729	819.979
36.067	17.940	1056.882	819.091
37.082	18.024	1055.524	818.370
38.096	18.136	1054.939	818.381
39.111	18.195	1054.460	818.219
40.126	18.140	1052.866	816.644
41.140	17.917	1051.086	814.131
42.155	17.669	1050.165	812.165
43.169	17.554	1049.370	810.927
44.184	17.501	1048.219	809.717
45.199	17.479	1047.578	809.046
46.213	17.698	1046.340	809.055
47.228	17.940	1045.329	809.350
48.242	17.866	1045.129	808.774
49.257	17.948	1043.039	807.473
50.271	18.005	1042.789	807.475
51.286	18.016	1041.940	806.800
52.301	17.866	1041.116	805.383
53.315	17.816	1039.532	803.847
54.330	17.743	1038.567	802.687
55.344	17.741	1038.022	802.186
56.359	17.755	1037.400	801.700
57.374	17.727	1036.184	800.557
58.388	17.505	1035.885	799.215
59.403	17.593	1034.264	798.305
60.417	17.481	1033.865	797.402
61.432	17.542	1032.903	796.874
62.447	17.408	1032.041	795.513
63.461	17.469	1031.387	795.227
64.476	17.476	1029.910	794.049
65.490	17.471	1029.119	793.345
66.505	17.525	1028.459	793.018
67.520	17.480	1028.143	792.496
68.534	17.492	1027.540	792.015
69.549	17.394	1026.483	790.673
70.563	17.458	1025.789	790.366
71.578	17.466	1024.569	789.394
72.593	17.167	1024.205	787.659
73.607	17.232	1023.383	787.258
74.622	17.373	1022.856	787.433
75.636	17.401	1021.576	786.511
76.651	17.380	1021.270	786.108
77.666	17.276	1020.984	785.337
78.680	17.459	1019.901	785.278
79.695	17.461	1019.525	784.929
80.709	17.645	1018.500	784.916
81.724	17.712	1018.292	784.995
82.739	17.755	1017.709	784.674
83.753	18.024	1016.914	785.230
84.768	18.147	1016.330	785.275
85.782	18.211	1015.362	784.750
86.797	18.126	1014.551	783.665
87.812	18.023	1013.648	782.427
88.826	18.115	1012.312	781.746
89.841	18.075	1011.310	780.719
90.855	18.241	1010.730	780.964
91.870	18.326	1009.946	780.676
92.884	18.218	1009.356	779.655
93.899	18.187	1008.585	778.852
94.914	18.201	1007.843	778.273
95.928	18.251	1006.743	777.584
96.943	18.083	1006.059	776.224
97.957	18.173	1004.580	775.420
98.972	18.184	1003.844	774.832
99.987	18.134	1003.262	774.092
101.001	18.022	1002.340	772.801
102.016	17.928	1001.736	771.842
103.030	18.120	1000.965	772.047
104.045	18.214	999.814	771.519
105.060	18.065	998.867	770.045
106.074	17.732	997.840	767.686
107.089	17.705	996.537	766.494
108.103	17.549	995.582	764.992
109.118	17.651	994.772	764.760
110.133	17.529	993.998	763.552
111.147	17.467	993.148	762.551
112.162	17.594	992.150	762.288
113.176	17.673	991.783	762.291
114.191	17.780	991.180	762.238
115.206	17.717	989.974	760.962
116.220	17.771	989.078	760.446
117.235	17.603	988.479	759.170
118.249	17.649	987.499	758.554
119.264	17.632	986.478	757.629
120.279	17.556	985.682	756.614
121.293	17.521	984.843	755.748
122.308	17.390	983.846	754.336
123.322	17.415	982.964	753.703
124.337	17.335	982.036	752.570
125.352	17.520	980.491	752.137
126.366	17.287	980.095	750.735
127.381	17.388	979.116	750.367
128.395	17.476	978.261	750.034
129.410	17.555	977.484	749.719
130.424	17.667	976.541	749.421
131.439	17.739	975.724	749.044
132.454	17.764	975.375	748.820
133.468	17.741	974.516	747.991
134.483	17.804	973.539	747.452
135.497	17.793	972.285	746.373
136.512	17.873	972.091	746.511
137.527	17.755	971.460	745.443
138.541	17.895	970.553	745.292
139.556	17.863	969.968	744.641
140.570	18.051	969.382	744.943
141.585	18.010	968.983	744.390
142.600	18.168	967.584	743.938
143.614	18.230	966.803	743.543
144.629	18.220	966.215	742.981
145.643	18.149	964.971	741.651
146.658	17.938	963.817	739.784
147.673	17.862	963.220	738.930
148.687	17.864	961.930	737.883
149.702	17.656	961.135	736.311
150.716	17.738	960.447	736.070
151.731	17.799	959.759	735.743
152.746	17.737	958.911	734.760
153.760	17.860	958.391	734.826
154.775	18.030	957.973	735.174
155.789	18.132	957.016	734.812
156.804	18.062	956.456	734.017
157.819	18.064	956.005	733.612
158.833	18.321	955.416	734.199
159.848	18.389	954.567	733.773
160.862	18.188	953.554	732.067
161.877	17.897	952.379	729.856
162.892	17.942	951.211	729.093
163.906	17.801	950.327	727.745
164.921	17.826	949.574	727.211
165.935	17.936	948.559	726.840
166.950	18.027	947.428	726.295
167.964	18.051	947.005	726.007
168.979	17.888	945.984	724.471
169.994	17.914	945.386	724.060
171.008	17.976	944.882	723.870
172.023	18.177	943.934	723.932
173.037	18.318	943.244	723.936
174.052	18.181	942.395	722.642
175.067	17.988	941.729	721.252
176.081	17.851	941.506	720.438
177.096	17.850	940.850	719.868
178.110	17.932	939.970	719.474
179.125	17.905	939.711	719.099
180.140	18.014	938.974	718.930
181.154	18.075	938.701	718.917
182.169	18.220	938.396	719.226
183.183	18.281	938.007	719.123
184.198	18.219	936.731	717.822
185.213	18.242	936.289	717.514
186.227	18.357	935.486	717.317
187.242	18.418	935.317	717.381
188.256	18.506	934.532	717.085
189.271	18.329	933.830	715.739
190.286	18.208	932.316	714.011
191.300	17.855	931.289	711.691
192.315	17.743	930.811	710.795
193.329	17.604	930.828	710.165
194.344	17.974	929.845	710.892
195.359	18.140	929.431	711.204
196.373	18.201	928.924	711.006
197.388	18.308	928.620	711.157
198.402	18.432	928.524	711.533
199.417	18.523	927.333	710.937
200.432	18.734	926.993	711.487
201.446	18.853	926.662	711.664
202.461	18.878	926.318	711.441
203.475	18.750	925.079	709.896
204.490	18.552	924.638	708.675
205.504	18.455	923.527	707.361
206.519	18.372	922.918	706.492
207.534	18.331	922.219	705.724
208.548	18.336	921.579	705.194
209.563	18.499	920.255	704.786
210.577	18.458	920.204	704.516
211.592	18.702	919.751	705.110
212.607	18.720	918.836	704.420
213.621	18.628	918.194	703.490
214.636	18.723	917.355	703.173
215.650	18.750	916.754	702.759
216.665	18.799	916.466	702.679
217.680	18.727	916.096	702.037
218.694	18.871	915.090	701.791
219.709	18.836	914.333	701.005
220.723	18.720	913.560	699.878
221.738	18.791	912.728	699.470
222.753	18.794	912.032	698.888
223.767	18.782	912.057	698.795
224.782	18.913	911.285	698.672
225.796	18.977	911.280	698.869
226.811	18.959	909.995	697.747
227.826	18.877	908.987	696.580
228.840	18.746	908.615	695.703
229.855	18.827	907.246	694.922
230.869	18.782	906.559	694.153
231.884	18.660	905.877	693.076
232.899	18.601	905.438	692.438
233.913	18.662	904.294	691.748
234.928	18.640	903.946	691.336
235.942	18.569	903.304	690.496
236.957	18.493	903.095	689.969
237.972	18.604	902.167	689.645
238.986	18.465	901.664	688.640
240.001	18.596	900.984	688.586
241.015	18.707	899.878	688.127
242.030	18.790	899.721	688.277
243.045	18.810	899.555	688.169
244.059	18.842	898.869	687.713
245.074	18.809	898.248	687.044
246.088	19.007	897.660	687.323
247.103	19.158	897.011	687.369
248.117	19.124	896.863	687.060
249.132	19.312	896.619	687.562
250.147	19.523	895.963	687.839
251.161	19.507	895.505	687.365
252.176	19.684	894.252	687.045
253.190	19.760	893.466	686.683
254.205	19.689	893.335	686.240
255.220	19.765	892.450	685.797
256.234	19.662	891.861	684.879
257.249	19.561	891.438	684.094
258.263	19.506	890.454	683.058
259.278	19.527	890.107	682.817
260.293	19.623	889.405	682.594
261.307	19.691	888.884	682.402
262.322	19.616	888.346	681.633
263.336	19.777	887.273	681.385
264.351	19.747	886.987	680.988
265.366	19.766	886.503	680.630
266.380	19.695	885.769	679.725
267.395	19.690	884.726	678.848
268.409	19.650	883.393	677.607
269.424	19.648	882.919	677.175
270.439	19.708	882.234	676.828
271.453	19.588	881.516	675.746
272.468	19.519	880.917	674.957
273.482	19.409	880.861	674.425
274.497	19.622	880.020	674.553
275.512	19.593	879.578	674.042
276.526	19.378	879.420	673.019
277.541	19.590	878.497	673.082
278.555	19.868	877.930	673.668
279.570	19.971	877.375	673.586
280.585	19.899	876.649	672.690
281.599	19.690	875.523	670.952
282.614	19.665	874.772	670.222
283.628	19.712	874.324	670.001
284.643	19.672	873.717	669.323
285.657	19.690	873.236	668.962
286.672	19.754	872.553	668.629
287.687	19.820	872.064	668.451
288.701	19.819	871.650	668.068
289.716	19.829	870.879	667.459
290.730	19.814	870.173	666.799
291.745	19.893	869.675	666.663
292.760	20.025	868.730	666.387
293.774	20.147	868.539	666.653
294.789	19.927	868.235	665.514
295.803	19.910	866.867	664.341
296.818	19.742	866.528	663.380
297.833	19.743	866.128	663.017
298.847	19.919	865.185	662.910
299.862	19.925	864.861	662.628
300.876	20.067	864.390	662.749
301.891	20.047	863.670	662.062
302.906	20.315	863.161	662.639
303.920	20.238	863.187	662.307
304.935	20.447	862.017	662.147
305.949	20.268	861.239	660.807
306.964	20.244	860.532	660.116
307.979	20.166	860.249	659.542
308.993	20.288	859.853	659.645
310.008	20.296	859.413	659.279
311.022	20.090	858.762	657.941
312.037	20.082	857.981	657.253
313.052	19.909	857.101	655.867
314.066	19.868	856.587	655.260
315.081	19.915	856.052	654.968
316.095	19.980	855.617	654.826
317.110	20.101	854.447	654.328
318.125	19.809	854.595	653.281
319.139	19.823	854.145	652.933
320.154	20.021	853.186	652.886
321.168	20.000	853.024	652.625
322.183	20.045	852.503	652.338
323.197	20.042	851.952	651.850
324.212	20.036	851.377	651.328
325.227	19.983	850.667	650.529
326.241	19.990	849.700	649.757
327.256	20.035	849.449	649.677
328.270	20.028	848.897	649.170
329.285	20.074	848.315	648.840
330.300	19.912	848.147	648.049
331.314	19.982	847.516	647.771
332.329	20.145	847.060	647.975
333.343	20.261	846.576	647.979
334.358	20.342	846.224	647.957
335.373	20.242	845.990	647.347
336.387	20.435	845.523	647.650
337.402	20.456	845.237	647.452
338.416	20.506	844.927	647.345
339.431	20.705	844.509	647.710
340.446	20.653	844.424	647.392
341.460	20.823	843.978	647.625
342.475	20.694	843.680	646.859
343.489	20.865	842.687	646.677
344.504	20.697	843.222	646.407
345.519	20.731	842.185	645.678
346.533	20.778	841.377	645.176
347.548	20.569	840.947	644.016
348.562	20.492	840.132	643.049
349.577	20.411	839.823	642.458
350.592	20.443	838.641	641.612
351.606	20.457	838.007	641.123
352.621	20.506	837.259	640.676
353.635	20.508	836.633	640.145
354.650	20.508	836.473	639.969
355.665	20.693	835.588	639.913
356.679	20.673	835.330	639.585
357.694	20.736	834.332	638.998
358.708	20.785	833.700	638.635
359.723	20.810	833.005	638.139
360.738	20.650	832.577	637.167
361.752	20.819	832.369	637.572
362.767	20.883	831.805	637.317
363.781	21.070	830.734	637.122
364.796	20.994	830.860	636.885
365.810	21.261	830.174	637.279
366.825	21.333	829.974	637.332
367.840	21.131	829.962	636.530
368.854	21.042	828.872	635.313
369.869	20.864	828.664	634.448
370.883	20.920	828.471	634.447
371.898	21.094	828.059	634.711
372.913	21.160	827.428	634.411
373.927	21.050	827.029	633.647
374.942	21.145	826.337	633.405
375.956	21.248	825.796	633.309
376.971	21.322	825.597	633.368
377.986	21.388	825.135	633.198
379.000	21.426	824.574	632.848
380.015	21.371	823.889	632.069
381.029	21.484	823.245	631.925
382.044	21.277	822.835	630.807
383.059	21.507	822.092	631.011
384.073	21.370	821.623	630.103
385.088	21.130	821.128	628.802
386.102	20.899	820.568	627.488
387.117	21.086	819.907	627.600
388.132	21.170	818.660	626.889
389.146	21.133	818.822	626.827
390.161	21.302	818.458	627.100
391.175	21.321	817.772	626.584
392.190	21.223	817.457	625.938
393.205	21.326	816.780	625.731
394.219	21.195	816.699	625.145
395.234	21.169	815.835	624.336
396.248	21.050	815.483	623.586
397.263	21.131	814.523	623.086
398.278	21.044	814.275	622.531
399.292	20.948	814.331	622.176
400.307	20.887	813.433	621.218
401.321	21.033	813.169	621.480
402.336	20.947	812.901	620.916
403.350	21.217	812.326	621.382
404.365	21.249	812.013	621.199
405.380	21.347	811.653	621.220
406.394	21.544	810.749	621.172
407.409	21.584	810.675	621.202
408.423	21.691	810.578	621.452
409.438	21.713	809.979	621.015
410.453	21.682	809.832	620.737
411.467	21.670	809.641	620.494
412.482	21.719	809.154	620.240
413.496	21.831	808.570	620.133
414.511	21.740	808.255	619.514
415.526	21.914	807.521	619.511
416.540	21.754	806.855	618.381
417.555	21.838	806.746	618.539
418.569	21.816	806.281	618.052
419.584	21.818	805.811	617.643
420.599	21.792	805.470	617.236
421.613	158.586	1369.690	1788.527
422.628	137.799	1451.907	1788.645
