DTS Sentinel unit serial number:	SN413079Multiplexer serial number:	ORYXHardware model number:	OX4-SRSoftware version number:	ORYX F/W v4.00 Oryx Data Collector v3.7.2.0data status	okinstallation	princeton_trtdifferential loss correction	single-endedforward channel	channel 1reverse channel	N/Adate	2019/09/19time	04:02:35forward acquisition time	60.00reverse acquisition time	0.00gamma	496.2192k internal	0.2343k external	0.2343temperature offset calibration	1.0017default loss term (dB/km)	0.3790temperature slope calibration	1.0000multiplexer offset coefficient	1.0000multiplexer slope coefficient	1.0000fibre end	0.00T internal ref (°C)	20.42T ext. ref 1 (°C)	0.64T ext. ref 2 (°C)	14.00length (m)	temperature (°C)	Stokes	anti-Stokes-747.200	-37.791	0.184	0.098
-746.185	-111.555	-0.120	0.024
-745.171	181.108	0.171	-0.252
-744.156	43.261	0.118	0.108
-743.142	-86.745	-0.200	-0.061
-742.127	-200.000	0.028	0.291
-741.112	-200.000	0.008	-0.079
-740.098	-62.906	-0.229	0.095
-739.083	72.684	-0.169	0.177
-738.069	21.758	-0.286	0.234
-737.054	32.239	0.189	-0.164
-736.039	-200.000	-0.036	-0.214
-735.025	-82.222	0.140	0.046
-734.010	16.576	0.225	0.178
-732.996	-200.000	0.013	0.184
-731.981	-67.672	-0.148	0.058
-730.966	-179.589	-0.307	0.007
-729.952	257.785	-0.098	-0.169
-728.937	-31.452	-0.093	-0.052
-727.923	131.020	0.038	-0.049
-726.908	-56.293	-0.141	0.063
-725.894	33.948	0.252	-0.220
-724.879	-168.555	-0.140	-0.005
-723.864	-142.544	0.183	0.018
-722.850	-200.000	-0.082	0.393
-721.835	-64.734	0.097	-0.039
-720.821	-200.000	0.025	-0.243
-719.806	166.802	-0.194	-0.275
-718.791	-200.000	-0.045	0.247
-717.777	28.320	-0.242	-0.205
-716.762	120.065	0.317	0.393
-715.748	-200.000	-0.093	-0.000
-714.733	-105.358	0.139	0.032
-713.718	-164.655	-0.302	0.014
-712.704	-57.435	-0.098	0.043
-711.689	-103.850	0.157	-0.037
-710.675	-82.876	0.236	-0.076
-709.660	-16.760	0.261	-0.165
-708.645	-166.826	-0.343	0.014
-707.631	-100.387	0.255	0.063
-706.616	-113.432	-0.404	-0.079
-705.602	-200.000	-0.025	-0.118
-704.587	800.000	0.034	0.127
-703.572	-42.619	-0.267	-0.136
-702.558	-133.507	0.236	-0.030
-701.543	-57.715	0.361	0.158
-700.529	-26.230	0.137	-0.080
-699.514	85.435	0.236	-0.259
-698.499	-69.174	0.188	0.072
-697.485	-101.302	0.043	0.010
-696.470	537.797	0.111	-0.265
-695.456	-200.000	0.023	0.142
-694.441	399.920	0.112	0.234
-693.426	203.578	0.077	0.119
-692.412	525.664	-0.079	-0.185
-691.397	-200.000	0.045	-0.346
-690.383	2.354	-0.056	-0.040
-689.368	800.000	-0.042	-0.165
-688.354	286.264	-0.142	0.256
-687.339	6.014	0.115	0.085
-686.324	800.000	0.050	0.166
-685.310	-88.959	0.283	-0.084
-684.295	-200.000	0.029	0.410
-683.281	324.831	-0.098	-0.187
-682.266	529.642	-0.077	0.182
-681.251	-200.000	0.027	0.141
-680.237	27.359	-0.087	0.073
-679.222	800.000	0.098	-0.335
-678.208	-200.000	0.053	-0.293
-677.193	-39.578	-0.155	0.081
-676.178	800.000	-0.068	0.230
-675.164	299.150	0.075	0.138
-674.149	-40.227	0.163	0.085
-673.135	-129.349	0.294	0.041
-672.120	-200.000	0.003	-0.152
-671.105	-15.095	-0.121	0.078
-670.091	-10.096	0.054	-0.036
-669.076	23.776	-0.129	0.106
-668.062	239.537	-0.121	-0.201
-667.047	81.670	-0.143	-0.155
-666.032	280.863	-0.150	-0.268
-665.018	800.000	-0.030	-0.119
-664.003	-79.425	-0.077	-0.026
-662.989	523.460	-0.096	-0.225
-661.974	800.000	-0.141	-0.459
-660.959	-59.285	-0.049	0.021
-659.945	-55.761	-0.107	0.048
-658.930	-119.935	-0.197	0.034
-657.916	70.479	0.099	-0.102
-656.901	-13.518	0.235	-0.152
-655.886	800.000	-0.067	-0.277
-654.872	416.722	0.151	-0.322
-653.857	-200.000	0.001	0.065
-652.843	-17.280	0.167	-0.105
-651.828	37.017	0.114	-0.100
-650.814	-7.453	-0.106	-0.072
-649.799	70.553	0.048	0.050
-648.784	20.227	0.273	-0.220
-647.770	-53.604	-0.363	0.165
-646.755	300.850	-0.134	0.247
-645.741	82.780	0.082	0.089
-644.726	-59.098	-0.377	0.162
-643.711	324.112	-0.062	0.119
-642.697	-88.715	-0.337	-0.100
-641.682	157.592	-0.180	-0.249
-640.668	-200.000	0.008	-0.201
-639.653	634.579	-0.117	0.296
-638.638	-119.533	0.104	-0.018
-637.624	-30.536	-0.138	-0.078
-636.609	221.375	-0.112	-0.179
-635.595	-200.000	0.007	0.227
-634.580	392.973	0.173	0.359
-633.565	-200.000	0.061	-0.277
-632.551	247.539	-0.079	-0.133
-631.536	-125.362	-0.327	0.050
-630.522	197.814	-0.130	-0.199
-629.507	726.590	0.137	0.365
-628.492	195.480	0.094	0.143
-627.478	-200.000	-0.001	-0.027
-626.463	-177.911	-0.267	-0.006
-625.449	-82.102	0.182	-0.059
-624.434	-127.774	-0.191	0.027
-623.419	-26.871	-0.178	-0.104
-622.405	12.542	-0.348	-0.268
-621.390	-200.000	0.032	-0.240
-620.376	-93.399	0.173	0.048
-619.361	172.947	0.052	-0.075
-618.346	266.595	0.138	-0.240
-617.332	19.457	-0.144	-0.115
-616.317	-106.448	0.230	0.051
-615.303	20.946	-0.392	-0.317
-614.288	-200.000	0.026	0.554
-613.273	-31.286	0.182	0.102
-612.259	-162.298	-0.026	-0.001
-611.244	41.644	0.121	-0.109
-610.230	-52.304	0.185	0.085
-609.215	-200.000	0.020	0.330
-608.201	112.733	0.101	0.121
-607.186	-157.807	-0.196	-0.012
-606.171	58.939	-0.341	-0.334
-605.157	-43.294	0.535	0.270
-604.142	800.000	-0.088	-0.262
-603.128	76.181	0.228	-0.241
-602.113	-104.468	0.208	0.048
-601.098	23.073	0.195	-0.159
-600.084	-200.000	-0.040	0.240
-599.069	250.663	-0.111	0.188
-598.055	590.415	0.117	0.287
-597.040	177.559	0.087	0.127
-596.025	-99.260	-0.376	0.094
-595.011	-126.952	0.303	-0.044
-593.996	-200.000	0.012	0.241
-592.982	77.165	0.093	0.098
-591.967	-97.120	-0.101	-0.026
-590.952	-0.703	-0.190	0.134
-589.938	-42.875	0.282	0.143
-588.923	50.419	-0.038	0.036
-587.909	800.000	0.014	0.045
-586.894	-113.382	-0.166	-0.032
-585.879	800.000	0.013	0.053
-584.865	-105.253	0.136	0.031
-583.850	-94.872	0.268	-0.072
-582.836	-21.064	-0.207	-0.126
-581.821	-200.000	0.007	0.188
-580.806	1.691	0.070	-0.050
-579.792	12.463	0.345	-0.265
-578.777	292.558	-0.089	0.162
-577.763	-36.878	-0.461	0.246
-576.748	-200.000	-0.003	0.085
-575.733	-102.635	0.265	-0.063
-574.719	-72.610	0.257	-0.094
-573.704	-200.000	-0.013	-0.191
-572.690	-120.690	0.026	0.004
-571.675	-200.000	0.022	0.186
-570.661	-3.629	0.161	-0.112
-569.646	-200.000	-0.009	0.063
-568.631	-172.314	0.084	-0.003
-567.617	104.949	-0.206	-0.241
-566.602	800.000	-0.048	0.176
-565.588	-143.289	0.075	0.007
-564.573	302.778	-0.100	0.184
-563.558	68.456	0.291	0.297
-562.544	-28.545	0.124	-0.071
-561.529	-4.337	0.265	0.182
-560.515	275.416	-0.080	0.142
-559.500	-165.951	-0.213	0.009
-558.485	-200.000	-0.011	-0.179
-557.471	-82.948	0.074	0.024
-556.456	-22.910	-0.115	-0.069
-555.442	-200.000	-0.041	0.260
-554.427	53.464	-0.222	-0.212
-553.412	-78.530	0.125	-0.042
-552.398	-113.958	0.226	0.043
-551.383	-200.000	-0.017	-0.189
-550.369	119.324	0.055	-0.068
-549.354	319.807	-0.114	0.215
-548.339	121.119	0.319	0.395
-547.325	-200.000	-0.071	-0.327
-546.310	-140.538	0.059	0.006
-545.296	-200.000	0.002	-0.334
-544.281	-200.000	-0.006	0.341
-543.266	212.575	-0.178	0.279
-542.252	-200.000	-0.013	-0.070
-541.237	342.423	-0.052	0.102
-540.223	-200.000	0.031	-0.218
-539.208	-97.168	0.340	-0.088
-538.193	-2.642	0.254	0.176
-537.179	-93.475	-0.073	-0.020
-536.164	-53.888	-0.156	-0.070
-535.150	800.000	0.032	0.108
-534.135	175.953	-0.132	0.190
-533.121	-95.735	0.202	-0.054
-532.106	-64.539	0.131	-0.053
-531.091	217.136	0.113	-0.179
-530.077	404.381	-0.118	-0.246
-529.062	54.936	0.196	-0.188
-528.048	-200.000	0.048	0.383
-527.033	-200.000	0.018	-0.167
-526.018	-73.649	0.186	-0.067
-525.004	571.244	-0.105	0.255
-523.989	219.408	0.160	-0.255
-522.975	95.594	-0.162	-0.183
-521.960	-200.000	-0.033	-0.153
-520.945	-200.000	-0.006	-0.066
-519.931	-156.466	0.245	-0.015
-518.916	-132.891	0.228	0.029
-517.902	19.928	0.305	-0.244
-516.887	-200.000	0.020	0.196
-515.872	-149.054	0.073	0.006
-514.858	137.090	-0.066	-0.086
-513.843	-102.114	-0.248	0.059
-512.829	-200.000	-0.002	0.090
-511.814	95.122	-0.289	-0.326
-510.799	171.947	-0.120	-0.171
-509.785	-81.229	-0.138	0.045
-508.770	-200.000	0.014	-0.061
-507.756	-200.000	-0.015	0.237
-506.741	478.561	-0.061	-0.137
-505.726	-200.000	-0.028	0.185
-504.712	-200.000	-0.059	-0.273
-503.697	-200.000	-0.007	-0.056
-502.683	-200.000	-0.014	-0.268
-501.668	-125.061	0.196	0.030
-500.653	-61.952	-0.267	-0.111
-499.639	800.000	0.055	0.157
-498.624	343.396	0.245	-0.476
-497.610	133.528	-0.191	0.244
-496.595	-200.000	0.016	0.109
-495.581	-200.000	0.005	0.164
-494.566	-33.546	-0.168	0.092
-493.551	217.012	0.051	-0.080
-492.537	-19.638	0.059	-0.036
-491.522	85.670	0.129	-0.141
-490.508	800.000	0.091	-0.291
-489.493	33.217	-0.321	0.276
-488.478	103.790	-0.147	-0.172
-487.464	-130.977	0.104	-0.014
-486.449	-72.095	-0.202	-0.074
-485.435	667.636	0.092	0.237
-484.420	-71.442	-0.094	0.035
-483.405	800.000	0.117	-0.321
-482.391	78.420	-0.234	0.248
-481.376	-136.975	-0.403	0.046
-480.362	-67.523	0.159	0.062
-479.347	185.247	0.154	-0.226
-478.332	-30.205	0.036	-0.020
-477.318	478.127	-0.099	-0.221
-476.303	147.426	-0.078	0.105
-475.289	-200.000	-0.019	-0.147
-474.274	-200.000	-0.024	0.135
-473.259	-153.402	-0.125	0.009
-472.245	62.612	0.161	-0.159
-471.230	168.144	0.206	0.291
-470.216	239.357	-0.089	-0.146
-469.201	-93.619	-0.257	-0.070
-468.186	-74.090	0.035	0.012
-467.172	-134.875	-0.273	-0.033
-466.157	-200.000	-0.019	0.139
-465.143	-61.105	-0.122	0.051
-464.128	21.121	-0.155	-0.125
-463.113	-85.920	0.269	-0.082
-462.099	-30.226	-0.174	-0.098
-461.084	209.885	-0.169	-0.263
-460.070	132.878	0.094	-0.120
-459.055	-200.000	-0.017	0.153
-458.040	734.274	-0.150	0.397
-457.026	-75.795	0.112	-0.039
-456.011	-173.461	0.218	-0.007
-454.997	147.349	-0.064	0.085
-453.982	229.633	-0.057	-0.093
-452.968	286.188	0.103	0.184
-451.953	-200.000	0.076	0.569
-450.938	47.251	0.202	0.186
-449.924	-75.523	-0.094	0.033
-448.909	-200.000	-0.021	0.374
-447.895	-11.231	0.339	0.221
-446.880	151.781	0.107	-0.145
-445.865	800.000	-0.048	0.137
-444.851	-6.843	0.241	0.162
-443.836	233.439	-0.147	-0.240
-442.822	74.222	0.114	-0.119
-441.807	-200.000	-0.034	0.412
-440.792	195.708	-0.091	0.137
-439.778	-200.000	0.007	-0.154
-438.763	21.686	0.093	0.075
-437.749	123.085	0.091	0.113
-436.734	-84.701	0.114	0.036
-435.719	800.000	-0.040	-0.152
-434.705	104.670	0.171	-0.200
-433.690	32.725	0.120	-0.103
-432.676	-200.000	-0.030	-0.242
-431.661	-124.926	-0.088	0.013
-430.646	-200.000	-0.002	0.049
-429.632	270.123	-0.327	-0.568
-428.617	-200.000	-0.030	-0.181
-427.603	-112.295	0.231	-0.046
-426.588	105.655	-0.048	0.056
-425.573	-35.702	0.122	-0.065
-424.559	-160.637	0.161	0.008
-423.544	134.781	-0.128	-0.164
-422.530	353.350	-0.112	-0.219
-421.515	-58.070	0.465	0.201
-420.500	-39.903	-0.345	0.178
-419.486	800.000	0.111	0.430
-418.471	-134.669	0.241	0.029
-417.457	800.000	-0.124	-0.386
-416.442	-151.387	-0.143	-0.011
-415.428	-21.824	0.205	0.123
-414.413	149.876	0.268	-0.360
-413.398	-139.414	-0.209	0.022
-412.384	4.011	-0.219	0.158
-411.369	187.099	0.313	-0.461
-410.355	-9.795	0.146	-0.096
-409.340	44.425	-0.141	-0.128
-408.325	372.064	0.188	-0.377
-407.311	-105.683	-0.328	-0.073
-406.296	-200.000	0.020	0.196
-405.282	118.786	0.102	0.125
-404.267	-95.760	0.100	0.026
-403.252	51.874	0.014	-0.013
-402.238	18.187	-0.197	-0.155
-401.223	-13.547	-0.270	-0.173
-400.209	176.259	-0.076	-0.109
-399.194	-200.000	-0.028	0.349
-398.179	-13.257	-0.071	0.045
-397.165	-200.000	0.045	0.211
-396.150	199.401	-0.089	-0.135
-395.136	-0.987	0.174	-0.122
-394.121	800.000	0.075	0.218
-393.106	-0.353	-0.302	-0.212
-392.092	30.421	-0.315	-0.266
-391.077	183.437	-0.086	0.126
-390.063	-45.395	-0.275	0.135
-389.048	-200.000	0.049	0.262
-388.033	592.792	-0.045	0.110
-387.019	-87.124	-0.077	0.023
-386.004	22.589	0.258	0.208
-384.990	-128.673	-0.234	0.033
-383.975	76.477	-0.137	-0.143
-382.960	-168.979	0.274	0.010
-381.946	-53.698	-0.128	0.058
-380.931	56.842	-0.241	-0.232
-379.917	-200.000	-0.027	0.298
-378.902	237.946	-0.281	-0.461
-377.888	-200.000	0.019	0.157
-376.873	-29.936	0.224	0.126
-375.858	-38.884	-0.225	-0.117
-374.844	128.508	0.163	0.205
-373.829	233.879	-0.203	-0.330
-372.815	-200.000	-0.004	-0.248
-371.800	613.947	-0.026	0.064
-370.785	800.000	-0.066	0.261
-369.771	-71.898	0.201	-0.074
-368.756	34.248	-0.127	0.109
-367.742	21.553	0.277	-0.223
-366.727	-200.000	-0.031	-0.150
-365.712	-84.354	-0.178	-0.056
-364.698	-76.707	-0.136	0.047
-363.683	235.416	-0.079	-0.129
-362.669	-7.522	-0.172	-0.115
-361.654	-173.525	-0.220	0.007
-360.639	13.253	0.170	0.130
-359.625	-13.309	0.139	-0.089
-358.610	-89.837	0.189	-0.055
-357.596	1.398	0.030	-0.021
-356.581	-89.433	-0.357	-0.104
-355.566	712.897	0.115	-0.300
-354.552	-200.000	-0.034	0.264
-353.537	-200.000	-0.036	0.212
-352.523	116.530	-0.099	0.120
-351.508	-92.005	-0.242	0.068
-350.493	-149.021	0.212	0.017
-349.479	-7.851	-0.069	-0.046
-348.464	-200.000	0.000	-0.137
-347.450	-52.153	0.217	0.099
-346.435	-38.950	0.207	-0.107
-345.420	800.000	0.028	0.098
-344.406	185.123	0.177	0.259
-343.391	-200.000	0.001	0.419
-342.377	430.942	-0.082	0.175
-341.362	86.947	-0.157	0.171
-340.348	-135.294	0.234	-0.028
-339.333	-158.996	-0.043	0.002
-338.318	91.444	-0.293	0.325
-337.304	600.902	0.181	-0.442
-336.289	-113.793	0.293	0.056
-335.275	-78.810	-0.235	-0.079
-334.260	28.493	-0.107	-0.089
-333.245	-100.991	0.273	0.066
-332.231	67.326	-0.213	-0.214
-331.216	61.390	-0.233	-0.228
-330.202	208.715	0.102	0.157
-329.187	44.901	0.063	-0.058
-328.172	-32.791	-0.095	0.052
-327.158	-200.000	0.010	-0.146
-326.143	139.862	-0.047	0.061
-325.129	76.990	0.207	-0.216
-324.114	-200.000	0.008	0.148
-323.099	90.523	-0.185	-0.204
-322.085	-75.343	-0.494	-0.173
-321.070	-200.000	-0.010	-0.084
-320.056	-10.507	-0.115	-0.075
-319.041	-200.000	0.036	-0.280
-318.026	-102.469	-0.288	-0.068
-317.012	-76.153	-0.061	-0.021
-315.997	800.000	-0.070	-0.195
-314.983	-91.174	0.148	0.042
-313.968	77.537	0.370	-0.387
-312.953	458.553	-0.214	-0.469
-311.939	220.111	-0.044	-0.070
-310.924	800.000	-0.110	0.399
-309.910	-9.726	0.182	-0.119
-308.895	-49.022	-0.359	0.169
-307.880	-175.071	0.142	0.004
-306.866	186.949	-0.301	-0.441
-305.851	44.610	0.153	0.139
-304.837	187.051	-0.076	-0.111
-303.822	124.521	0.178	-0.221
-302.807	166.028	-0.123	-0.172
-301.793	226.812	0.121	-0.194
-300.778	29.707	0.226	0.189
-299.764	-200.000	0.014	-0.074
-298.749	-23.470	0.247	0.146
-297.735	-2.406	0.137	-0.095
-296.720	-46.905	-0.214	0.103
-295.705	140.198	-0.068	0.088
-294.691	-132.877	-0.161	0.020
-293.676	-92.030	0.238	0.066
-292.662	-66.023	-0.122	0.048
-291.647	83.897	-0.188	-0.202
-290.632	-24.362	-0.363	0.213
-289.618	202.111	0.191	0.289
-288.603	-200.000	0.033	0.233
-287.589	384.012	-0.083	0.168
-286.574	800.000	0.124	0.384
-285.559	-200.000	-0.020	0.109
-284.545	-200.000	0.013	0.132
-283.530	66.692	-0.189	0.189
-282.516	-101.373	-0.141	0.034
-281.501	124.113	0.156	-0.193
-280.486	47.396	0.209	0.191
-279.472	666.853	-0.052	0.132
-278.457	-73.007	0.079	0.029
-277.443	-200.000	0.059	0.402
-276.428	800.000	-0.076	0.206
-275.413	24.773	0.168	0.137
-274.399	-7.828	0.287	0.191
-273.384	313.297	0.038	0.070
-272.370	22.416	-0.032	-0.026
-271.355	-200.000	-0.027	-0.129
-270.340	162.209	-0.066	-0.091
-269.326	167.203	0.027	-0.037
-268.311	40.850	-0.151	-0.134
-267.297	-36.408	-0.098	0.052
-266.282	346.381	-0.030	0.057
-265.267	-29.801	0.268	0.150
-264.253	771.438	0.092	0.246
-263.238	-9.013	-0.204	-0.134
-262.224	-58.240	0.180	-0.077
-261.209	-99.160	0.152	-0.038
-260.195	-200.000	0.017	-0.113
-259.180	-118.896	0.166	0.029
-258.165	31.378	0.195	0.164
-257.151	597.668	0.101	0.246
-256.136	-88.876	-0.173	0.050
-255.122	153.102	-0.060	-0.081
-254.107	-20.500	0.031	0.019
-253.092	233.146	-0.126	0.203
-252.078	-132.977	-0.216	0.027
-251.063	-10.800	-0.123	0.080
-250.049	357.515	-0.078	0.152
-249.034	-88.234	-0.064	-0.019
-248.019	179.566	0.074	0.107
-247.005	800.000	0.086	0.280
-245.990	-200.000	-0.015	0.323
-244.976	800.000	-0.056	0.161
-243.961	-200.000	0.071	0.312
-242.946	-68.550	-0.126	-0.048
-241.932	4.511	0.140	0.101
-240.917	41.343	0.225	-0.199
-239.903	-200.000	-0.046	-0.267
-238.888	-128.270	-0.270	-0.038
-237.873	-133.360	0.225	-0.028
-236.859	800.000	0.030	-0.109
-235.844	-96.105	0.175	-0.046
-234.830	189.582	-0.117	-0.172
-233.815	-97.762	0.328	-0.083
-232.800	-94.534	-0.129	-0.034
-231.786	800.000	-0.118	-0.386
-230.771	-200.000	0.010	-0.358
-229.757	-200.000	0.013	-0.215
-228.742	-141.867	0.121	0.012
-227.727	71.126	-0.144	-0.146
-226.713	-39.037	-0.003	0.002
-225.698	7.383	0.248	0.182
-224.684	348.513	-0.053	-0.102
-223.669	183.285	0.141	-0.205
-222.655	800.000	0.074	0.252
-221.640	6.298	-0.211	0.154
-220.625	-200.000	-0.012	0.163
-219.611	-143.449	-0.147	0.014
-218.596	70.172	0.097	-0.098
-217.582	75.906	-0.155	0.161
-216.567	-110.786	0.208	-0.042
-215.552	62.884	0.087	-0.085
-214.538	462.856	0.103	-0.226
-213.523	15.930	-0.052	-0.040
-212.509	-157.795	0.199	0.012
-211.494	-22.879	-0.346	-0.205
-210.479	13.014	-0.246	0.186
-209.465	-29.934	0.160	-0.089
-208.450	96.675	0.038	0.043
-207.436	325.702	-0.051	0.095
-206.421	-161.210	-0.113	-0.006
-205.406	-44.772	0.237	-0.116
-204.392	800.000	-0.044	-0.123
-203.377	-125.646	-0.160	0.024
-202.363	-61.020	-0.294	-0.122
-201.348	-88.665	-0.453	0.132
-200.333	-68.449	0.245	-0.093
-199.319	-116.700	0.115	0.021
-198.304	289.316	0.117	0.208
-197.290	-154.498	0.088	0.006
-196.275	-27.817	0.077	-0.043
-195.260	-200.000	0.029	-0.424
-194.246	-100.857	-0.499	0.120
-193.231	-155.662	0.080	-0.005
-192.217	-200.000	-0.010	-0.194
-191.202	-200.000	-0.071	-0.324
-190.187	-89.978	-0.097	0.028
-189.173	548.222	0.045	0.105
-188.158	-27.200	0.104	-0.059
-187.144	-103.320	-0.279	-0.065
-186.129	-200.000	-0.025	-0.166
-185.114	30.958	0.098	0.082
-184.100	-79.776	-0.071	0.023
-183.085	-84.485	0.374	0.116
-182.071	472.490	0.074	-0.164
-181.056	-200.000	0.029	-0.322
-180.042	15.033	0.170	-0.131
-179.027	800.000	0.042	-0.136
-178.012	187.419	0.172	0.251
-176.998	800.000	-0.058	-0.231
-175.983	143.290	0.160	0.209
-174.969	177.664	0.140	0.200
-173.954	72.315	-0.069	-0.070
-172.939	63.960	0.246	0.242
-171.925	800.000	0.047	0.139
-170.910	94.440	0.199	0.221
-169.896	15.349	-0.338	-0.259
-168.881	-22.363	-0.100	0.059
-167.866	800.000	-0.112	0.353
-166.852	398.282	0.139	-0.285
-165.837	-10.262	0.457	-0.297
-164.823	259.403	-0.121	-0.204
-163.808	-51.841	0.256	0.117
-162.793	-138.387	-0.206	-0.022
-161.779	51.556	-0.111	0.104
-160.764	24.965	0.276	0.224
-159.750	1.712	-0.038	0.027
-158.735	-46.556	0.206	0.099
-157.720	-200.000	0.017	0.122
-156.706	-58.206	0.236	-0.101
-155.691	-131.806	0.064	0.008
-154.677	-5.379	0.068	-0.046
-153.662	100.842	0.077	-0.088
-152.647	-22.068	-0.331	0.196
-151.633	318.794	0.113	0.210
-150.618	-30.962	0.306	0.169
-149.604	40.629	-0.046	-0.041
-148.589	-158.851	0.386	0.022
-147.574	83.829	0.118	0.126
-146.560	-65.647	-0.216	0.085
-145.545	-49.478	0.309	-0.144
-144.531	519.183	-0.177	0.406
-143.516	-200.000	0.010	0.341
-142.502	-77.318	-0.348	0.118
-141.487	124.610	0.159	-0.196
-140.472	-200.000	-0.033	-0.260
-139.458	800.000	-0.028	-0.085
-138.443	105.481	-0.072	0.084
-137.429	-200.000	0.023	0.175
-136.414	1.474	0.105	0.074
-135.399	-61.965	-0.251	-0.103
-134.385	-200.000	0.001	-0.189
-133.370	236.000	-0.157	0.254
-132.356	-200.000	-0.008	0.045
-131.341	-102.556	-0.258	0.060
-130.326	-200.000	-0.185	-0.001
-129.312	-72.168	-0.088	0.032
-128.297	-71.544	0.011	0.004
-127.283	-0.975	-0.393	0.272
-126.268	469.233	-0.066	-0.145
-125.253	-118.745	-0.093	-0.016
-124.239	-200.000	-0.054	-0.306
-123.224	107.058	0.202	0.234
-122.210	-58.641	0.205	0.087
-121.195	-101.400	0.078	0.019
-120.180	755.884	-0.141	0.372
-119.166	82.554	0.187	0.198
-118.151	64.782	0.081	0.080
-117.137	-131.365	0.098	0.013
-116.122	800.000	-0.147	0.554
-115.107	-137.630	-0.134	0.015
-114.093	-95.723	-0.150	0.039
-113.078	-82.938	-0.332	0.105
-112.064	-200.000	-0.023	0.108
-111.049	97.022	-0.122	0.137
-110.034	-81.965	0.056	-0.018
-109.020	-155.416	-0.206	-0.013
-108.005	-48.274	-0.128	0.060
-106.991	463.590	-0.032	-0.069
-105.976	-158.290	0.044	-0.003
-104.962	-200.000	-0.010	-0.213
-103.947	-103.087	-0.121	0.028
-102.932	-200.000	0.001	0.098
-101.918	-152.665	-0.313	-0.022
-100.903	-45.899	0.390	0.188
-99.889	7.156	-0.170	0.124
-98.874	9.013	0.097	-0.071
-97.859	-120.867	-0.196	-0.032
-96.845	-200.000	-0.034	-0.237
-95.830	-187.541	-0.456	-0.006
-94.816	329.436	0.049	0.093
-93.801	800.000	0.059	0.183
-92.786	258.229	0.046	-0.077
-91.772	-67.621	-0.364	-0.139
-90.757	-151.611	0.183	-0.013
-89.743	50.660	0.035	-0.032
-88.728	15.432	0.310	0.237
-87.713	142.205	-0.062	0.081
-86.699	-6.638	0.051	-0.034
-85.684	11.566	-0.128	-0.095
-84.670	-130.487	0.370	-0.049
-83.655	-65.320	0.088	-0.035
-82.640	-200.000	0.050	-0.262
-81.626	-200.000	-0.007	0.221
-80.611	-200.000	-0.032	0.152
-79.597	49.574	-0.230	0.211
-78.582	138.368	-0.196	0.251
-77.567	-36.902	0.206	0.108
-76.553	-200.000	-0.006	0.442
-75.538	800.000	0.049	0.184
-74.524	786.091	-0.056	-0.149
-73.509	-55.902	-0.116	-0.051
-72.494	18.522	0.109	-0.085
-71.480	800.000	0.045	0.160
-70.465	-54.172	-0.141	0.063
-69.451	-54.206	-0.142	0.063
-68.436	-131.913	-0.140	-0.018
-67.422	-200.000	0.020	-0.111
-66.407	-200.000	0.108	-0.601
-65.392	-79.532	0.290	0.095
-64.378	-32.356	0.168	0.091
-63.363	459.117	0.107	0.233
-62.349	800.000	-0.061	0.195
-61.334	8.580	-1.244	-0.913
-60.319	4.809	1.050	0.752
-59.305	355.234	-0.646	-1.253
-58.290	175.077	0.934	1.319
-57.276	800.000	0.473	1.602
-56.261	-200.000	136.685	657.436
-55.246	334.185	1670.095	3150.432
-54.232	134.636	2796.963	3537.205
-53.217	84.774	2170.520	2316.855
-52.203	31.196	1601.474	1339.191
-51.188	23.478	1351.829	1083.435
-50.173	21.430	1316.570	1042.930
-49.159	48.681	1390.065	1269.917
-48.144	44.617	1399.522	1253.543
-47.130	23.621	1347.057	1080.305
-46.115	20.479	1328.180	1046.240
-45.100	20.514	1322.597	1042.012
-44.086	20.278	1320.230	1038.693
-43.071	20.253	1318.449	1037.098
-42.057	20.275	1316.015	1035.275
-41.042	20.311	1314.270	1034.078
-40.027	20.342	1312.898	1033.141
-39.013	20.253	1310.945	1031.033
-37.998	20.334	1309.318	1030.196
-36.984	20.461	1306.888	1028.995
-35.969	20.437	1305.885	1028.019
-34.954	20.493	1303.777	1026.648
-33.940	20.413	1302.848	1025.405
-32.925	20.544	1301.435	1025.024
-31.911	20.518	1299.802	1023.544
-30.896	20.494	1298.397	1022.256
-29.881	20.430	1297.426	1021.077
-28.867	20.480	1296.124	1020.304
-27.852	20.485	1294.920	1019.346
-26.838	20.471	1293.722	1018.280
-25.823	20.521	1291.962	1017.147
-24.809	20.472	1290.118	1015.369
-23.794	20.413	1289.180	1014.244
-22.779	20.522	1288.092	1013.987
-21.765	20.573	1286.486	1012.980
-20.750	20.602	1285.363	1012.223
-19.736	20.415	1283.975	1010.000
-18.721	20.284	1283.450	1008.786
-17.706	20.367	1281.983	1008.077
-16.692	20.293	1280.701	1006.600
-15.677	20.417	1279.568	1006.388
-14.663	20.340	1278.281	1004.892
-13.648	20.383	1277.046	1004.128
-12.633	20.434	1275.964	1003.532
-11.619	20.340	1275.891	1002.889
-10.604	20.388	1274.714	1002.206
-9.590	20.397	1273.875	1001.558
-8.575	20.448	1272.526	1000.751
-7.560	20.420	1272.087	1000.201
-6.546	20.335	1271.501	999.214
-5.531	20.378	1270.260	998.447
-4.517	20.350	1269.749	997.843
-3.502	20.411	1268.921	997.501
-2.487	20.395	1268.244	996.840
-1.473	20.375	1262.983	992.549
-0.458	18.691	1247.962	971.189
0.556	14.176	1232.400	933.642
1.571	10.668	1240.669	919.969
2.586	9.969	1256.530	927.638
3.600	10.231	1244.076	919.849
4.615	7.766	1172.530	853.655
5.629	2.928	1103.600	778.913
6.644	0.684	1087.778	756.454
7.659	0.622	1085.852	754.737
8.673	0.619	1085.008	754.069
9.688	0.635	1083.370	752.944
10.702	0.705	1080.868	751.484
11.717	3.651	1084.439	768.580
12.731	9.937	1092.480	805.652
13.746	15.411	1099.203	837.943
14.761	17.075	1101.821	848.189
15.775	16.488	1100.333	844.037
16.790	15.574	1098.172	837.750
17.804	14.735	1096.735	832.400
18.819	14.487	1095.042	829.808
19.834	14.316	1094.455	828.436
20.848	14.069	1093.570	826.466
21.863	13.864	1092.914	824.878
22.877	13.642	1092.287	823.228
23.892	13.656	1091.361	822.531
24.907	13.725	1090.254	821.963
25.921	13.761	1089.389	821.417
26.936	13.604	1089.089	820.341
27.950	13.845	1087.193	820.035
28.965	13.816	1086.464	819.268
29.980	13.902	1084.781	818.348
30.994	13.914	1083.780	817.581
32.009	13.834	1083.228	816.698
33.023	13.828	1081.726	815.462
34.038	13.758	1081.311	814.733
35.053	13.759	1080.468	814.033
36.067	13.757	1079.491	813.212
37.082	13.851	1078.577	812.916
38.096	13.895	1077.904	812.550
39.111	13.760	1077.151	811.252
40.126	13.768	1075.543	810.007
41.140	13.614	1074.877	808.681
42.155	13.709	1073.243	807.843
43.169	13.553	1072.804	806.685
44.184	13.644	1071.309	805.930
45.199	13.694	1069.930	805.065
46.213	13.671	1069.114	804.268
47.228	13.733	1067.990	803.651
48.242	13.724	1067.172	802.921
49.257	13.529	1066.169	801.152
50.271	13.722	1065.291	801.355
51.286	13.678	1064.513	800.485
52.301	13.739	1063.492	799.940
53.315	13.706	1062.530	798.989
54.330	13.763	1060.794	797.887
55.344	13.700	1060.316	797.155
56.359	13.754	1059.933	797.056
57.374	13.666	1058.621	795.573
58.388	13.623	1058.333	795.082
59.403	13.549	1057.575	794.086
60.417	13.662	1056.196	793.523
61.432	13.592	1055.475	792.576
62.447	13.626	1054.801	792.160
63.461	13.661	1053.928	791.602
64.476	13.623	1052.959	790.625
65.490	13.640	1051.948	789.875
66.505	13.530	1051.625	789.038
67.520	13.742	1050.459	789.105
68.534	13.627	1050.259	788.337
69.549	13.677	1048.876	787.466
70.563	13.599	1048.678	786.875
71.578	13.547	1048.039	786.082
72.593	13.597	1046.968	785.445
73.607	13.534	1046.325	784.594
74.622	13.708	1044.908	784.284
75.636	13.607	1044.519	783.447
76.651	13.657	1043.734	783.027
77.666	13.573	1043.280	782.218
78.680	13.594	1042.480	781.650
79.695	13.584	1042.318	781.412
80.709	13.628	1041.575	780.994
81.724	13.595	1040.569	780.014
82.739	13.704	1039.575	779.714
83.753	13.787	1038.757	779.418
84.768	13.752	1037.869	778.520
85.782	13.817	1036.921	778.044
86.797	13.913	1036.204	777.887
87.812	13.628	1035.199	775.731
88.826	13.714	1034.585	775.604
89.841	13.736	1033.603	774.905
90.855	13.696	1032.897	774.118
91.870	13.771	1031.757	773.544
92.884	13.925	1030.277	773.086
93.899	13.784	1030.152	772.267
94.914	13.846	1028.738	771.425
95.928	13.913	1028.313	771.350
96.943	13.897	1027.192	770.366
97.957	13.777	1026.656	769.341
98.972	13.932	1025.126	768.841
99.987	13.788	1024.235	767.441
101.001	13.848	1023.632	767.200
102.016	13.823	1022.756	766.356
103.030	13.933	1022.073	766.285
104.045	13.979	1020.986	765.617
105.060	13.755	1020.871	764.430
106.074	13.792	1019.297	763.351
107.089	13.847	1017.995	762.562
108.103	13.726	1017.466	761.543
109.118	13.715	1016.627	760.798
110.133	13.618	1016.250	760.002
111.147	13.798	1014.886	759.740
112.162	13.730	1014.266	758.897
113.176	13.682	1013.565	758.087
114.191	13.715	1012.603	757.450
115.206	13.757	1011.797	756.973
116.220	13.843	1010.734	756.503
117.235	13.715	1009.902	755.228
118.249	13.608	1009.089	754.067
119.264	13.800	1007.887	753.976
120.279	13.662	1007.701	753.144
121.293	13.784	1006.452	752.697
122.308	13.761	1005.838	752.064
123.322	13.721	1004.599	750.893
124.337	13.750	1003.087	749.826
125.352	13.713	1002.456	749.122
126.366	13.837	1001.003	748.529
127.381	13.751	1000.480	747.684
128.395	13.771	999.527	746.994
129.410	13.735	998.603	746.077
130.424	13.772	997.651	745.466
131.439	13.758	996.632	744.578
132.454	13.772	996.277	744.309
133.468	13.871	995.071	743.786
134.483	13.794	994.555	742.990
135.497	13.741	993.735	742.075
136.512	13.716	992.662	741.092
137.527	13.857	991.850	741.053
138.541	13.811	991.220	740.313
139.556	13.838	990.376	739.734
140.570	13.853	989.554	739.123
141.585	13.866	988.823	738.567
142.600	13.968	988.035	738.369
143.614	13.865	987.184	737.208
144.629	14.002	986.238	737.045
145.643	13.983	985.785	736.558
146.658	13.838	984.337	734.769
147.673	14.014	983.373	734.760
148.687	13.891	982.626	733.598
149.702	13.738	982.023	732.405
150.716	13.896	981.229	732.445
151.731	13.896	980.161	731.582
152.746	13.921	979.752	731.321
153.760	14.000	979.194	731.191
154.775	14.034	978.009	730.392
155.789	13.993	977.878	730.049
156.804	14.194	976.290	729.679
157.819	14.057	976.309	729.029
158.833	14.040	975.685	728.421
159.848	14.084	974.676	727.799
160.862	14.060	973.849	727.011
161.877	14.100	972.883	726.399
162.892	14.126	971.902	725.714
163.906	14.072	970.848	724.630
164.921	14.057	970.202	724.020
165.935	13.985	969.337	722.993
166.950	14.103	967.888	722.363
167.964	14.058	967.354	721.705
168.979	14.165	966.053	721.135
169.994	14.226	965.070	720.601
171.008	14.195	964.754	720.167
172.023	14.121	963.982	719.210
173.037	14.291	963.315	719.380
174.052	14.120	962.837	718.221
175.067	14.226	961.674	717.749
176.081	14.126	961.281	716.962
177.096	14.178	960.868	716.813
178.110	14.282	959.790	716.393
179.125	14.193	959.600	715.806
180.140	14.266	958.887	715.522
181.154	14.215	958.456	714.917
182.169	14.184	957.914	714.317
183.183	14.318	957.491	714.514
184.198	14.385	956.064	713.671
185.213	14.319	955.671	713.036
186.227	14.388	955.118	712.853
187.242	14.463	953.725	712.071
188.256	14.314	953.842	711.459
189.271	14.469	952.607	711.136
190.286	14.318	952.075	710.034
191.300	14.113	951.603	708.745
192.315	14.276	950.773	708.756
193.329	14.230	950.422	708.236
194.344	14.316	949.767	708.052
195.359	14.214	949.046	707.018
196.373	14.491	948.096	707.423
197.388	14.319	948.024	706.580
198.402	14.616	946.689	706.779
199.417	14.506	946.834	706.358
200.432	14.549	946.014	705.866
201.446	14.552	945.481	705.420
202.461	14.747	944.753	705.637
203.475	14.625	944.609	704.952
204.490	14.588	943.503	703.907
205.504	14.601	942.475	703.133
206.519	14.687	941.911	703.013
207.534	14.565	941.292	701.974
208.548	14.558	940.521	701.310
209.563	14.648	940.148	701.347
210.577	14.703	939.078	700.718
211.592	14.759	938.649	700.571
212.607	14.792	937.728	699.957
213.621	14.794	936.945	699.319
214.636	14.826	936.023	698.702
215.650	14.775	935.372	697.943
216.665	14.765	935.175	697.691
217.680	14.795	934.340	697.134
218.694	14.902	933.704	697.042
219.709	14.793	932.900	695.927
220.723	14.842	932.080	695.456
221.738	14.891	931.700	695.315
222.753	14.850	930.597	694.261
223.767	14.863	930.094	693.878
224.782	15.089	929.360	694.208
225.796	15.029	929.204	693.783
226.811	15.073	928.633	693.475
227.826	14.997	927.794	692.472
228.840	15.022	926.991	691.916
229.855	14.894	926.361	690.854
230.869	14.957	925.317	690.275
231.884	14.939	924.846	689.789
232.899	15.038	923.932	689.452
233.913	14.853	923.583	688.372
234.928	14.973	922.577	688.053
235.942	14.924	922.302	687.586
236.957	14.988	921.445	687.150
237.972	14.945	921.137	686.684
238.986	14.919	920.514	686.049
240.001	15.010	919.783	685.816
241.015	15.075	918.943	685.398
242.030	15.019	918.897	685.070
243.045	15.014	918.222	684.488
244.059	15.056	917.506	684.064
245.074	15.140	916.538	683.628
246.088	15.111	915.920	682.988
247.103	15.131	915.377	682.604
248.117	15.080	915.322	682.293
249.132	15.227	914.241	682.025
250.147	15.253	913.522	681.533
251.161	15.261	913.020	681.130
252.176	15.244	912.376	680.523
253.190	15.400	911.234	680.242
254.205	15.409	910.417	679.611
255.220	15.440	909.874	679.268
256.234	15.616	908.867	679.170
257.249	15.408	908.892	678.286
258.263	15.410	907.979	677.553
259.278	15.576	907.162	677.552
260.293	15.569	906.563	677.018
261.307	15.586	906.401	676.905
262.322	15.616	905.299	676.142
263.336	15.625	904.602	675.601
264.351	15.634	903.872	675.030
265.366	15.568	903.474	674.407
266.380	15.432	903.639	673.927
267.395	15.614	902.281	673.583
268.409	15.616	901.180	672.708
269.424	15.641	900.717	672.404
270.439	15.595	900.139	671.728
271.453	15.675	899.137	671.244
272.468	15.604	898.608	670.505
273.482	15.563	898.112	669.910
274.497	15.605	897.575	669.620
275.512	15.720	896.686	669.354
276.526	15.770	895.953	668.946
277.541	15.672	896.027	668.554
278.555	15.825	895.229	668.507
279.570	15.876	894.473	668.084
280.585	15.883	893.642	667.435
281.599	15.781	893.090	666.558
282.614	15.850	891.958	665.928
283.628	15.884	891.425	665.606
284.643	15.892	891.314	665.492
285.657	16.001	890.306	665.114
286.672	15.985	889.368	664.291
287.687	15.862	889.127	663.566
288.701	15.947	888.756	663.565
289.716	16.001	888.117	663.244
290.730	16.078	887.161	662.774
291.745	16.095	886.466	662.263
292.760	16.152	885.958	662.047
293.774	16.037	885.770	661.397
294.789	16.051	885.135	660.918
295.803	16.121	883.891	660.207
296.818	15.902	883.512	659.006
297.833	16.034	882.664	658.831
298.847	16.083	881.936	658.422
299.862	15.995	881.652	657.807
300.876	16.082	880.895	657.526
301.891	16.235	880.539	657.796
302.906	16.285	879.694	657.301
303.920	16.258	879.662	657.114
304.935	16.154	879.010	656.165
305.949	16.244	878.171	655.830
306.964	16.300	877.612	655.571
307.979	16.247	876.875	654.758
308.993	16.363	876.015	654.510
310.008	16.359	875.490	654.041
311.022	16.350	875.138	653.686
312.037	16.314	874.485	653.001
313.052	16.382	873.727	652.642
314.066	16.220	873.497	651.787
315.081	16.372	872.900	651.871
316.095	16.352	872.024	651.079
317.110	16.294	871.993	650.774
318.125	16.369	871.264	650.464
319.139	16.376	870.894	650.157
320.154	16.398	870.500	649.891
321.168	16.316	869.752	648.959
322.183	16.496	868.769	648.857
323.197	16.326	868.827	648.191
324.212	16.474	867.864	647.984
325.227	16.429	867.426	647.427
326.241	16.445	866.913	647.048
327.256	16.421	865.946	646.177
328.270	16.488	865.490	646.035
329.285	16.445	865.100	645.524
330.300	16.415	864.476	644.886
331.314	16.443	863.937	644.534
332.329	16.504	863.334	644.259
333.343	16.394	863.388	643.822
334.358	16.489	862.603	643.544
335.373	16.548	862.045	643.294
336.387	16.540	861.809	643.030
337.402	16.668	861.613	643.314
338.416	16.756	861.286	643.347
339.431	16.738	860.766	642.834
340.446	16.724	860.331	642.396
341.460	16.810	859.835	642.296
342.475	16.879	859.451	642.213
343.489	16.876	858.902	641.736
344.504	16.852	858.936	641.615
345.519	16.840	857.863	640.710
346.533	16.947	856.890	640.332
347.548	16.913	856.454	639.820
348.562	16.846	856.308	639.403
349.577	16.997	855.582	639.373
350.592	16.791	855.045	638.140
351.606	16.976	854.203	638.149
352.621	16.713	853.656	636.696
353.635	16.924	853.017	636.956
354.650	16.803	852.606	636.136
355.665	16.933	851.452	635.706
356.679	17.005	850.902	635.510
357.694	16.982	850.232	634.868
358.708	16.922	849.911	634.347
359.723	16.959	849.708	634.279
360.738	17.020	848.764	633.746
361.752	17.040	848.379	633.475
362.767	16.979	847.620	632.625
363.781	17.063	847.246	632.604
364.796	17.160	846.815	632.587
365.810	17.261	846.458	632.641
366.825	17.089	845.835	631.479
367.840	17.332	845.099	631.778
368.854	17.229	844.956	631.232
369.869	17.312	844.309	631.001
370.883	17.207	843.655	630.065
371.898	17.236	843.392	629.921
372.913	17.338	843.001	629.953
373.927	17.436	842.256	629.702
374.942	17.316	841.899	628.935
375.956	17.499	841.365	629.158
376.971	17.382	840.980	628.381
377.986	17.434	841.145	628.641
379.000	17.460	840.402	628.125
380.015	17.410	839.841	627.466
381.029	17.556	838.883	627.235
382.044	17.551	838.470	626.851
383.059	17.470	838.010	626.153
384.073	17.482	837.284	625.600
385.088	17.538	836.877	625.445
386.102	17.546	836.160	624.883
387.117	17.524	835.727	624.426
388.132	17.532	834.874	623.760
389.146	17.572	834.358	623.467
390.161	17.505	834.531	623.297
391.175	17.701	833.531	623.209
392.190	17.488	833.552	622.392
393.205	17.714	832.529	622.399
394.219	17.730	832.122	622.098
395.234	17.707	832.066	621.918
396.248	17.520	831.636	620.859
397.263	17.673	830.835	620.763
398.278	17.630	830.478	620.283
399.292	17.556	830.605	620.055
400.307	17.557	829.979	619.538
401.321	17.499	829.361	618.809
402.336	17.696	828.446	618.789
403.350	17.826	828.097	618.945
404.365	17.814	827.844	618.655
405.380	17.870	826.850	618.060
406.394	17.828	826.681	617.728
407.409	17.824	826.317	617.387
408.423	17.793	826.135	617.084
409.438	17.948	825.209	616.898
410.453	18.112	824.632	617.005
411.467	17.980	824.228	616.172
412.482	18.039	824.134	616.258
413.496	17.859	823.975	615.436
414.511	18.034	823.313	615.520
415.526	17.919	823.182	614.952
416.540	18.050	822.869	615.136
417.555	18.034	821.939	614.328
418.569	18.098	821.374	614.081
419.584	18.156	821.357	614.222
420.599	18.135	820.482	613.439
421.613	115.759	1301.746	1492.471
422.628	100.443	1371.822	1492.525
