DTS Sentinel unit serial number:	SN413079Multiplexer serial number:	ORYXHardware model number:	OX4-SRSoftware version number:	ORYX F/W v4.00 Oryx Data Collector v3.7.2.0data status	okinstallation	princeton_trtdifferential loss correction	single-endedforward channel	channel 1reverse channel	N/Adate	2019/09/10time	23:20:11forward acquisition time	60.00reverse acquisition time	0.00gamma	496.2192k internal	0.2331k external	0.2331temperature offset calibration	0.9938default loss term (dB/km)	0.3790temperature slope calibration	1.0000multiplexer offset coefficient	1.0000multiplexer slope coefficient	1.0000fibre end	0.00T internal ref (°C)	29.81T ext. ref 1 (°C)	-0.31T ext. ref 2 (°C)	23.36length (m)	temperature (°C)	Stokes	anti-Stokes-747.200	-53.397	0.300	-0.138
-746.185	170.935	0.149	-0.215
-745.171	-5.146	-0.156	0.108
-744.156	252.057	0.080	0.137
-743.142	-56.492	0.328	0.147
-742.127	-123.312	0.133	-0.021
-741.112	9.907	-0.315	-0.241
-740.098	152.960	0.099	-0.137
-739.083	-60.848	-0.134	-0.057
-738.069	-131.194	0.155	0.021
-737.054	-200.000	-0.018	0.222
-736.039	-200.000	-0.022	-0.236
-735.025	800.000	-0.101	0.333
-734.010	-159.982	-0.420	-0.023
-732.996	-12.476	0.059	-0.039
-731.981	-52.340	-0.267	-0.125
-730.966	-123.737	-0.066	-0.011
-729.952	-200.000	-0.009	-0.471
-728.937	29.871	-0.179	0.153
-727.923	-133.762	0.216	0.027
-726.908	800.000	0.098	-0.291
-725.894	-20.054	-0.281	-0.175
-724.879	-73.530	-0.172	-0.063
-723.864	305.884	-0.095	-0.178
-722.850	171.358	-0.160	-0.231
-721.835	512.717	-0.158	0.371
-720.821	603.563	0.066	0.165
-719.806	221.744	-0.112	-0.181
-718.791	40.727	0.111	-0.100
-717.777	-200.000	0.004	-0.196
-716.762	-144.593	-0.399	0.037
-715.748	322.675	0.160	-0.306
-714.733	-200.000	-0.055	-0.253
-713.718	-147.830	0.174	0.015
-712.704	104.913	-0.204	-0.242
-711.689	-89.093	0.214	-0.063
-710.675	142.662	-0.039	0.052
-709.660	-134.568	-0.301	0.037
-708.645	-81.759	-0.036	0.012
-707.631	727.999	-0.024	0.064
-706.616	-200.000	0.068	-0.496
-705.602	800.000	0.124	-0.366
-704.587	-162.670	-0.237	-0.012
-703.572	304.142	0.025	-0.047
-702.558	148.019	-0.101	0.136
-701.543	-200.000	-0.009	0.292
-700.529	-146.717	-0.170	-0.015
-699.514	125.402	0.059	0.074
-698.499	-200.000	0.001	-0.122
-697.485	-92.201	-0.326	0.092
-696.470	46.770	0.119	-0.111
-695.456	-200.000	-0.004	0.295
-694.441	49.066	-0.102	-0.096
-693.426	-45.986	0.126	0.062
-692.412	-139.969	-0.220	-0.023
-691.397	71.242	-0.162	-0.169
-690.383	800.000	0.078	0.261
-689.368	442.221	-0.075	0.164
-688.354	129.190	0.115	0.148
-687.339	404.509	0.050	-0.106
-686.324	-46.049	-0.087	-0.043
-685.310	-124.686	0.320	-0.050
-684.295	800.000	0.129	-0.379
-683.281	-200.000	0.030	-0.170
-682.266	-200.000	0.003	-0.279
-681.251	-51.295	-0.137	0.064
-680.237	-30.786	-0.349	-0.198
-679.222	-45.372	0.053	-0.026
-678.208	-14.743	0.135	0.087
-677.193	-172.566	-0.100	-0.003
-676.178	-170.710	-0.179	-0.006
-675.164	-64.669	-0.245	-0.100
-674.149	-8.572	0.184	-0.124
-673.135	-60.242	-0.126	0.054
-672.120	192.428	0.082	-0.125
-671.105	-141.557	-0.029	0.003
-670.091	55.731	0.109	0.106
-669.076	129.781	-0.189	0.242
-668.062	509.209	0.023	-0.053
-667.047	-200.000	0.059	0.270
-666.032	262.165	-0.189	0.329
-665.018	-171.601	-0.212	-0.007
-664.003	-144.550	0.088	-0.008
-662.989	-64.085	-0.164	-0.067
-661.974	-200.000	0.049	0.220
-660.959	-170.544	-0.233	0.008
-659.945	53.415	-0.224	-0.216
-658.930	-169.519	0.448	-0.016
-657.916	203.323	-0.119	-0.184
-656.901	-127.793	0.179	0.026
-655.886	-106.869	0.125	0.028
-654.872	-135.430	0.200	-0.024
-653.857	126.746	-0.117	-0.148
-652.843	-38.869	-0.192	0.101
-651.828	121.398	0.234	0.293
-650.814	-33.130	-0.269	0.150
-649.799	-200.000	-0.013	0.262
-648.784	121.232	-0.124	-0.155
-647.770	-79.497	0.480	-0.163
-646.755	-9.236	0.177	0.119
-645.741	-33.819	0.174	0.096
-644.726	-200.000	0.040	0.181
-643.711	-200.000	-0.028	-0.311
-642.697	-197.850	-0.163	0.001
-641.682	800.000	-0.068	0.264
-640.668	328.380	-0.034	-0.065
-639.653	49.095	-0.061	-0.057
-638.638	89.781	-0.228	-0.255
-637.624	38.393	-0.114	-0.101
-636.609	-182.144	0.185	-0.003
-635.595	800.000	0.059	-0.173
-634.580	7.300	0.162	-0.121
-633.565	-126.494	-0.246	-0.037
-632.551	800.000	-0.108	0.411
-631.536	160.310	-0.177	0.248
-630.522	482.100	0.089	-0.202
-629.507	-35.000	0.079	-0.043
-628.492	800.000	0.065	-0.236
-627.478	473.113	-0.064	-0.144
-626.463	-100.686	-0.182	-0.045
-625.449	-200.000	0.018	-0.096
-624.434	76.538	0.195	0.207
-623.419	-200.000	0.005	-0.114
-622.405	0.296	-0.163	0.116
-621.390	161.762	-0.155	0.217
-620.376	-129.134	0.069	-0.010
-619.361	800.000	0.050	0.161
-618.346	-82.688	-0.297	0.096
-617.332	-200.000	-0.039	-0.254
-616.317	-69.611	-0.115	-0.044
-615.303	-200.000	0.018	0.332
-614.288	91.956	0.120	0.135
-613.273	354.106	-0.052	0.103
-612.259	744.049	0.052	0.141
-611.244	296.130	-0.109	-0.200
-610.230	-200.000	0.007	-0.153
-609.215	85.376	0.083	-0.091
-608.201	-4.100	0.285	-0.197
-607.186	10.000	0.187	0.142
-606.171	-45.271	0.172	0.086
-605.157	35.344	0.094	0.082
-604.142	227.277	0.078	-0.128
-603.128	212.513	-0.184	-0.291
-602.113	-58.075	0.209	-0.091
-601.098	239.246	-0.141	0.235
-600.084	451.205	0.101	0.224
-599.069	5.930	0.030	-0.022
-598.055	-55.744	-0.131	-0.059
-597.040	-52.766	0.242	-0.112
-596.025	-200.000	0.013	-0.159
-595.011	95.411	0.202	-0.231
-593.996	-133.588	0.479	0.060
-592.982	-95.481	-0.218	0.059
-591.967	-168.182	-0.267	0.010
-590.952	-27.964	-0.117	-0.068
-589.938	-200.000	-0.023	0.131
-588.923	-101.425	-0.379	-0.092
-587.909	800.000	0.024	-0.084
-586.894	140.520	0.148	0.195
-585.879	-100.999	-0.301	-0.074
-584.865	-166.457	0.180	-0.008
-583.850	151.719	0.172	-0.234
-582.836	-49.339	0.193	-0.092
-581.821	-200.000	-0.004	0.132
-580.806	-186.879	-0.269	0.004
-579.792	130.744	-0.068	-0.087
-578.777	-52.786	-0.331	-0.153
-577.763	194.847	0.135	0.205
-576.748	21.519	0.325	0.264
-575.733	175.024	0.064	-0.092
-574.719	135.478	-0.165	-0.214
-573.704	198.952	-0.218	-0.333
-572.690	126.650	-0.086	-0.109
-571.675	-11.965	0.110	0.072
-570.661	49.700	-0.206	-0.194
-569.646	-39.729	-0.277	0.145
-568.631	-66.503	-0.036	0.014
-567.617	-68.078	-0.194	0.076
-566.602	29.043	0.209	0.177
-565.588	53.943	0.203	-0.195
-564.573	-200.000	-0.028	-0.155
-563.558	26.833	0.162	0.136
-562.544	190.445	-0.106	0.160
-561.529	-74.434	-0.106	0.038
-560.515	-70.627	-0.214	-0.081
-559.500	-110.959	0.259	0.053
-558.485	-47.000	-0.184	-0.090
-557.471	-140.749	0.199	-0.021
-556.456	-32.909	0.218	-0.121
-555.442	-3.917	-0.202	-0.140
-554.427	298.495	0.091	0.167
-553.412	134.457	0.198	0.256
-552.398	75.599	0.033	-0.035
-551.383	99.233	-0.268	-0.309
-550.369	-125.988	-0.051	-0.008
-549.354	-92.802	-0.017	0.005
-548.339	800.000	-0.041	0.153
-547.325	-65.996	-0.091	-0.036
-546.310	-200.000	0.006	0.357
-545.296	166.811	-0.049	-0.070
-544.281	800.000	-0.058	-0.167
-543.266	-37.225	-0.270	0.144
-542.252	515.237	-0.068	-0.160
-541.237	343.295	-0.102	-0.199
-540.223	-170.894	-0.243	-0.008
-539.208	-200.000	0.066	0.488
-538.193	27.476	-0.154	-0.130
-537.179	-200.000	-0.022	0.421
-536.164	-108.361	-0.120	0.026
-535.150	-26.392	-0.122	-0.071
-534.135	-200.000	-0.006	0.168
-533.121	-200.000	-0.054	0.256
-532.106	-91.809	0.152	-0.043
-531.091	436.726	0.141	0.307
-530.077	-6.471	0.038	-0.026
-529.062	10.584	0.114	-0.087
-528.048	-120.914	0.275	0.046
-527.033	613.309	0.163	-0.408
-526.018	177.027	-0.147	0.214
-525.004	-200.000	0.013	0.090
-523.989	800.000	-0.097	-0.308
-522.975	265.749	-0.157	-0.274
-521.960	-25.606	-0.408	0.241
-520.945	66.623	0.042	-0.043
-519.931	-55.104	0.080	-0.036
-518.916	-82.591	0.129	-0.042
-517.902	-133.753	0.122	-0.015
-516.887	-200.000	0.036	-0.259
-515.872	-200.000	-0.019	0.274
-514.858	-200.000	-0.009	-0.178
-513.843	-0.951	0.136	0.096
-512.829	219.369	-0.115	0.183
-511.814	800.000	0.082	0.334
-510.799	121.037	-0.067	-0.083
-509.785	685.430	-0.055	0.143
-508.770	-200.000	-0.019	0.137
-507.756	-200.000	-0.007	0.221
-506.741	-170.486	-0.266	-0.009
-505.726	800.000	-0.026	-0.090
-504.712	231.645	0.022	0.036
-503.697	-96.751	-0.099	0.026
-502.683	800.000	-0.064	-0.239
-501.668	106.865	0.055	0.065
-500.653	157.171	0.105	0.145
-499.639	132.940	0.109	-0.141
-498.624	383.780	0.074	-0.152
-497.610	67.582	0.222	0.226
-496.595	800.000	0.065	0.248
-495.581	-85.625	-0.220	0.068
-494.566	90.360	-0.263	-0.293
-493.551	-97.586	0.123	-0.032
-492.537	481.211	-0.112	0.253
-491.522	-109.359	0.055	-0.012
-490.508	-151.841	-0.259	-0.019
-489.493	800.000	-0.064	-0.196
-488.478	283.502	0.185	0.331
-487.464	266.910	-0.063	-0.110
-486.449	33.413	-0.179	0.154
-485.435	-200.000	-0.002	0.122
-484.420	-3.862	-0.133	0.092
-483.405	269.715	-0.174	-0.305
-482.391	-200.000	-0.001	-0.067
-481.376	-175.363	-0.140	-0.004
-480.362	-98.903	0.226	-0.057
-479.347	800.000	0.040	0.168
-478.332	-60.819	0.193	0.082
-477.318	-200.000	-0.037	-0.386
-476.303	-107.117	0.397	-0.087
-475.289	-148.945	-0.097	0.008
-474.274	-105.456	-0.201	-0.046
-473.259	-153.004	-0.201	-0.014
-472.245	52.185	-0.130	-0.123
-471.230	800.000	-0.053	-0.150
-470.216	800.000	0.063	0.253
-469.201	800.000	-0.022	-0.094
-468.186	-200.000	-0.009	-0.244
-467.172	-64.123	0.081	-0.033
-466.157	-176.583	-0.083	-0.002
-465.143	97.096	0.045	-0.052
-464.128	800.000	-0.053	-0.210
-463.113	-200.000	0.006	0.099
-462.099	101.790	-0.132	-0.154
-461.084	189.924	0.090	0.134
-460.070	-81.478	0.156	0.051
-459.055	158.671	0.249	-0.344
-458.040	800.000	0.047	-0.192
-457.026	-76.367	-0.274	-0.096
-456.011	642.070	0.112	0.284
-454.997	-154.552	-0.291	0.019
-453.982	66.165	0.106	-0.107
-452.968	106.145	0.266	0.313
-451.953	-98.920	-0.094	0.024
-450.938	-159.064	0.092	-0.005
-449.924	579.160	-0.067	-0.163
-448.909	66.847	-0.118	-0.120
-447.895	800.000	-0.120	-0.408
-446.880	-175.410	0.231	0.006
-445.865	252.676	0.169	-0.287
-444.851	-200.000	0.042	0.204
-443.836	320.723	-0.094	0.178
-442.822	64.721	0.170	0.170
-441.807	-93.896	-0.326	-0.089
-440.792	-143.818	0.076	0.007
-439.778	800.000	0.015	-0.046
-438.763	-200.000	0.033	-0.172
-437.749	-200.000	-0.015	0.363
-436.734	-53.858	-0.210	-0.095
-435.719	69.451	0.171	-0.175
-434.705	630.231	0.094	0.236
-433.690	-90.066	-0.151	0.044
-432.676	-122.627	0.285	-0.046
-431.661	131.251	0.105	-0.134
-430.646	800.000	-0.045	0.132
-429.632	71.417	0.272	0.281
-428.617	-145.681	0.305	0.027
-427.603	-86.320	-0.195	0.060
-426.588	238.702	-0.059	-0.097
-425.573	56.029	0.020	-0.020
-424.559	-37.284	0.259	0.138
-423.544	-81.122	-0.175	-0.058
-422.530	-93.974	-0.385	0.105
-421.515	-136.202	-0.112	-0.013
-420.500	-84.194	-0.029	0.009
-419.486	313.889	-0.186	0.347
-418.471	231.408	0.180	-0.292
-417.457	-200.000	0.013	-0.162
-416.442	96.521	0.198	-0.226
-415.428	-41.419	0.298	0.152
-414.413	65.529	0.202	0.203
-413.398	-200.000	-0.013	0.107
-412.384	174.054	-0.169	-0.243
-411.369	-133.670	0.325	0.040
-410.355	800.000	0.041	-0.149
-409.340	266.887	0.126	0.218
-408.325	-200.000	-0.059	0.355
-407.311	25.045	0.069	-0.057
-406.296	47.642	-0.193	0.179
-405.282	184.985	0.156	0.230
-404.267	-128.973	-0.094	0.013
-403.252	-200.000	0.061	0.493
-402.238	-95.563	0.312	-0.083
-401.223	-91.667	0.114	0.032
-400.209	-59.597	-0.069	-0.030
-399.194	136.828	0.080	-0.103
-398.179	-200.000	0.000	-0.272
-397.165	-182.923	-0.212	-0.004
-396.150	-86.241	0.102	0.031
-395.136	-27.486	0.119	0.068
-394.121	-124.030	-0.280	0.044
-393.106	-200.000	0.029	0.141
-392.092	-160.428	0.327	0.017
-391.077	7.114	0.159	-0.118
-390.063	202.836	-0.140	-0.215
-389.048	41.218	0.183	0.164
-388.033	-72.414	-0.119	0.044
-387.019	-200.000	-0.023	-0.156
-386.004	14.293	0.090	-0.070
-384.990	-200.000	-0.064	-0.283
-383.975	-200.000	-0.048	-0.257
-382.960	-44.155	-0.163	0.081
-381.946	80.687	-0.089	0.095
-380.931	151.428	-0.031	-0.042
-379.917	87.451	-0.178	-0.195
-378.902	327.580	-0.091	-0.173
-377.888	0.124	0.331	-0.234
-376.873	-171.637	-0.570	0.019
-375.858	800.000	0.095	-0.309
-374.844	171.411	-0.136	-0.193
-373.829	-200.000	-0.014	0.177
-372.815	222.320	0.168	0.269
-371.800	-200.000	0.000	0.160
-370.785	-107.626	-0.299	0.065
-369.771	231.918	0.113	-0.184
-368.756	-139.903	0.148	-0.016
-367.742	800.000	-0.054	-0.169
-366.727	-49.630	0.174	0.082
-365.712	47.275	-0.109	0.101
-364.698	411.977	0.081	-0.171
-363.683	-200.000	-0.020	0.253
-362.669	800.000	0.033	-0.104
-361.654	-200.000	0.013	0.333
-360.639	-112.199	0.156	0.031
-359.625	303.572	0.072	0.132
-358.610	0.970	-0.220	-0.156
-357.596	-81.957	0.299	0.097
-356.581	257.846	0.122	0.208
-355.566	42.656	0.190	-0.171
-354.552	-11.415	-0.150	0.098
-353.537	800.000	0.063	-0.221
-352.523	72.638	-0.231	0.239
-351.508	192.666	0.039	0.059
-350.493	800.000	-0.081	-0.256
-349.479	-15.021	-0.065	0.041
-348.464	-200.000	-0.018	-0.142
-347.450	41.119	-0.014	-0.012
-346.435	800.000	-0.026	-0.071
-345.420	800.000	0.069	-0.213
-344.406	52.136	-0.056	0.053
-343.391	8.615	0.143	-0.106
-342.377	-190.182	0.168	-0.002
-341.362	182.454	-0.108	0.158
-340.348	130.423	-0.132	0.168
-339.333	48.773	0.141	0.131
-338.318	-120.662	0.230	0.039
-337.304	800.000	0.071	-0.230
-336.289	97.554	-0.129	-0.147
-335.275	-34.276	-0.073	-0.040
-334.260	-42.045	0.355	0.180
-333.245	294.730	0.161	-0.292
-332.231	800.000	0.056	-0.236
-331.216	271.283	0.211	-0.367
-330.202	189.510	0.212	0.315
-329.187	159.172	-0.144	0.199
-328.172	22.187	-0.374	0.302
-327.158	215.724	0.056	0.088
-326.143	-68.781	0.256	0.098
-325.129	-148.083	-0.250	0.021
-324.114	79.332	-0.094	0.100
-323.099	-200.000	0.032	0.287
-322.085	-200.000	-0.072	0.328
-321.070	243.509	-0.159	-0.264
-320.056	183.848	0.021	-0.030
-319.041	-145.660	0.361	-0.032
-318.026	570.946	0.045	0.108
-317.012	-200.000	-0.001	0.159
-315.997	311.975	0.178	-0.330
-314.983	-72.473	0.294	-0.108
-313.968	87.249	-0.110	0.120
-312.953	760.028	0.068	0.182
-311.939	-45.152	-0.589	0.290
-310.924	800.000	-0.073	0.201
-309.910	265.274	-0.150	0.258
-308.895	34.503	0.127	0.110
-307.880	111.918	0.124	-0.149
-306.866	-23.510	-0.228	-0.135
-305.851	-80.561	-0.141	-0.046
-304.837	20.912	-0.237	-0.190
-303.822	-44.615	0.250	-0.124
-302.807	182.753	-0.154	-0.225
-301.793	-99.074	-0.458	-0.115
-300.778	800.000	0.062	0.234
-299.764	447.926	-0.049	0.106
-298.749	-23.190	0.087	0.052
-297.735	-94.344	0.117	-0.032
-296.720	-54.391	0.298	0.134
-295.705	800.000	0.072	-0.233
-294.691	102.905	-0.177	0.205
-293.676	115.458	0.113	-0.136
-292.662	-114.853	0.459	-0.087
-291.647	210.147	0.164	-0.255
-290.632	-152.252	-0.239	-0.017
-289.618	-24.576	0.312	0.184
-288.603	333.290	0.101	0.194
-287.589	-200.000	-0.072	0.360
-286.574	-7.431	-0.251	-0.168
-285.559	-200.000	-0.018	-0.162
-284.545	-31.728	0.196	0.109
-283.530	65.333	-0.098	0.098
-282.516	5.767	-0.019	0.014
-281.501	154.256	0.174	-0.236
-280.486	800.000	-0.044	-0.125
-279.472	-68.707	0.398	-0.152
-278.457	143.718	0.183	0.241
-277.443	18.205	0.217	-0.171
-276.428	-200.000	-0.018	-0.503
-275.413	-34.548	0.096	0.052
-274.399	-200.000	-0.028	-0.172
-273.384	-200.000	-0.025	-0.228
-272.370	361.720	0.064	-0.127
-271.355	-200.000	0.063	0.287
-270.340	-90.721	0.330	0.094
-269.326	-111.591	-0.190	-0.038
-268.311	-50.367	-0.178	-0.083
-267.297	-9.023	0.241	-0.159
-266.282	-96.416	-0.118	0.031
-265.267	145.057	0.080	-0.106
-264.253	-200.000	-0.006	0.078
-263.238	800.000	0.066	0.230
-262.224	-196.740	-0.096	0.001
-261.209	-86.988	-0.228	-0.069
-260.195	-30.217	-0.282	0.158
-259.180	-68.844	0.106	-0.040
-258.165	38.756	0.034	0.030
-257.151	166.905	-0.079	-0.111
-256.136	10.068	0.293	-0.220
-255.122	-131.794	-0.457	-0.059
-254.107	800.000	0.050	0.181
-253.092	800.000	0.022	0.091
-252.078	-200.000	-0.002	0.265
-251.063	195.133	-0.088	0.132
-250.049	-102.879	0.228	-0.053
-249.034	-13.889	-0.099	0.063
-248.019	26.123	-0.247	0.204
-247.005	800.000	-0.043	-0.127
-245.990	217.908	0.157	0.248
-244.976	26.257	0.067	0.056
-243.961	67.064	0.100	0.100
-242.946	372.754	-0.128	-0.258
-241.932	-200.000	0.006	-0.122
-240.917	-55.668	-0.233	0.103
-239.903	-15.095	0.100	0.063
-238.888	16.821	0.136	-0.106
-237.873	21.725	-0.077	0.062
-236.859	-102.813	0.104	-0.024
-235.844	-200.000	-0.053	-0.305
-234.830	76.831	-0.125	-0.131
-233.815	174.531	-0.108	-0.154
-232.800	223.886	0.067	0.107
-231.786	-165.308	-0.568	-0.025
-230.771	118.266	-0.163	0.199
-229.757	800.000	-0.058	0.208
-228.742	-36.096	-0.264	0.141
-227.727	352.531	0.166	-0.325
-226.713	800.000	0.136	-0.424
-225.698	110.828	-0.088	-0.105
-224.684	-121.694	0.348	-0.057
-223.669	-101.129	-0.154	0.037
-222.655	-101.091	-0.349	-0.084
-221.640	-8.875	-0.133	-0.088
-220.625	11.867	-0.268	0.203
-219.611	-76.988	-0.200	0.069
-218.596	152.637	-0.124	-0.167
-217.582	455.223	0.081	-0.176
-216.567	-131.242	-0.156	-0.020
-215.552	-87.367	0.162	-0.049
-214.538	-39.273	0.282	-0.146
-213.523	-83.193	0.193	-0.061
-212.509	-101.238	0.324	0.078
-211.494	-94.448	0.120	-0.032
-210.479	297.620	0.099	0.178
-209.465	629.105	-0.125	-0.311
-208.450	749.390	-0.114	-0.304
-207.436	800.000	0.056	-0.218
-206.421	-105.919	0.174	-0.039
-205.406	800.000	-0.072	0.225
-204.392	-75.758	-0.046	0.016
-203.377	-100.327	-0.179	0.044
-202.363	-40.425	0.134	-0.069
-201.348	-7.381	-0.217	0.145
-200.333	-187.144	-0.316	0.004
-199.319	-58.427	-0.097	-0.042
-198.304	113.529	0.096	-0.115
-197.290	-56.406	0.114	-0.050
-196.275	60.784	0.279	-0.272
-195.260	-200.000	-0.081	0.405
-194.246	-18.324	-0.175	-0.108
-193.231	797.175	0.138	0.374
-192.217	-72.420	-0.276	0.100
-191.202	676.320	-0.057	-0.145
-190.187	-80.424	-0.284	-0.093
-189.173	454.692	-0.039	-0.085
-188.158	-105.248	0.237	0.053
-187.144	800.000	0.046	0.160
-186.129	104.043	-0.135	-0.157
-185.114	-124.010	0.220	0.034
-184.100	448.738	0.036	0.078
-183.085	800.000	0.079	0.235
-182.071	627.828	-0.095	0.235
-181.056	-200.000	-0.007	-0.033
-180.042	-200.000	0.088	0.449
-179.027	-24.455	-0.198	-0.116
-178.012	-43.716	0.129	0.064
-176.998	-200.000	-0.004	0.110
-175.983	336.284	-0.077	-0.146
-174.969	-200.000	-0.019	0.293
-173.954	148.802	0.216	0.288
-172.939	-54.557	-0.322	0.143
-171.925	-103.265	0.134	0.031
-170.910	800.000	0.051	0.213
-169.896	330.898	0.032	-0.060
-168.881	-76.161	0.087	0.030
-167.866	800.000	0.113	0.313
-166.852	800.000	0.023	-0.076
-165.837	609.321	0.032	0.079
-164.823	-200.000	-0.018	0.237
-163.808	800.000	0.091	-0.318
-162.793	359.000	-0.111	-0.219
-161.779	163.417	-0.188	-0.260
-160.764	-200.000	-0.023	0.234
-159.750	-181.948	0.098	-0.002
-158.735	-200.000	0.040	-0.262
-157.720	-200.000	-0.002	0.134
-156.706	-100.106	-0.033	-0.008
-155.691	-9.765	0.397	-0.260
-154.677	-180.957	-0.129	0.003
-153.662	-153.382	-0.227	0.016
-152.647	-91.516	0.232	-0.065
-151.633	252.399	-0.026	0.044
-150.618	758.268	0.064	0.171
-149.604	800.000	0.058	0.236
-148.589	-200.000	-0.067	-0.315
-147.574	90.099	0.123	-0.136
-146.560	201.533	-0.128	-0.194
-145.545	-200.000	0.048	0.441
-144.531	800.000	0.095	0.392
-143.516	-61.319	-0.319	0.132
-142.502	-99.673	0.317	0.078
-141.487	-200.000	-0.006	-0.461
-140.472	-200.000	0.003	0.187
-139.458	496.890	-0.115	-0.260
-138.443	351.452	0.107	-0.208
-137.429	128.057	-0.210	0.263
-136.414	-33.723	0.168	-0.091
-135.399	800.000	0.107	-0.305
-134.385	-41.231	0.122	-0.062
-133.370	290.942	0.087	0.155
-132.356	-113.959	0.093	0.018
-131.341	167.848	-0.120	-0.167
-130.326	22.356	0.040	-0.032
-129.312	800.000	-0.104	-0.376
-128.297	-200.000	-0.106	-0.643
-127.283	729.766	-0.184	-0.484
-126.268	-200.000	-0.028	-0.162
-125.253	800.000	0.024	0.070
-124.239	-200.000	0.030	-0.377
-123.224	-128.394	0.278	0.039
-122.210	-37.581	0.091	0.048
-121.195	469.110	-0.080	0.177
-120.180	800.000	0.074	0.218
-119.166	-73.806	-0.258	-0.092
-118.151	-78.987	0.190	-0.064
-117.137	293.024	0.159	-0.285
-116.122	-200.000	0.033	0.238
-115.107	97.277	0.112	0.126
-114.093	800.000	-0.101	0.381
-113.078	-180.712	-0.323	0.006
-112.064	-200.000	0.018	0.122
-111.049	90.113	0.108	-0.119
-110.034	127.388	-0.115	0.143
-109.020	800.000	0.031	0.091
-108.005	169.169	-0.279	0.390
-106.991	69.662	0.058	0.058
-105.976	135.693	-0.107	0.137
-104.962	-200.000	0.026	-0.219
-103.947	-200.000	0.012	0.280
-102.932	-200.000	0.018	-0.130
-101.918	-85.144	0.535	-0.164
-100.903	688.496	0.033	0.084
-99.889	-58.012	0.198	0.085
-98.874	-35.058	-0.050	0.027
-97.859	-200.000	0.020	0.112
-96.845	-143.960	-0.186	-0.017
-95.830	101.763	0.025	-0.029
-94.816	-20.979	-0.202	0.121
-93.801	-200.000	0.000	0.358
-92.786	-137.843	-0.220	-0.024
-91.772	278.322	0.128	0.224
-90.757	-115.823	0.164	-0.030
-89.743	-137.387	0.152	-0.017
-88.728	-200.000	0.027	0.179
-87.713	151.283	-0.277	0.369
-86.699	-200.000	-0.044	0.529
-85.684	32.951	0.055	0.047
-84.670	800.000	0.077	0.296
-83.655	110.425	0.185	0.218
-82.640	-61.612	0.254	0.105
-81.626	178.208	0.244	0.349
-80.611	-34.852	0.249	0.133
-79.597	118.752	-0.102	-0.124
-78.582	-200.000	-0.038	-0.180
-77.567	-100.777	0.311	-0.075
-76.553	614.141	0.066	-0.162
-75.538	800.000	-0.061	0.167
-74.524	-12.331	0.367	-0.235
-73.509	-54.159	0.153	0.068
-72.494	-200.000	0.007	0.398
-71.480	-68.192	-0.186	0.071
-70.465	-12.438	0.082	0.052
-69.451	41.033	0.205	-0.182
-68.436	-200.000	0.011	0.160
-67.422	-130.406	-0.063	0.008
-66.407	-142.481	0.183	-0.018
-65.392	-82.415	-0.328	0.104
-64.378	245.972	0.066	0.109
-63.363	-200.000	-0.032	0.641
-62.349	71.417	-0.198	0.202
-61.334	133.131	-0.918	-1.163
-60.319	-120.652	0.909	0.151
-59.305	186.377	-0.663	-0.967
-58.290	-200.000	0.167	0.757
-57.276	800.000	0.484	1.352
-56.261	-200.000	105.437	617.121
-55.246	518.214	1496.445	3431.061
-54.232	178.331	2688.718	3844.920
-53.217	113.294	2154.183	2560.203
-52.203	41.757	1591.630	1412.972
-51.188	33.349	1326.975	1128.142
-50.173	30.188	1285.390	1074.463
-49.159	54.523	1338.884	1263.702
-48.144	55.001	1354.681	1281.387
-47.130	33.550	1309.225	1114.055
-46.115	30.002	1291.566	1078.373
-45.100	29.773	1286.734	1072.964
-44.086	29.714	1284.598	1070.799
-43.071	29.700	1282.167	1068.651
-42.057	29.605	1280.230	1066.445
-41.042	29.576	1278.594	1064.873
-40.027	29.689	1277.121	1064.255
-39.013	29.767	1274.647	1062.601
-37.998	29.762	1273.291	1061.399
-36.984	29.699	1271.959	1059.883
-35.969	29.704	1270.358	1058.537
-34.954	29.805	1267.856	1056.985
-33.940	29.932	1266.264	1056.341
-32.925	29.918	1265.392	1055.495
-31.911	29.902	1263.656	1053.911
-30.896	29.899	1262.673	1053.037
-29.881	29.965	1260.796	1051.801
-28.867	30.005	1259.645	1051.025
-27.852	29.872	1258.456	1049.239
-26.838	29.946	1256.786	1048.223
-25.823	29.951	1255.656	1047.267
-24.809	29.926	1254.560	1046.171
-23.794	29.912	1252.886	1044.655
-22.779	29.935	1251.577	1043.654
-21.765	29.971	1250.162	1042.634
-20.750	29.923	1249.455	1041.732
-19.736	29.782	1248.020	1039.700
-18.721	29.790	1246.654	1038.569
-17.706	29.744	1245.894	1037.632
-16.692	29.758	1244.451	1036.472
-15.677	29.680	1243.803	1035.452
-14.663	29.771	1242.346	1034.709
-13.648	29.783	1241.215	1033.789
-12.633	29.670	1240.511	1032.535
-11.619	29.734	1239.460	1031.974
-10.604	29.774	1238.596	1031.438
-9.590	29.682	1237.868	1030.279
-8.575	29.709	1236.666	1029.388
-7.560	29.718	1235.741	1028.625
-6.546	29.649	1235.004	1027.586
-5.531	29.805	1233.727	1027.349
-4.517	29.742	1233.626	1026.875
-3.502	29.843	1232.501	1026.461
-2.487	29.714	1231.730	1025.060
-1.473	29.616	1227.815	1021.218
-0.458	28.221	1212.659	1000.952
0.556	22.345	1195.526	962.466
1.571	18.778	1200.314	946.612
2.586	17.964	1214.468	953.147
3.600	17.811	1203.723	943.787
4.615	12.781	1133.437	862.337
5.629	4.004	1060.154	763.380
6.644	-0.047	1040.383	729.444
7.659	-0.361	1037.810	726.057
8.673	-0.458	1036.586	724.666
9.688	-0.373	1034.870	723.816
10.702	-0.008	1033.400	724.479
11.717	5.609	1041.521	757.333
12.731	14.442	1054.409	809.718
13.746	18.889	1059.658	835.339
14.761	19.628	1060.270	839.336
15.775	19.689	1059.570	839.006
16.790	19.440	1058.615	836.968
17.804	19.469	1058.075	836.605
18.819	19.485	1057.832	836.419
19.834	19.637	1057.448	836.776
20.848	19.568	1056.765	835.827
21.863	19.519	1056.520	835.325
22.877	19.565	1055.628	834.765
23.892	19.524	1054.669	833.734
24.907	19.476	1054.407	833.225
25.921	19.475	1053.251	832.233
26.936	19.741	1051.231	831.843
27.950	19.580	1049.825	829.885
28.965	19.350	1048.370	827.557
29.980	19.385	1046.417	826.108
30.994	19.641	1045.559	826.581
32.009	19.567	1044.452	825.279
33.023	19.269	1043.500	823.034
34.038	19.517	1042.334	823.224
35.053	19.587	1041.565	822.876
36.067	19.573	1040.580	821.958
37.082	19.678	1039.693	821.683
38.096	19.796	1039.104	821.709
39.111	19.841	1038.084	821.042
40.126	19.729	1037.115	819.673
41.140	19.373	1035.338	816.507
42.155	19.268	1033.801	814.729
43.169	19.214	1032.857	813.656
44.184	19.368	1031.337	813.114
45.199	19.188	1030.434	811.480
46.213	19.183	1029.913	810.978
47.228	19.255	1029.095	810.598
48.242	19.368	1027.777	810.022
49.257	19.681	1026.466	810.383
50.271	19.644	1025.580	809.441
51.286	19.592	1025.305	808.907
52.301	19.661	1024.150	808.246
53.315	19.569	1023.297	807.072
54.330	19.579	1021.913	805.954
55.344	19.609	1021.750	805.895
56.359	19.518	1020.892	804.721
57.374	19.338	1020.008	803.116
58.388	19.401	1019.088	802.616
59.403	19.471	1017.661	801.747
60.417	19.206	1017.299	800.158
61.432	19.303	1016.817	800.160
62.447	19.561	1015.940	800.595
63.461	19.505	1015.059	799.569
64.476	19.413	1014.199	798.397
65.490	19.365	1013.330	797.419
66.505	19.397	1012.633	796.949
67.520	19.326	1012.177	796.190
68.534	19.197	1011.043	794.632
69.549	18.909	1009.831	792.281
70.563	19.144	1008.850	792.528
71.578	19.060	1008.097	791.477
72.593	18.907	1007.541	790.268
73.607	18.958	1006.945	789.966
74.622	19.171	1006.832	790.786
75.636	19.269	1005.695	790.272
76.651	19.061	1004.901	788.621
77.666	19.051	1004.128	787.902
78.680	19.244	1003.305	788.067
79.695	19.176	1002.577	787.117
80.709	19.251	1002.118	787.027
81.724	19.291	1000.835	786.132
82.739	19.243	1000.760	785.787
83.753	19.694	999.739	786.970
84.768	19.738	999.076	786.580
85.782	19.982	998.071	786.828
86.797	19.676	997.130	784.624
87.812	19.589	996.324	783.526
88.826	19.778	995.071	783.331
89.841	19.828	994.293	782.872
90.855	19.948	993.210	782.496
91.870	19.800	992.387	781.110
92.884	19.672	991.234	779.552
93.899	19.714	990.246	778.898
94.914	19.744	989.755	778.577
95.928	19.761	987.999	777.202
96.943	19.404	987.110	774.832
97.957	19.286	985.949	773.322
98.972	19.107	984.582	771.379
99.987	19.203	984.460	771.646
101.001	19.500	983.502	772.158
102.016	19.670	982.164	771.798
103.030	19.462	981.330	770.145
104.045	19.258	980.321	768.376
105.060	19.160	979.492	767.223
106.074	19.455	978.629	767.792
107.089	19.740	978.262	768.699
108.103	19.538	977.467	767.110
109.118	19.474	976.301	765.846
110.133	19.380	974.837	764.210
111.147	19.304	973.803	762.996
112.162	19.119	973.023	761.500
113.176	19.339	972.592	762.070
114.191	19.400	971.011	761.030
115.206	19.066	970.025	758.719
116.220	19.050	969.710	758.333
117.235	19.158	968.697	757.952
118.249	19.109	967.764	756.937
119.264	19.058	966.675	755.794
120.279	19.084	966.137	755.423
121.293	19.261	965.298	755.474
122.308	19.272	964.195	754.595
123.322	19.209	963.123	753.410
124.337	19.120	961.717	751.856
125.352	18.628	960.351	748.576
126.366	18.525	958.944	746.966
127.381	19.254	958.752	749.923
128.395	19.604	958.812	751.428
129.410	19.668	957.844	750.879
130.424	19.553	956.615	749.350
131.439	19.535	955.659	748.459
132.454	19.405	955.314	747.559
133.468	19.448	953.971	746.629
134.483	19.759	953.166	747.273
135.497	19.868	952.130	746.868
136.512	19.857	951.818	746.510
137.527	19.841	950.666	745.472
138.541	19.872	950.150	745.133
139.556	19.858	949.039	744.138
140.570	19.786	948.542	743.371
141.585	19.759	947.394	742.288
142.600	19.626	946.218	740.731
143.614	20.043	945.358	741.779
144.629	20.058	944.569	741.161
145.643	20.030	943.580	740.199
146.658	19.772	942.516	738.195
147.673	19.836	941.108	737.303
148.687	19.663	940.336	735.893
149.702	19.633	939.658	735.173
150.716	19.639	938.436	734.177
151.731	19.830	937.856	734.466
152.746	19.947	937.165	734.359
153.760	19.998	936.550	734.025
154.775	20.006	935.996	733.563
155.789	19.995	934.731	732.461
156.804	19.829	934.273	731.335
157.819	19.994	933.697	731.516
158.833	20.085	932.431	730.842
159.848	20.039	931.616	729.947
160.862	19.784	930.641	728.042
161.877	19.919	930.049	728.083
162.892	19.994	928.714	727.287
163.906	20.005	927.767	726.531
164.921	20.007	926.879	725.779
165.935	20.099	925.785	725.244
166.950	20.082	924.982	724.477
167.964	20.034	924.535	723.864
168.979	19.865	922.994	721.888
169.994	19.771	921.943	720.609
171.008	20.008	921.569	721.244
172.023	20.030	920.653	720.554
173.037	19.764	919.548	718.517
174.052	19.718	918.574	717.504
175.067	19.718	918.281	717.212
176.081	19.890	917.431	717.197
177.096	19.818	916.834	716.369
178.110	19.493	916.274	714.519
179.125	19.489	914.680	713.200
180.140	19.516	914.465	713.079
181.154	19.698	914.054	713.448
182.169	19.883	914.405	714.421
183.183	20.092	913.732	714.693
184.198	19.870	912.889	713.057
185.213	19.893	912.154	712.513
186.227	19.966	911.409	712.171
187.242	19.969	910.921	711.736
188.256	20.017	909.917	711.088
189.271	19.990	908.918	710.131
190.286	19.800	907.910	708.507
191.300	19.201	906.788	705.114
192.315	18.644	905.491	701.766
193.329	18.649	904.799	701.189
194.344	19.537	905.185	705.056
195.359	19.909	905.283	706.587
196.373	19.870	904.750	705.949
197.388	19.786	903.676	704.709
198.402	19.842	902.982	704.333
199.417	19.944	902.627	704.406
200.432	19.588	901.287	701.854
201.446	19.334	900.494	700.141
202.461	19.431	899.953	700.054
203.475	18.696	898.142	695.605
204.490	18.030	897.199	692.114
205.504	18.892	897.682	695.921
206.519	19.480	897.782	698.313
207.534	19.583	896.884	697.971
208.548	19.947	896.854	699.358
209.563	19.742	895.891	697.718
210.577	19.698	894.836	696.655
211.592	20.065	894.750	698.007
212.607	20.048	894.018	697.304
213.621	20.092	893.271	696.837
214.636	20.028	892.862	696.200
215.650	19.989	891.939	695.260
216.665	20.061	891.124	694.853
217.680	19.910	890.404	693.627
218.694	19.694	889.037	691.634
219.709	19.436	888.870	690.413
220.723	19.826	888.053	691.276
221.738	19.854	887.431	690.841
222.753	20.017	886.642	690.818
223.767	19.938	886.660	690.452
224.782	20.171	886.376	691.100
225.796	19.857	885.823	689.358
226.811	19.522	883.732	686.339
227.826	19.031	882.439	683.321
228.840	19.202	882.036	683.630
229.855	19.156	881.219	682.755
230.869	18.948	880.310	681.163
231.884	19.365	880.357	682.791
232.899	19.955	880.646	685.291
233.913	19.918	879.716	684.362
234.928	20.046	879.200	684.406
235.942	19.926	878.749	683.521
236.957	19.697	877.679	681.724
237.972	19.480	877.157	680.403
238.986	19.714	876.767	680.963
240.001	19.813	875.667	680.438
241.015	19.806	875.101	679.909
242.030	20.051	874.550	680.381
243.045	19.938	874.377	679.743
244.059	19.975	874.024	679.554
245.074	19.986	872.358	678.243
246.088	19.563	871.662	675.984
247.103	19.818	871.359	676.687
248.117	20.283	871.634	678.661
249.132	20.586	870.531	678.926
250.147	20.584	869.863	678.339
251.161	20.636	869.597	678.274
252.176	20.602	868.944	677.570
253.190	20.660	868.413	677.325
254.205	20.847	867.940	677.623
255.220	20.832	866.997	676.765
256.234	20.752	866.388	675.921
257.249	20.561	865.734	674.612
258.263	20.638	865.058	674.323
259.278	20.787	864.193	674.167
260.293	20.786	863.458	673.527
261.307	20.602	863.183	672.543
262.322	20.430	861.823	670.760
263.336	19.731	859.958	666.554
264.351	18.609	858.427	660.986
265.366	18.782	858.343	661.530
266.380	20.018	858.659	666.476
267.395	20.383	858.653	667.817
268.409	20.103	857.890	666.085
269.424	20.380	857.656	666.909
270.439	20.468	856.639	666.399
271.453	20.598	856.019	666.353
272.468	20.836	855.752	666.999
273.482	20.823	855.279	666.522
274.497	20.378	853.995	663.764
275.512	20.188	852.904	662.129
276.526	20.619	852.463	663.373
277.541	20.597	852.440	663.214
278.555	20.401	851.698	661.831
279.570	20.305	850.721	660.646
280.585	20.453	850.067	660.642
281.599	20.380	849.460	659.835
282.614	19.881	847.911	656.682
283.628	19.904	847.771	656.602
284.643	20.232	847.120	657.283
285.657	19.803	846.412	655.052
286.672	19.590	845.533	653.505
287.687	20.151	845.473	655.525
288.701	20.137	844.813	654.903
289.716	19.886	843.850	653.151
290.730	19.758	843.387	652.250
291.745	19.559	842.557	650.800
292.760	19.852	842.381	651.713
293.774	20.789	842.441	655.230
294.789	20.976	842.237	655.714
295.803	21.354	841.257	656.315
296.818	21.236	841.015	655.625
297.833	20.803	839.939	653.103
298.847	20.702	839.198	652.091
299.862	21.035	839.029	653.148
300.876	21.162	838.795	653.385
301.891	20.846	838.244	651.717
302.906	20.579	836.652	649.423
303.920	20.679	836.646	649.733
304.935	21.042	836.593	650.991
305.949	21.007	835.519	649.967
306.964	20.910	834.737	648.938
307.979	20.934	834.711	648.954
308.993	21.121	834.395	649.345
310.008	21.226	833.818	649.229
311.022	20.793	833.258	647.127
312.037	20.768	832.297	646.231
313.052	20.690	831.081	644.939
314.066	19.914	829.717	640.950
315.081	19.719	829.222	639.791
316.095	20.404	829.550	642.522
317.110	20.799	829.506	643.891
318.125	20.135	828.213	640.378
319.139	19.179	826.361	635.365
320.154	19.119	826.341	635.074
321.168	19.931	826.496	638.128
322.183	20.597	826.501	640.533
323.197	20.703	826.386	640.775
324.212	20.917	825.926	641.150
325.227	21.014	825.096	640.806
326.241	20.780	824.422	639.366
327.256	20.821	823.701	638.902
328.270	20.715	823.359	638.191
329.285	20.471	822.749	636.767
330.300	20.353	821.928	635.643
331.314	20.579	821.377	635.986
332.329	21.080	821.037	637.500
333.343	21.051	820.705	637.080
334.358	21.009	820.357	636.601
335.373	21.038	820.214	636.537
336.387	21.500	819.611	637.697
337.402	21.439	819.661	637.460
338.416	21.325	818.986	636.461
339.431	21.363	818.801	636.398
340.446	21.532	818.512	636.733
341.460	21.365	818.227	635.850
342.475	21.208	817.235	634.451
343.489	21.333	817.164	634.794
344.504	21.571	816.745	635.275
345.519	21.687	816.484	635.437
346.533	21.678	816.163	635.100
347.548	21.675	816.068	634.959
348.562	21.796	815.277	634.726
349.577	21.711	814.681	633.895
350.592	21.714	813.641	633.042
351.606	21.752	812.914	632.557
352.621	21.685	812.023	631.566
353.635	21.642	811.261	630.763
354.650	20.882	809.828	626.859
355.665	19.948	808.630	622.519
356.679	20.440	808.315	623.991
357.694	20.795	808.183	625.108
358.708	20.726	807.257	624.088
359.723	21.175	807.139	625.553
360.738	21.516	806.924	626.550
361.752	21.705	806.451	626.805
362.767	21.958	805.966	627.275
363.781	22.032	805.558	627.167
364.796	22.057	805.351	627.039
365.810	22.127	804.754	626.772
366.825	21.965	804.646	626.051
367.840	21.687	803.799	624.346
368.854	21.396	803.270	622.847
369.869	21.613	802.393	622.883
370.883	21.475	801.730	621.823
371.898	21.411	801.617	621.452
372.913	21.361	801.374	621.031
373.927	21.646	800.783	621.528
374.942	21.840	800.423	621.884
375.956	21.716	800.441	621.400
376.971	22.055	799.779	622.032
377.986	22.092	799.387	621.804
379.000	22.027	798.743	621.020
380.015	21.888	798.099	619.974
381.029	21.999	797.673	619.980
382.044	22.121	797.204	619.989
383.059	22.085	796.344	619.141
384.073	22.103	796.125	618.978
385.088	22.079	795.567	618.403
386.102	21.822	794.877	616.909
387.117	21.888	794.295	616.634
388.132	21.434	793.127	614.079
389.146	21.067	792.165	611.993
390.161	21.404	792.199	613.148
391.175	21.849	791.983	614.486
392.190	21.394	791.162	612.202
393.205	20.034	789.519	606.120
394.219	18.943	787.016	600.339
395.234	18.960	787.471	600.691
396.248	20.545	788.807	607.200
397.263	21.729	789.709	611.977
398.278	21.658	789.306	611.364
399.292	21.531	788.141	609.964
400.307	21.602	787.512	609.670
401.321	21.766	787.124	609.888
402.336	21.982	787.242	610.676
403.350	22.334	787.190	611.804
404.365	22.533	786.653	612.025
405.380	22.783	786.634	612.825
406.394	22.783	785.977	612.259
407.409	22.788	784.942	611.415
408.423	22.546	785.000	610.568
409.438	22.752	784.700	610.992
410.453	22.843	784.155	610.830
411.467	22.582	783.865	609.648
412.482	22.686	783.506	609.674
413.496	22.928	782.607	609.756
414.511	22.779	782.542	609.138
415.526	22.789	782.234	608.879
416.540	22.536	781.383	607.289
417.555	22.288	780.796	605.925
418.569	22.425	780.524	606.132
419.584	22.546	779.692	605.850
420.599	22.262	779.239	604.468
421.613	159.075	1362.503	1798.514
422.628	137.484	1447.459	1798.570
