DTS Sentinel unit serial number:	SN413079Multiplexer serial number:	ORYXHardware model number:	OX4-SRSoftware version number:	ORYX F/W v4.00 Oryx Data Collector v3.7.2.0data status	okinstallation	princeton_trtdifferential loss correction	single-endedforward channel	channel 1reverse channel	N/Adate	2019/09/12time	22:38:35forward acquisition time	60.00reverse acquisition time	0.00gamma	496.2192k internal	0.2327k external	0.2327temperature offset calibration	1.0146default loss term (dB/km)	0.3790temperature slope calibration	1.0000multiplexer offset coefficient	1.0000multiplexer slope coefficient	1.0000fibre end	0.00T internal ref (°C)	29.59T ext. ref 1 (°C)	3.72T ext. ref 2 (°C)	24.15length (m)	temperature (°C)	Stokes	anti-Stokes-747.200	172.562	-0.130	0.188
-746.185	800.000	-0.092	0.300
-745.171	66.731	0.205	0.211
-744.156	459.066	0.148	0.332
-743.142	-200.000	-0.010	-0.231
-742.127	385.783	0.067	0.140
-741.112	800.000	-0.091	-0.269
-740.098	113.279	-0.398	0.487
-739.083	-200.000	-0.019	0.096
-738.069	-200.000	-0.066	0.301
-737.054	10.392	0.198	-0.152
-736.039	169.351	0.062	-0.089
-735.025	36.704	-0.043	-0.039
-734.010	-88.147	-0.430	-0.130
-732.996	-105.645	-0.092	-0.021
-731.981	-73.759	-0.162	-0.059
-730.966	-114.892	0.087	-0.017
-729.952	-73.715	-0.645	-0.236
-728.937	800.000	-0.032	-0.100
-727.923	27.189	-0.145	0.122
-726.908	-127.527	0.144	-0.021
-725.894	662.140	0.052	-0.134
-724.879	286.717	0.097	-0.176
-723.864	800.000	-0.090	-0.384
-722.850	-125.065	0.335	0.052
-721.835	-200.000	-0.017	0.196
-720.821	-138.739	-0.220	0.024
-719.806	-87.605	0.011	-0.003
-718.791	50.141	-0.292	-0.277
-717.777	800.000	0.083	-0.343
-716.762	152.848	0.241	0.332
-715.748	-110.567	-0.116	0.024
-714.733	239.350	0.086	0.144
-713.718	800.000	-0.050	-0.201
-712.704	56.954	-0.108	0.106
-711.689	53.928	-0.189	-0.183
-710.675	163.838	-0.073	-0.103
-709.660	-113.523	0.309	-0.061
-708.645	153.526	-0.131	0.180
-707.631	-200.000	-0.006	0.177
-706.616	111.840	0.216	-0.263
-705.602	-100.272	-0.165	-0.041
-704.587	155.031	-0.023	-0.032
-703.572	685.000	-0.138	-0.364
-702.558	-126.373	-0.236	-0.035
-701.543	17.731	-0.185	-0.148
-700.529	-97.336	0.096	-0.025
-699.514	-106.302	-0.162	-0.037
-698.499	492.815	-0.080	0.185
-697.485	-200.000	0.028	-0.232
-696.470	112.806	-0.247	0.301
-695.456	-200.000	0.023	0.142
-694.441	-137.652	0.260	0.029
-693.426	-158.602	-0.260	0.015
-692.412	-200.000	-0.003	-0.205
-691.397	101.554	-0.116	-0.136
-690.383	80.658	-0.096	-0.105
-689.368	248.145	0.189	-0.322
-688.354	213.187	-0.122	0.193
-687.339	-200.000	-0.013	-0.262
-686.324	103.321	-0.155	-0.183
-685.310	-40.569	0.097	0.050
-684.295	307.229	-0.116	-0.217
-683.281	54.411	0.173	-0.168
-682.266	-132.234	0.218	0.028
-681.251	-51.930	0.091	0.042
-680.237	-200.000	-0.012	-0.149
-679.222	-54.030	-0.330	-0.151
-678.208	702.113	0.018	-0.047
-677.193	616.839	0.054	-0.135
-676.178	-193.043	-0.128	-0.001
-675.164	110.195	0.061	0.073
-674.149	111.899	-0.130	0.158
-673.135	31.677	0.223	0.193
-672.120	734.955	0.023	0.063
-671.105	74.447	-0.230	0.243
-670.091	58.501	-0.291	-0.288
-669.076	-200.000	-0.012	-0.113
-668.062	89.493	0.082	-0.091
-667.047	548.571	-0.034	0.081
-666.032	24.552	-0.157	-0.131
-665.018	-200.000	-0.014	-0.078
-664.003	188.619	0.158	0.237
-662.989	242.975	-0.037	0.062
-661.974	-200.000	0.030	-0.163
-660.959	-61.816	0.202	-0.085
-659.945	243.379	-0.024	-0.041
-658.930	82.229	0.275	-0.300
-657.916	129.033	-0.210	-0.269
-656.901	13.183	-0.091	0.071
-655.886	121.783	0.090	-0.113
-654.872	800.000	-0.128	-0.443
-653.857	-114.417	0.221	-0.043
-652.843	51.026	0.079	-0.075
-651.828	-200.000	0.037	0.261
-650.814	-107.690	-0.169	-0.037
-649.799	32.708	0.169	-0.147
-648.784	133.394	-0.170	0.221
-647.770	761.705	-0.062	-0.170
-646.755	178.251	0.131	0.191
-645.741	73.512	0.135	0.142
-644.726	-26.049	-0.168	-0.099
-643.711	1.138	-0.222	0.160
-642.697	115.794	-0.105	-0.129
-641.682	-110.052	-0.246	0.052
-640.668	-175.598	-0.047	0.001
-639.653	-200.000	0.009	-0.068
-638.638	104.969	-0.239	-0.283
-637.624	-128.268	0.177	-0.025
-636.609	-18.293	0.160	-0.101
-635.595	-14.311	-0.070	0.045
-634.580	-75.897	0.101	0.036
-633.565	800.000	-0.046	-0.138
-632.551	-200.000	-0.010	-0.130
-631.536	-119.055	0.034	0.006
-630.522	-200.000	0.015	-0.181
-629.507	800.000	-0.043	0.187
-628.492	85.038	0.113	-0.125
-627.478	-200.000	-0.043	-0.275
-626.463	-121.840	-0.158	-0.026
-625.449	-94.696	-0.074	-0.020
-624.434	-85.790	-0.157	-0.049
-623.419	-200.000	0.004	0.188
-622.405	-10.991	-0.140	0.093
-621.390	39.418	-0.079	-0.071
-620.376	800.000	-0.062	-0.252
-619.361	-129.180	-0.299	-0.042
-618.346	800.000	0.011	0.034
-617.332	378.333	-0.118	0.241
-616.317	633.944	-0.100	-0.253
-615.303	170.152	0.110	-0.158
-614.288	-36.624	0.069	0.037
-613.273	132.420	-0.190	-0.246
-612.259	-200.000	0.005	-0.480
-611.244	174.912	-0.147	-0.214
-610.230	2.608	-0.372	-0.270
-609.215	667.494	-0.031	-0.081
-608.201	-19.908	0.217	-0.134
-607.186	-200.000	0.032	0.208
-606.171	8.502	0.140	0.106
-605.157	800.000	0.106	0.328
-604.142	771.090	0.027	-0.073
-603.128	622.614	-0.064	0.160
-602.113	-18.746	-0.237	-0.148
-601.098	37.553	0.114	0.102
-600.084	-110.796	0.063	-0.013
-599.069	179.219	0.128	-0.187
-598.055	76.626	-0.317	-0.337
-597.040	-200.000	-0.013	0.228
-596.025	-48.081	0.121	0.059
-595.011	800.000	0.037	-0.161
-593.996	462.647	-0.063	-0.142
-592.982	-70.684	0.195	0.074
-591.967	8.457	0.164	-0.124
-590.952	447.027	-0.079	0.175
-589.938	-92.338	-0.448	0.126
-588.923	437.590	0.098	0.214
-587.909	128.102	0.102	-0.130
-586.894	-82.125	0.110	0.036
-585.879	-200.000	0.028	0.141
-584.865	-82.949	-0.528	0.171
-583.850	-200.000	0.068	0.409
-582.836	301.633	-0.150	-0.278
-581.821	-125.130	0.124	-0.019
-580.806	296.767	-0.071	-0.131
-579.792	-102.217	-0.449	0.108
-578.777	548.186	-0.117	0.282
-577.763	-33.314	-0.366	0.203
-576.748	-70.630	-0.163	-0.062
-575.733	-67.496	0.232	-0.091
-574.719	669.796	0.060	0.154
-573.704	-169.996	0.288	-0.010
-572.690	-105.144	0.181	0.041
-571.675	-200.000	0.011	0.119
-570.661	-70.768	0.234	-0.088
-569.646	140.597	-0.181	-0.239
-568.631	800.000	0.036	0.116
-567.617	526.118	-0.079	0.186
-566.602	27.147	-0.135	0.113
-565.588	-113.256	-0.229	-0.045
-564.573	363.182	-0.060	0.120
-563.558	-200.000	-0.008	0.166
-562.544	800.000	-0.110	-0.307
-561.529	-20.788	-0.235	-0.144
-560.515	-145.778	0.171	-0.015
-559.500	-63.921	-0.178	-0.073
-558.485	-164.114	0.031	-0.001
-557.471	131.629	0.074	-0.096
-556.456	-66.662	0.156	-0.062
-555.442	-200.000	-0.026	0.250
-554.427	163.708	-0.134	0.188
-553.412	-200.000	-0.003	0.218
-552.398	55.140	-0.129	0.125
-551.383	-40.048	0.062	-0.032
-550.369	-200.000	-0.046	0.313
-549.354	245.509	0.092	0.155
-548.339	-200.000	-0.014	0.326
-547.325	800.000	0.097	-0.283
-546.310	-99.908	0.313	0.078
-545.296	272.798	-0.056	-0.098
-544.281	800.000	0.036	0.119
-543.266	277.512	-0.089	-0.159
-542.252	-38.874	0.343	0.181
-541.237	-35.438	-0.158	0.086
-540.223	-89.918	-0.559	0.163
-539.208	-92.030	0.229	-0.065
-538.193	224.973	-0.093	0.150
-537.179	-20.537	0.254	-0.156
-536.164	-200.000	0.008	-0.053
-535.150	-123.893	-0.435	0.069
-534.135	-131.316	-0.164	0.022
-533.121	-72.179	0.026	-0.010
-532.106	-91.130	-0.115	0.033
-531.091	800.000	-0.053	-0.170
-530.077	14.749	0.156	-0.122
-529.062	250.673	-0.067	0.114
-528.048	705.664	0.045	0.120
-527.033	800.000	-0.053	-0.209
-526.018	-155.901	-0.158	-0.010
-525.004	-119.651	0.214	0.037
-523.989	-200.000	-0.011	0.295
-522.975	-105.114	-0.296	0.068
-521.960	25.206	-0.276	0.229
-520.945	-146.586	0.404	0.035
-519.931	800.000	-0.066	-0.271
-518.916	29.966	0.276	-0.235
-517.902	-200.000	0.018	-0.149
-516.887	-27.741	0.407	-0.236
-515.872	451.367	-0.116	-0.256
-514.858	228.687	-0.045	0.073
-513.843	32.871	-0.292	0.253
-512.829	39.972	-0.235	-0.211
-511.814	-136.929	0.265	-0.030
-510.799	185.813	0.137	0.203
-509.785	-11.438	-0.154	0.101
-508.770	800.000	0.026	-0.105
-507.756	42.950	0.055	0.050
-506.741	-70.812	0.361	-0.136
-505.726	184.535	-0.052	0.078
-504.712	-140.638	-0.037	0.004
-503.697	-98.366	0.179	-0.046
-502.683	800.000	0.064	-0.259
-501.668	-118.580	-0.286	-0.051
-500.653	800.000	0.023	0.082
-499.639	-104.290	-0.065	-0.015
-498.624	378.443	-0.132	-0.270
-497.610	800.000	0.034	-0.123
-496.595	-27.234	0.071	-0.041
-495.581	-200.000	-0.013	-0.094
-494.566	6.587	0.132	-0.098
-493.551	-81.258	0.249	-0.082
-492.537	461.186	0.285	-0.635
-491.522	-106.828	0.078	-0.017
-490.508	756.248	0.054	0.147
-489.493	-42.345	0.173	-0.088
-488.478	778.069	-0.044	-0.120
-487.464	-4.336	0.129	0.089
-486.449	190.483	-0.177	-0.266
-485.435	-200.000	-0.032	-0.375
-484.420	-7.263	-0.055	0.037
-483.405	536.173	0.085	-0.202
-482.391	-56.667	0.071	0.031
-481.376	-104.007	-0.190	-0.044
-480.362	-137.943	0.115	-0.013
-479.347	133.718	-0.214	-0.276
-478.332	-109.849	-0.336	-0.070
-477.318	403.581	-0.166	-0.349
-476.303	37.584	0.110	-0.098
-475.289	192.671	-0.144	0.217
-474.274	-200.000	-0.030	0.368
-473.259	263.179	0.259	0.449
-472.245	-50.323	0.039	-0.018
-471.230	-200.000	-0.001	-0.263
-470.216	88.863	0.074	-0.082
-469.201	-63.899	-0.078	-0.032
-468.186	-98.089	-0.203	0.052
-467.172	-13.790	0.246	-0.159
-466.157	-200.000	0.026	0.156
-465.143	-113.481	0.564	-0.110
-464.128	800.000	0.047	0.148
-463.113	237.742	-0.167	0.276
-462.099	-120.309	0.082	0.014
-461.084	-200.000	-0.028	0.128
-460.070	-200.000	-0.007	0.176
-459.055	378.398	-0.091	0.186
-458.040	339.140	0.116	0.225
-457.026	-70.402	0.285	-0.108
-456.011	-95.065	-0.054	-0.015
-454.997	391.472	0.121	-0.250
-453.982	-200.000	0.005	0.325
-452.968	-169.764	0.158	0.006
-451.953	7.890	0.099	0.074
-450.938	577.351	0.133	-0.323
-449.924	-79.812	-0.233	-0.078
-448.909	-91.665	0.066	0.019
-447.895	-200.000	0.013	-0.093
-446.880	428.124	-0.033	0.071
-445.865	-186.689	-0.101	0.001
-444.851	-174.800	0.324	0.009
-443.836	-15.774	-0.096	0.061
-442.822	-111.970	-0.079	0.016
-441.807	-175.913	0.076	0.002
-440.792	-95.802	-0.283	0.075
-439.778	-146.333	-0.280	-0.024
-438.763	-36.677	-0.039	-0.021
-437.749	427.422	0.057	-0.122
-436.734	255.649	0.090	-0.154
-435.719	-26.222	-0.368	0.215
-434.705	330.604	-0.098	0.187
-433.690	44.954	0.117	0.107
-432.676	-200.000	0.004	-0.088
-431.661	0.512	-0.188	0.134
-430.646	-200.000	0.013	-0.087
-429.632	-131.664	-0.186	0.024
-428.617	-200.000	0.013	0.279
-427.603	275.156	-0.126	-0.222
-426.588	800.000	0.047	-0.183
-425.573	-59.463	-0.273	0.117
-424.559	800.000	-0.055	0.224
-423.544	-200.000	0.002	0.243
-422.530	189.576	-0.158	-0.236
-421.515	-78.335	0.073	0.025
-420.500	-131.081	-0.164	-0.022
-419.486	230.561	-0.014	-0.023
-418.471	-94.652	0.428	-0.116
-417.457	-80.494	-0.274	0.091
-416.442	-121.064	0.330	-0.055
-415.428	-200.000	-0.037	0.277
-414.413	-163.889	0.191	-0.009
-413.398	-200.000	-0.002	-0.174
-412.384	-200.000	0.046	-0.371
-411.369	540.906	0.068	-0.161
-410.355	-200.000	0.033	-0.216
-409.340	85.351	0.078	-0.086
-408.325	-0.133	-0.268	0.190
-407.311	-107.383	-0.144	0.031
-406.296	-39.091	0.291	0.152
-405.282	-125.702	0.238	-0.036
-404.267	15.227	-0.103	0.080
-403.252	800.000	-0.077	0.266
-402.238	-200.000	0.029	0.134
-401.223	-59.484	-0.229	0.098
-400.209	185.129	0.066	-0.097
-399.194	63.145	0.143	-0.142
-398.179	-200.000	-0.034	0.286
-397.165	-125.472	0.406	-0.062
-396.150	-179.580	-0.091	0.002
-395.136	-200.000	0.005	-0.028
-394.121	-62.340	-0.088	0.037
-393.106	-125.187	0.347	-0.053
-392.092	-16.899	0.259	-0.163
-391.077	-122.082	-0.384	-0.063
-390.063	192.390	0.301	0.452
-389.048	800.000	0.115	0.407
-388.033	-59.127	0.123	0.053
-387.019	0.422	0.126	0.089
-386.004	-14.677	-0.268	0.171
-384.990	-126.465	0.278	-0.041
-383.975	163.620	0.041	0.057
-382.960	-200.000	0.041	0.540
-381.946	-75.717	0.172	0.061
-380.931	-200.000	0.037	0.214
-379.917	-137.505	0.144	0.016
-378.902	70.483	-0.214	-0.220
-377.888	-65.128	-0.131	-0.053
-376.873	83.323	-0.245	-0.265
-375.858	-200.000	-0.013	0.071
-374.844	177.379	0.058	-0.084
-373.829	298.705	-0.024	-0.044
-372.815	-200.000	-0.087	0.529
-371.800	-15.354	-0.343	0.218
-370.785	-117.758	0.375	0.067
-369.771	-200.000	-0.047	0.222
-368.756	90.909	0.138	-0.153
-367.742	-200.000	-0.025	-0.117
-366.727	800.000	0.116	0.368
-365.712	38.479	-0.143	-0.127
-364.698	-200.000	-0.078	-0.607
-363.683	154.103	-0.046	0.063
-362.669	-109.755	-0.187	-0.039
-361.654	-200.000	0.033	-0.249
-360.639	227.559	0.042	-0.068
-359.625	282.432	-0.079	-0.140
-358.610	16.269	0.109	0.085
-357.596	86.759	-0.207	-0.227
-356.581	-30.494	-0.098	-0.055
-355.566	115.524	-0.264	0.321
-354.552	77.450	0.092	0.097
-353.537	-129.285	-0.132	-0.018
-352.523	-200.000	-0.006	0.040
-351.508	-18.028	-0.104	-0.065
-350.493	-200.000	0.041	0.209
-349.479	800.000	-0.092	-0.333
-348.464	223.358	-0.223	-0.357
-347.450	800.000	-0.084	0.248
-346.435	-101.857	0.237	0.057
-345.420	-101.075	-0.114	0.028
-344.406	99.687	0.397	0.456
-343.391	-85.074	-0.399	0.124
-342.377	142.802	0.079	0.104
-341.362	200.446	0.061	-0.094
-340.348	135.591	-0.123	-0.158
-339.333	-13.556	0.151	-0.097
-338.318	-95.484	0.116	0.031
-337.304	-200.000	0.039	-0.198
-336.289	72.899	0.121	-0.126
-335.275	-59.708	0.353	0.150
-334.260	800.000	-0.070	0.199
-333.245	-72.383	0.512	0.188
-332.231	-5.924	0.122	-0.083
-331.216	-135.714	0.634	0.075
-330.202	108.570	0.108	0.129
-329.187	-67.496	0.253	0.098
-328.172	-82.765	0.421	0.135
-327.158	800.000	0.052	0.190
-326.143	-10.534	0.183	-0.120
-325.129	731.199	0.067	-0.178
-324.114	157.122	0.181	0.249
-323.099	-11.415	-0.338	-0.221
-322.085	358.286	-0.062	0.124
-321.070	408.572	-0.086	-0.180
-320.056	198.806	0.112	-0.171
-319.041	-110.786	0.135	-0.028
-318.026	-200.000	-0.036	0.183
-317.012	60.338	-0.356	-0.350
-315.997	66.661	0.136	0.137
-314.983	800.000	-0.146	0.439
-313.968	-83.667	0.224	-0.071
-312.953	-123.266	-0.290	-0.046
-311.939	33.003	-0.044	0.038
-310.924	-200.000	0.023	-0.414
-309.910	218.899	0.135	-0.214
-308.895	-94.973	0.172	0.046
-307.880	-115.442	0.145	0.027
-306.866	-200.000	-0.007	0.225
-305.851	39.028	0.142	0.126
-304.837	18.284	0.286	0.226
-303.822	73.083	-0.012	-0.013
-302.807	-6.359	0.422	-0.285
-301.793	55.170	-0.073	0.070
-300.778	25.801	-0.191	-0.158
-299.764	-59.604	0.059	0.025
-298.749	124.532	-0.104	-0.130
-297.735	-200.000	-0.018	-0.103
-296.720	-111.889	0.136	-0.027
-295.705	58.956	0.047	-0.046
-294.691	-200.000	0.035	-0.306
-293.676	-73.985	-0.316	0.114
-292.662	800.000	0.028	-0.100
-291.647	-94.081	-0.296	-0.081
-290.632	-163.769	-0.276	0.013
-289.618	99.385	0.182	0.208
-288.603	-99.042	0.171	-0.043
-287.589	244.835	-0.131	0.218
-286.574	800.000	-0.104	0.301
-285.559	-73.926	0.338	-0.121
-284.545	-200.000	-0.043	0.221
-283.530	-200.000	0.015	0.258
-282.516	-58.905	0.532	0.228
-281.501	-95.658	0.260	-0.069
-280.486	-52.688	-0.056	0.025
-279.472	-133.404	0.130	-0.016
-278.457	800.000	-0.072	-0.231
-277.443	-200.000	0.029	0.201
-276.428	40.594	-0.174	0.155
-275.413	-199.358	-0.040	-0.000
-274.399	-176.568	-0.223	0.006
-273.384	-151.059	-0.170	-0.013
-272.370	-8.835	0.200	0.133
-271.355	800.000	-0.044	-0.167
-270.340	-16.926	-0.287	0.180
-269.326	-100.302	0.198	-0.049
-268.311	-107.960	-0.291	0.063
-267.297	463.415	0.089	0.197
-266.282	194.417	-0.177	-0.266
-265.267	-200.000	-0.017	-0.281
-264.253	-87.599	-0.437	0.131
-263.238	-200.000	0.045	0.295
-262.224	-67.949	-0.216	0.083
-261.209	15.736	-0.234	-0.182
-260.195	657.859	-0.063	-0.160
-259.180	40.737	0.137	-0.122
-258.165	50.957	-0.255	-0.239
-257.151	-39.418	-0.221	0.115
-256.136	-61.811	0.165	0.068
-255.122	800.000	0.019	-0.064
-254.107	800.000	0.068	0.261
-253.092	-77.165	-0.178	0.061
-252.078	-200.000	-0.096	-0.469
-251.063	-113.611	0.191	0.037
-250.049	-116.859	0.066	0.012
-249.034	-194.339	0.249	-0.002
-248.019	479.684	0.064	-0.144
-247.005	134.136	-0.217	-0.279
-245.990	-200.000	-0.069	0.337
-244.976	-200.000	-0.001	-0.051
-243.961	800.000	0.075	0.270
-242.946	322.406	-0.097	-0.183
-241.932	-64.892	0.419	0.168
-240.917	-200.000	0.016	0.091
-239.903	-200.000	0.037	0.183
-238.888	-5.361	-0.116	0.079
-237.873	207.869	-0.277	0.428
-236.859	-200.000	-0.067	-0.301
-235.844	160.333	0.204	-0.281
-234.830	-200.000	-0.013	-0.094
-233.815	-26.840	0.105	-0.060
-232.800	73.533	-0.089	-0.092
-231.786	-94.193	-0.098	0.026
-230.771	98.546	0.176	0.200
-229.757	670.855	0.134	0.342
-228.742	-200.000	0.030	0.241
-227.727	-117.607	-0.100	0.018
-226.713	-145.351	-0.237	0.021
-225.698	87.996	0.151	-0.166
-224.684	64.463	0.067	0.067
-223.669	31.992	0.118	-0.101
-222.655	279.925	0.192	-0.340
-221.640	52.278	0.196	-0.185
-220.625	-20.382	-0.193	0.118
-219.611	-135.720	0.079	0.009
-218.596	-161.810	0.052	0.003
-217.582	58.104	-0.106	-0.103
-216.567	-151.973	-0.162	0.012
-215.552	157.358	0.179	-0.244
-214.538	-143.613	-0.195	-0.018
-213.523	-114.397	0.180	-0.034
-212.509	-200.000	-0.026	-0.257
-211.494	-57.790	-0.272	0.118
-210.479	800.000	0.103	0.354
-209.465	-200.000	0.068	-0.444
-208.450	800.000	-0.056	0.154
-207.436	367.626	-0.155	-0.310
-206.421	-200.000	-0.027	0.146
-205.406	54.607	0.054	-0.051
-204.392	-93.697	0.273	0.074
-203.377	41.566	-0.141	-0.126
-202.363	-39.836	0.140	0.072
-201.348	44.011	-0.135	0.122
-200.333	-159.824	-0.199	0.011
-199.319	-13.291	0.216	0.139
-198.304	800.000	-0.060	0.229
-197.290	143.081	0.125	0.164
-196.275	-96.452	0.250	0.065
-195.260	-135.286	-0.177	0.021
-194.246	800.000	0.056	0.230
-193.231	73.721	0.170	0.176
-192.217	140.646	-0.115	-0.149
-191.202	71.317	0.222	-0.227
-190.187	69.082	-0.117	0.119
-189.173	81.205	0.123	-0.131
-188.158	-111.631	-0.074	-0.015
-187.144	-62.435	0.256	-0.105
-186.129	-152.288	-0.216	0.015
-185.114	-132.949	0.263	0.033
-184.100	-200.000	0.025	0.180
-183.085	-13.212	-0.285	0.183
-182.071	-136.524	0.025	-0.003
-181.056	95.861	0.135	0.152
-180.042	-126.510	0.270	-0.040
-179.027	-11.927	0.168	-0.109
-178.012	-109.374	-0.069	0.014
-176.998	117.448	-0.225	-0.273
-175.983	-77.644	-0.241	0.082
-174.969	-200.000	-0.006	0.048
-173.954	-95.835	0.105	-0.028
-172.939	800.000	-0.051	-0.201
-171.925	-28.984	-0.543	0.308
-170.910	-3.369	-0.153	-0.105
-169.896	-200.000	0.020	-0.436
-168.881	-15.727	-0.144	0.090
-167.866	800.000	0.035	-0.100
-166.852	-122.208	0.216	0.035
-165.837	-200.000	0.017	-0.141
-164.823	-89.956	-0.078	-0.022
-163.808	-137.305	0.096	0.011
-162.793	116.453	0.045	-0.054
-161.779	220.003	0.135	-0.213
-160.764	-156.484	0.113	-0.007
-159.750	72.520	0.123	0.127
-158.735	61.619	0.096	-0.094
-157.720	-7.193	0.049	0.033
-156.706	-119.040	-0.286	0.049
-155.691	-158.287	-0.141	-0.008
-154.677	91.928	-0.144	-0.160
-153.662	-32.073	0.118	-0.065
-152.647	211.086	0.140	-0.217
-151.633	58.728	-0.059	0.057
-150.618	-54.656	0.107	0.048
-149.604	-68.774	-0.066	0.025
-148.589	96.687	-0.168	0.190
-147.574	409.296	-0.126	0.262
-146.560	-200.000	0.060	-0.294
-145.545	183.556	-0.225	0.328
-144.531	50.287	-0.196	0.182
-143.516	-52.688	0.270	0.123
-142.502	800.000	0.024	-0.104
-141.487	726.540	0.090	-0.237
-140.472	215.684	-0.090	0.141
-139.458	-200.000	-0.004	0.110
-138.443	-93.426	0.241	0.066
-137.429	51.871	0.071	-0.067
-136.414	-200.000	-0.006	0.072
-135.399	-129.558	0.446	-0.061
-134.385	39.432	0.087	-0.077
-133.370	-200.000	-0.018	-0.209
-132.356	-66.318	0.249	0.098
-131.341	54.834	-0.118	0.112
-130.326	349.305	0.123	-0.238
-129.312	-132.239	-0.356	0.045
-128.297	-100.980	0.173	-0.042
-127.283	-120.264	0.309	0.052
-126.268	156.545	0.137	0.187
-125.253	-200.000	0.023	-0.207
-124.239	-145.950	0.149	-0.013
-123.224	-200.000	0.002	0.053
-122.210	40.309	-0.206	-0.183
-121.195	8.530	0.044	-0.033
-120.180	48.328	0.171	0.157
-119.166	356.240	0.069	0.135
-118.151	-71.012	-0.216	-0.080
-117.137	-200.000	-0.026	0.229
-116.122	20.453	0.181	0.144
-115.107	-136.614	0.109	0.012
-114.093	304.757	0.150	0.274
-113.078	-200.000	0.042	-0.329
-112.064	-34.573	0.265	-0.142
-111.049	-105.724	-0.038	0.008
-110.034	-44.569	0.130	0.064
-109.020	-200.000	0.019	0.134
-108.005	-111.084	0.289	-0.058
-106.991	80.212	-0.181	-0.192
-105.976	71.287	0.220	0.225
-104.962	-108.417	-0.343	-0.073
-103.947	91.926	-0.129	0.142
-102.932	-82.645	-0.179	0.057
-101.918	-101.193	0.246	0.059
-100.903	645.758	-0.085	0.214
-99.889	-90.467	0.061	0.017
-98.874	-96.199	0.144	-0.037
-97.859	-38.258	0.104	0.054
-96.845	-200.000	0.000	0.161
-95.830	800.000	0.096	0.328
-94.816	-66.239	-0.346	0.135
-93.801	230.053	-0.072	-0.115
-92.786	27.782	0.249	0.206
-91.772	134.513	0.275	0.350
-90.757	60.160	-0.074	-0.072
-89.743	22.162	0.164	-0.132
-88.728	-142.855	-0.094	0.009
-87.713	236.270	0.175	-0.284
-86.699	-146.452	0.047	-0.004
-85.684	172.617	-0.102	0.144
-84.670	-200.000	0.007	-0.068
-83.655	149.729	0.104	-0.139
-82.640	-98.112	0.514	-0.130
-81.626	-20.293	0.182	-0.110
-80.611	82.315	0.129	0.137
-79.597	44.373	-0.093	-0.084
-78.582	-43.438	0.129	0.064
-77.567	87.017	-0.089	0.097
-76.553	-7.337	0.229	0.153
-75.538	800.000	0.035	-0.109
-74.524	-47.007	0.112	-0.054
-73.509	800.000	0.027	-0.086
-72.494	-45.665	-0.187	-0.091
-71.480	-58.580	0.139	0.059
-70.465	285.660	-0.253	-0.448
-69.451	-152.447	0.205	0.014
-68.436	489.621	-0.047	0.104
-67.422	-200.000	0.038	-0.219
-66.407	-200.000	0.018	-0.258
-65.392	624.167	-0.072	0.179
-64.378	-148.776	-0.271	-0.022
-63.363	155.403	0.055	0.074
-62.349	50.923	-0.166	-0.155
-61.334	257.794	-0.787	-1.329
-60.319	281.533	0.452	0.794
-59.305	249.807	-0.644	-1.073
-58.290	61.798	0.790	0.773
-57.276	592.856	0.716	1.736
-56.261	-200.000	108.446	604.295
-55.246	513.676	1486.758	3403.125
-54.232	180.313	2668.190	3841.366
-53.217	110.827	2146.767	2535.329
-52.203	40.925	1597.143	1414.696
-51.188	33.109	1337.754	1138.063
-50.173	29.976	1297.136	1085.142
-49.159	53.346	1351.699	1271.312
-48.144	53.905	1367.344	1289.318
-47.130	33.086	1321.647	1124.048
-46.115	29.837	1303.651	1089.598
-45.100	29.540	1299.183	1084.078
-44.086	29.550	1296.584	1081.926
-43.071	29.427	1294.059	1079.059
-42.057	29.475	1291.998	1077.577
-41.042	29.538	1290.293	1076.477
-40.027	29.491	1288.783	1074.902
-39.013	29.465	1287.079	1073.288
-37.998	29.501	1285.211	1071.898
-36.984	29.600	1283.383	1070.902
-35.969	29.622	1281.591	1069.494
-34.954	29.565	1279.964	1067.763
-33.940	29.591	1278.972	1067.043
-32.925	29.723	1277.776	1066.761
-31.911	29.650	1276.170	1064.963
-30.896	29.726	1274.757	1064.174
-29.881	29.728	1273.337	1062.960
-28.867	29.667	1271.902	1061.370
-27.852	29.701	1270.565	1060.405
-26.838	29.743	1268.944	1059.251
-25.823	29.735	1267.681	1058.108
-24.809	29.667	1266.542	1056.732
-23.794	29.653	1265.431	1055.682
-22.779	29.623	1264.188	1054.431
-21.765	29.654	1262.720	1053.342
-20.750	29.799	1260.941	1052.641
-19.736	29.653	1260.038	1051.015
-18.721	29.592	1258.937	1049.708
-17.706	29.586	1257.712	1048.613
-16.692	29.553	1256.751	1047.578
-15.677	29.513	1255.769	1046.490
-14.663	29.563	1254.454	1045.640
-13.648	29.506	1253.309	1044.319
-12.633	29.594	1252.050	1043.726
-11.619	29.498	1251.929	1043.041
-10.604	29.446	1251.353	1042.226
-9.590	29.424	1250.194	1041.098
-8.575	29.530	1248.750	1040.451
-7.560	29.512	1247.853	1039.562
-6.546	29.559	1247.020	1039.089
-5.531	29.470	1246.314	1037.961
-4.517	29.624	1245.336	1037.968
-3.502	29.606	1244.382	1037.033
-2.487	29.625	1243.676	1036.507
-1.473	29.553	1239.507	1032.591
-0.458	27.949	1224.370	1011.071
0.556	25.864	1206.994	972.574
1.571	21.858	1211.742	954.556
2.586	20.980	1225.693	960.624
3.600	20.541	1214.168	949.111
4.615	15.706	1143.596	868.940
5.629	7.651	1070.822	774.454
6.644	4.058	1051.639	743.292
7.659	3.765	1049.581	740.365
8.673	3.516	1047.958	737.963
9.688	3.533	1046.726	737.113
10.702	4.029	1044.906	738.131
11.717	9.030	1051.566	766.715
12.731	17.556	1064.064	816.820
13.746	22.472	1069.988	844.940
14.761	23.408	1070.658	849.887
15.775	22.807	1069.428	845.952
16.790	22.037	1067.609	840.755
17.804	21.624	1066.466	837.804
18.819	21.414	1065.686	836.112
19.834	21.371	1065.612	835.777
20.848	21.656	1064.678	836.332
21.863	21.435	1064.013	834.678
22.877	21.130	1062.999	832.359
23.892	21.040	1062.389	831.377
24.907	21.102	1061.756	831.102
25.921	21.017	1060.381	829.548
26.936	21.006	1058.944	828.297
27.950	20.926	1057.699	826.874
28.965	21.092	1056.318	826.506
29.980	21.248	1055.183	826.281
30.994	21.461	1054.221	826.465
32.009	21.492	1053.230	825.757
33.023	21.303	1052.689	824.372
34.038	21.185	1051.612	822.898
35.053	20.905	1050.616	820.729
36.067	21.093	1049.418	820.604
37.082	21.140	1048.850	820.306
38.096	21.231	1048.177	820.137
39.111	21.380	1047.494	820.226
40.126	21.139	1045.847	817.735
41.140	20.771	1044.248	814.692
42.155	20.523	1043.558	812.921
43.169	20.391	1042.329	811.275
44.184	20.446	1041.425	810.757
45.199	20.378	1041.028	810.058
46.213	20.730	1040.032	810.851
47.228	21.148	1039.089	811.990
48.242	21.200	1038.201	811.468
49.257	21.157	1037.871	810.936
50.271	21.291	1036.782	810.639
51.286	21.339	1036.195	810.331
52.301	21.293	1034.798	808.953
53.315	21.001	1034.327	807.161
54.330	20.891	1033.047	805.584
55.344	20.875	1032.397	804.927
56.359	20.875	1031.101	803.848
57.374	20.642	1030.555	802.276
58.388	20.543	1029.592	800.999
59.403	20.435	1028.608	799.668
60.417	20.439	1028.087	799.210
61.432	20.531	1027.282	798.933
62.447	20.399	1026.459	797.618
63.461	20.410	1025.393	796.770
64.476	20.272	1024.529	795.395
65.490	20.121	1023.982	794.210
66.505	20.413	1022.563	794.372
67.520	20.362	1022.495	794.017
68.534	20.287	1021.579	792.893
69.549	20.110	1020.641	791.288
70.563	20.017	1020.010	790.304
71.578	19.906	1019.188	789.088
72.593	19.717	1018.222	787.410
73.607	19.776	1017.410	786.984
74.622	19.870	1017.031	787.046
75.636	20.021	1016.203	787.022
76.651	20.099	1015.730	786.940
77.666	20.070	1015.354	786.447
78.680	20.079	1014.719	785.926
79.695	20.089	1014.167	785.478
80.709	20.424	1013.218	786.190
81.724	20.396	1012.846	785.704
82.739	20.565	1012.419	786.066
83.753	21.041	1011.994	787.818
84.768	21.516	1011.457	789.473
85.782	21.779	1010.723	790.018
86.797	21.613	1009.752	788.442
87.812	21.357	1008.767	786.451
88.826	21.419	1007.714	785.837
89.841	21.487	1007.086	785.583
90.855	21.539	1005.910	784.831
91.870	21.657	1005.018	784.593
92.884	21.557	1004.130	783.386
93.899	21.439	1003.295	782.135
94.914	21.535	1002.361	781.765
95.928	21.404	1001.627	780.541
96.943	21.259	1000.740	779.131
97.957	21.287	999.355	778.110
98.972	21.166	998.938	777.177
99.987	21.323	998.068	777.132
101.001	21.213	997.157	775.864
102.016	21.192	996.084	774.866
103.030	21.280	995.814	774.979
104.045	21.450	994.696	774.795
105.060	21.204	993.972	773.074
106.074	21.021	992.297	770.895
107.089	20.704	991.320	768.667
108.103	20.472	990.054	766.594
109.118	20.344	989.155	765.265
110.133	20.326	987.432	763.785
111.147	20.248	987.007	763.046
112.162	20.298	986.708	762.968
113.176	20.424	986.250	763.097
114.191	20.553	985.628	763.117
115.206	20.538	984.639	762.216
116.220	20.364	984.098	760.970
117.235	20.235	983.027	759.508
118.249	20.183	982.114	758.509
119.264	20.133	981.218	757.531
120.279	20.203	980.040	756.858
121.293	20.091	978.981	755.487
122.308	19.851	978.458	753.971
123.322	19.578	977.896	752.279
124.337	19.831	976.626	752.337
125.352	19.905	975.133	751.443
126.366	19.973	974.142	750.906
127.381	19.982	973.786	750.605
128.395	20.106	972.894	750.389
129.410	20.130	972.022	749.754
130.424	20.239	971.499	749.755
131.439	20.478	970.567	750.001
132.454	20.562	969.991	749.851
133.468	20.581	969.259	749.301
134.483	20.470	968.857	748.447
135.497	20.571	967.765	747.970
136.512	20.474	966.813	746.753
137.527	20.462	966.017	746.020
138.541	20.492	965.465	745.657
139.556	20.606	965.121	745.812
140.570	20.831	964.638	746.338
141.585	21.271	963.442	747.229
142.600	21.258	962.721	746.550
143.614	21.486	961.998	746.896
144.629	21.477	960.955	745.981
145.643	21.294	959.926	744.339
146.658	21.100	958.585	742.405
147.673	20.895	957.569	740.683
148.687	20.681	956.458	738.848
149.702	20.595	955.380	737.586
150.716	20.498	954.462	736.399
151.731	20.523	954.727	736.647
152.746	20.732	953.405	736.445
153.760	20.812	952.942	736.360
154.775	20.962	952.120	736.295
155.789	21.087	951.239	736.074
156.804	21.082	950.637	735.521
157.819	21.097	950.308	735.265
158.833	21.320	949.838	735.775
159.848	21.513	949.035	735.903
160.862	21.228	947.805	733.685
161.877	20.865	945.856	730.590
162.892	20.537	944.872	728.392
163.906	20.441	944.276	727.466
164.921	20.405	943.566	726.703
165.935	20.545	942.563	726.450
166.950	20.819	941.850	726.981
167.964	20.672	941.453	725.996
168.979	20.588	940.123	724.558
169.994	20.706	938.967	724.094
171.008	20.779	938.685	724.114
172.023	21.254	938.200	725.650
173.037	21.392	937.725	725.791
174.052	21.076	936.815	723.712
175.067	20.553	935.693	720.615
176.081	20.247	935.052	718.792
177.096	20.346	934.124	718.424
178.110	20.442	933.724	718.448
179.125	20.498	933.458	718.410
180.140	20.659	933.265	718.865
181.154	20.887	932.835	719.413
182.169	21.137	932.341	719.998
183.183	21.216	932.009	720.006
184.198	21.218	931.105	719.250
185.213	21.125	930.213	718.117
186.227	21.261	929.674	718.195
187.242	21.253	929.525	717.983
188.256	21.383	928.639	717.769
189.271	21.548	927.753	717.698
190.286	21.079	926.572	714.797
191.300	20.383	925.453	711.024
192.315	20.282	924.799	710.044
193.329	20.340	924.341	709.870
194.344	20.634	923.649	710.475
195.359	20.761	923.355	710.706
196.373	20.851	923.040	710.766
197.388	21.032	922.894	711.330
198.402	21.397	922.696	712.601
199.417	21.597	922.133	712.916
200.432	21.759	921.424	712.967
201.446	21.845	921.183	713.067
202.461	21.899	920.806	712.929
203.475	21.664	919.981	711.275
204.490	21.454	918.421	709.157
205.504	21.207	917.718	707.546
206.519	21.196	917.109	706.971
207.534	21.075	916.609	706.035
208.548	21.083	916.243	705.721
209.563	21.208	915.305	705.440
210.577	21.283	914.544	705.094
211.592	21.645	913.842	705.950
212.607	21.730	913.678	706.104
213.621	21.488	913.307	704.782
214.636	21.468	912.390	703.932
215.650	21.634	911.152	703.580
216.665	21.740	910.774	703.651
217.680	21.855	910.622	703.932
218.694	21.769	909.507	702.663
219.709	21.519	909.232	701.388
220.723	21.421	908.498	700.368
221.738	21.524	907.221	699.733
222.753	21.424	906.758	698.912
223.767	21.493	906.643	699.039
224.782	21.678	906.760	699.808
225.796	21.785	906.010	699.592
226.811	21.685	904.914	698.287
227.826	21.366	903.746	696.054
228.840	21.346	902.985	695.327
229.855	21.351	902.394	694.828
230.869	21.332	901.357	693.893
231.884	21.281	900.825	693.220
232.899	21.056	900.414	691.950
233.913	20.881	899.375	690.397
234.928	20.803	898.730	689.531
235.942	20.894	897.804	689.122
236.957	20.792	897.782	688.640
237.972	20.844	897.550	688.605
238.986	20.785	896.613	687.592
240.001	20.886	895.753	687.270
241.015	21.024	895.366	687.457
242.030	21.092	894.955	687.351
243.045	21.293	894.248	687.539
244.059	21.318	894.111	687.470
245.074	21.282	893.501	686.795
246.088	21.482	892.745	686.943
247.103	21.731	892.383	687.580
248.117	22.044	892.180	688.591
249.132	22.372	892.309	689.914
250.147	22.762	891.668	690.883
251.161	22.742	891.201	690.383
252.176	22.603	890.853	689.508
253.190	22.855	890.121	689.866
254.205	22.715	889.573	688.834
255.220	22.678	888.666	687.927
256.234	22.672	887.576	686.995
257.249	22.650	887.048	686.442
258.263	22.572	886.157	685.388
259.278	22.531	885.853	684.935
260.293	22.643	885.463	685.004
261.307	22.636	884.956	684.526
262.322	22.708	884.729	684.569
263.336	22.675	883.900	683.739
264.351	22.747	882.686	683.018
265.366	22.612	882.308	682.143
266.380	22.604	882.043	681.846
267.395	22.365	881.034	680.086
268.409	22.346	880.273	679.362
269.424	22.386	879.847	679.130
270.439	22.371	878.722	678.142
271.453	22.089	878.049	676.476
272.468	22.082	877.743	676.153
273.482	22.273	877.155	676.377
274.497	22.255	876.127	675.455
275.512	22.136	875.564	674.503
276.526	22.254	875.177	674.600
277.541	22.440	874.890	675.031
278.555	22.569	874.758	675.363
279.570	22.887	874.132	676.037
280.585	22.672	873.317	674.526
281.599	22.445	872.293	672.809
282.614	22.165	871.410	670.999
283.628	22.100	870.978	670.360
284.643	22.154	870.199	669.907
285.657	22.223	869.597	669.646
286.672	22.251	869.542	669.652
287.687	22.253	868.812	669.038
288.701	22.250	868.267	668.547
289.716	22.459	867.235	668.487
290.730	22.467	866.488	667.883
291.745	22.447	866.039	667.399
292.760	22.551	865.688	667.464
293.774	22.807	865.698	668.384
294.789	22.630	865.233	667.295
295.803	22.427	863.629	665.235
296.818	22.261	863.001	664.062
297.833	22.177	862.669	663.431
298.847	22.195	861.938	662.878
299.862	22.479	861.311	663.409
300.876	22.560	860.981	663.402
301.891	22.890	860.575	664.270
302.906	23.023	860.235	664.447
303.920	23.185	859.642	664.540
304.935	23.248	859.344	664.487
305.949	23.080	858.312	663.000
306.964	22.781	857.911	661.513
307.979	22.749	857.040	660.664
308.993	22.999	856.525	661.143
310.008	23.005	856.039	660.730
311.022	22.805	855.362	659.402
312.037	22.709	854.296	658.163
313.052	22.360	853.343	656.071
314.066	22.168	852.931	654.982
315.081	22.217	852.678	654.910
316.095	22.234	851.955	654.360
317.110	22.248	851.294	653.846
318.125	22.186	850.848	653.217
319.139	22.088	850.161	652.267
320.154	22.053	850.182	652.096
321.168	22.176	849.737	652.154
322.183	22.271	849.215	652.048
323.197	22.417	848.529	652.005
324.212	22.350	848.086	651.356
325.227	22.140	847.298	649.918
326.241	22.200	846.234	649.265
327.256	22.082	845.849	648.478
328.270	22.316	845.393	648.934
329.285	22.169	844.560	647.693
330.300	22.070	844.307	647.080
331.314	22.169	843.788	646.990
332.329	22.520	843.788	648.223
333.343	22.557	843.642	648.190
334.358	22.659	843.223	648.186
335.373	22.841	842.440	648.193
336.387	22.781	842.668	648.091
337.402	23.030	842.363	648.715
338.416	23.059	842.504	648.870
339.431	23.307	841.925	649.277
340.446	23.339	841.795	649.236
341.460	23.320	841.370	648.784
342.475	23.487	841.011	649.060
343.489	23.414	840.896	648.647
344.504	23.771	840.038	649.233
345.519	23.656	839.812	648.578
346.533	23.601	838.947	647.653
347.548	23.133	838.165	645.286
348.562	23.012	837.250	644.081
349.577	22.779	836.404	642.529
350.592	22.660	835.592	641.413
351.606	22.590	834.847	640.529
352.621	22.686	834.190	640.319
353.635	22.659	833.805	639.867
354.650	22.845	833.190	640.016
355.665	22.812	832.646	639.419
356.679	23.067	831.771	639.613
357.694	23.002	831.438	639.066
358.708	22.904	830.688	638.079
359.723	22.919	830.350	637.816
360.738	22.827	829.622	636.869
361.752	23.088	828.931	637.223
362.767	23.283	829.065	637.972
363.781	23.632	828.234	638.532
364.796	23.610	828.359	638.493
365.810	23.877	827.846	639.003
366.825	23.871	827.804	638.890
367.840	23.764	826.753	637.638
368.854	23.545	826.140	636.326
369.869	23.362	825.257	634.932
370.883	23.468	825.082	635.122
371.898	23.678	825.296	635.983
372.913	23.757	824.832	635.850
373.927	23.660	824.051	634.846
374.942	23.478	823.515	633.725
375.956	23.713	823.544	634.533
376.971	23.938	822.885	634.771
377.986	24.046	822.297	634.646
379.000	24.034	821.807	634.171
380.015	23.904	821.648	633.528
381.029	24.005	820.750	633.140
382.044	23.935	820.768	632.847
383.059	24.073	820.108	632.774
384.073	23.765	818.953	630.734
385.088	23.464	818.109	628.961
386.102	23.370	817.077	627.778
387.117	23.357	816.798	627.461
388.132	23.301	815.931	626.543
389.146	23.341	815.782	626.512
390.161	23.720	815.660	627.703
391.175	23.830	815.208	627.690
392.190	23.561	814.456	626.104
393.205	23.250	813.920	624.541
394.219	23.127	813.410	623.662
395.234	23.115	812.852	623.137
396.248	23.045	812.350	622.450
397.263	22.914	812.131	621.764
398.278	22.868	811.428	621.009
399.292	22.999	810.505	620.709
400.307	22.912	810.509	620.351
401.321	23.041	809.820	620.223
402.336	23.285	809.407	620.706
403.350	23.500	809.413	621.409
404.365	23.774	809.249	622.186
405.380	24.125	808.744	622.973
406.394	24.203	808.328	622.869
407.409	24.283	808.325	623.092
408.423	24.317	807.706	622.677
409.438	24.344	807.104	622.254
410.453	24.270	807.096	621.933
411.467	24.261	806.661	621.512
412.482	24.416	806.424	621.814
413.496	24.559	805.709	621.706
414.511	24.385	805.641	620.993
415.526	24.188	805.340	620.021
416.540	24.052	804.663	618.973
417.555	24.208	804.008	618.956
418.569	24.146	803.593	618.365
419.584	24.244	802.811	618.050
420.599	24.273	802.467	617.831
421.613	163.201	1371.128	1795.460
422.628	141.845	1453.963	1795.549
