DTS Sentinel unit serial number:	SN413079Multiplexer serial number:	ORYXHardware model number:	OX4-SRSoftware version number:	ORYX F/W v4.00 Oryx Data Collector v3.7.2.0data status	okinstallation	princeton_trtdifferential loss correction	single-endedforward channel	channel 1reverse channel	N/Adate	2019/09/18time	08:42:35forward acquisition time	60.00reverse acquisition time	0.00gamma	496.2192k internal	0.2336k external	0.2336temperature offset calibration	0.9973default loss term (dB/km)	0.3790temperature slope calibration	1.0000multiplexer offset coefficient	1.0000multiplexer slope coefficient	1.0000fibre end	0.00T internal ref (°C)	24.58T ext. ref 1 (°C)	0.23T ext. ref 2 (°C)	20.38length (m)	temperature (°C)	Stokes	anti-Stokes-747.200	203.790	-0.060	0.093
-746.185	6.605	-0.303	-0.227
-745.171	43.921	-0.140	0.129
-744.156	-181.315	-0.435	-0.009
-743.142	-101.229	0.080	0.020
-742.127	-200.000	-0.022	0.218
-741.112	-117.733	-0.290	-0.052
-740.098	-77.091	-0.296	0.104
-739.083	110.682	-0.283	-0.342
-738.069	-158.543	0.180	-0.010
-737.054	-40.383	-0.133	0.070
-736.039	-63.505	-0.270	0.111
-735.025	-166.150	0.413	0.018
-734.010	-200.000	-0.014	-0.131
-732.996	-30.847	-0.324	0.184
-731.981	-200.000	-0.059	-0.337
-730.966	-200.000	-0.068	0.416
-729.952	-125.357	-0.120	0.018
-728.937	-200.000	0.044	0.240
-727.923	-173.173	-0.285	-0.009
-726.908	-133.668	-0.052	-0.006
-725.894	800.000	0.092	0.265
-724.879	-200.000	0.000	-0.289
-723.864	42.735	-0.319	-0.291
-722.850	-186.314	0.251	-0.004
-721.835	-200.000	0.020	0.338
-720.821	-132.445	-0.675	-0.087
-719.806	-200.000	0.009	0.227
-718.791	635.624	-0.066	-0.168
-717.777	40.379	-0.329	0.297
-716.762	56.066	-0.273	0.266
-715.748	-200.000	-0.037	-0.366
-714.733	221.213	0.059	-0.095
-713.718	501.063	0.058	-0.134
-712.704	306.464	-0.056	-0.105
-711.689	-15.018	-0.235	-0.151
-710.675	19.571	0.215	0.174
-709.660	-76.161	0.202	0.071
-708.645	800.000	-0.039	0.117
-707.631	-12.237	0.202	-0.133
-706.616	-71.870	-0.014	0.005
-705.602	-200.000	-0.068	-0.340
-704.587	-200.000	-0.030	-0.223
-703.572	354.451	-0.109	-0.218
-702.558	-1.951	0.145	0.102
-701.543	108.436	-0.245	-0.294
-700.529	52.289	0.044	0.042
-699.514	106.497	0.142	-0.169
-698.499	189.312	-0.172	-0.259
-697.485	45.236	-0.119	-0.110
-696.470	398.845	-0.054	0.114
-695.456	-107.763	0.091	0.020
-694.441	-81.120	0.138	0.046
-693.426	-114.325	-0.362	-0.070
-692.412	-99.915	-0.332	-0.083
-691.397	-200.000	0.017	-0.237
-690.383	-27.162	0.229	0.134
-689.368	-33.228	0.125	-0.069
-688.354	-97.714	-0.366	0.095
-687.339	201.477	0.056	0.086
-686.324	43.355	0.163	0.150
-685.310	143.480	0.145	-0.194
-684.295	-50.112	-0.063	0.030
-683.281	-35.809	-0.267	-0.145
-682.266	-82.256	-0.167	-0.054
-681.251	-63.285	0.053	0.022
-680.237	62.187	0.302	-0.302
-679.222	800.000	0.025	-0.075
-678.208	-200.000	-0.008	-0.138
-677.193	-19.520	0.257	0.159
-676.178	-45.552	-0.426	0.212
-675.164	-4.175	0.119	0.082
-674.149	-55.790	-0.339	-0.152
-673.135	-84.371	-0.072	0.023
-672.120	-87.650	-0.165	0.050
-671.105	-76.970	-0.450	-0.157
-670.091	-177.876	0.047	-0.001
-669.076	-33.927	0.091	-0.050
-668.062	136.366	0.225	0.294
-667.047	-26.261	-0.244	0.143
-666.032	-200.000	-0.089	0.466
-665.018	-200.000	0.014	-0.138
-664.003	75.923	0.108	0.115
-662.989	800.000	0.046	-0.142
-661.974	-18.000	-0.192	0.121
-660.959	43.684	-0.143	0.131
-659.945	414.823	0.014	0.030
-658.930	-51.106	-0.361	0.170
-657.916	295.530	0.083	-0.152
-656.901	184.542	0.207	-0.306
-655.886	-186.478	0.129	0.002
-654.872	122.109	-0.130	0.162
-653.857	800.000	0.051	-0.222
-652.843	-200.000	0.011	-0.315
-651.828	-200.000	0.028	0.244
-650.814	-200.000	0.003	0.114
-649.799	-31.482	0.060	0.034
-648.784	118.161	0.037	0.045
-647.770	-69.816	-0.018	-0.007
-646.755	-149.004	-0.134	0.011
-645.741	-73.266	0.139	-0.051
-644.726	-93.500	0.236	0.065
-643.711	-200.000	-0.040	0.248
-642.697	-119.612	-0.097	-0.017
-641.682	-9.413	0.116	-0.078
-640.668	-198.315	0.440	-0.003
-639.653	192.263	-0.118	-0.178
-638.638	26.956	-0.189	0.158
-637.624	166.484	0.055	-0.078
-636.609	-177.986	0.237	-0.006
-635.595	-37.543	0.304	-0.162
-634.580	13.547	-0.180	-0.140
-633.565	-200.000	-0.005	0.235
-632.551	-53.887	0.138	-0.063
-631.536	-96.034	0.021	0.006
-630.522	-79.923	0.303	0.102
-629.507	800.000	-0.067	0.264
-628.492	-77.669	-0.167	0.058
-627.478	23.009	-0.040	0.033
-626.463	177.459	0.096	-0.141
-625.449	-175.938	0.270	0.007
-624.434	-92.199	-0.147	-0.042
-623.419	-126.290	0.426	0.064
-622.405	800.000	-0.027	-0.081
-621.390	35.662	-0.193	0.169
-620.376	173.075	-0.075	0.108
-619.361	241.258	0.049	-0.081
-618.346	-138.546	-0.265	0.029
-617.332	-86.119	-0.068	0.021
-616.317	328.073	0.106	-0.204
-615.303	-190.622	0.034	0.000
-614.288	-80.217	0.312	-0.104
-613.273	61.101	-0.173	0.171
-612.259	181.963	0.191	0.281
-611.244	611.038	-0.029	0.072
-610.230	-200.000	-0.006	-0.295
-609.215	800.000	0.055	-0.198
-608.201	-178.935	0.053	-0.001
-607.186	-31.398	0.301	-0.169
-606.171	800.000	-0.087	0.274
-605.157	-131.844	-0.220	0.029
-604.142	-9.098	0.225	-0.150
-603.128	259.731	0.120	0.207
-602.113	218.496	-0.348	-0.555
-601.098	800.000	-0.062	-0.190
-600.084	-200.000	0.020	-0.199
-599.069	304.272	-0.162	0.300
-598.055	-6.426	0.267	0.182
-597.040	-148.307	0.275	0.023
-596.025	-200.000	0.064	-0.306
-595.011	-200.000	0.008	-0.267
-593.996	-183.018	-0.157	0.003
-592.982	800.000	-0.023	-0.080
-591.967	-200.000	0.022	0.185
-590.952	-66.231	-0.114	-0.045
-589.938	477.160	0.065	-0.146
-588.923	84.178	-0.219	-0.239
-587.909	18.687	-0.088	0.070
-586.894	-22.381	-0.285	0.172
-585.879	-130.224	0.182	0.025
-584.865	-61.104	0.302	-0.127
-583.850	-200.000	-0.013	-0.236
-582.836	22.557	-0.092	-0.075
-581.821	5.578	-0.455	-0.336
-580.806	800.000	-0.037	0.106
-579.792	66.471	-0.190	-0.193
-578.777	342.384	0.054	-0.106
-577.763	368.405	0.149	-0.300
-576.748	-200.000	0.050	-0.274
-575.733	-23.559	0.341	-0.204
-574.719	-52.089	-0.036	0.017
-573.704	-92.329	-0.047	0.013
-572.690	-200.000	-0.016	-0.200
-571.675	-11.328	0.198	0.130
-570.661	19.949	0.043	-0.035
-569.646	353.571	-0.072	0.142
-568.631	-67.790	0.113	0.044
-567.617	39.050	0.135	-0.120
-566.602	800.000	-0.178	-0.523
-565.588	17.190	-0.353	-0.279
-564.573	-0.921	-0.193	0.137
-563.558	-139.597	-0.484	0.051
-562.544	-8.645	-0.083	-0.055
-561.529	676.274	-0.057	-0.148
-560.515	307.546	-0.127	-0.236
-559.500	-3.545	0.241	-0.167
-558.485	534.902	-0.078	0.183
-557.471	-13.774	-0.111	0.072
-556.456	286.390	0.237	0.427
-555.442	-43.642	0.254	0.128
-554.427	-32.540	0.224	-0.125
-553.412	-29.212	0.032	0.018
-552.398	-200.000	-0.016	-0.210
-551.383	298.694	0.084	-0.155
-550.369	-11.893	0.380	0.248
-549.354	56.532	-0.100	-0.097
-548.339	106.093	-0.169	-0.199
-547.325	-115.651	0.336	0.063
-546.310	-62.746	-0.121	-0.050
-545.296	-84.387	0.277	-0.087
-544.281	-42.625	-0.238	-0.121
-543.266	481.425	-0.207	0.468
-542.252	-63.713	0.165	-0.067
-541.237	3.163	0.084	0.061
-540.223	158.362	0.118	-0.163
-539.208	-116.815	0.130	0.024
-538.193	270.194	-0.118	0.207
-537.179	18.083	-0.189	0.150
-536.164	53.181	-0.175	-0.167
-535.150	278.750	-0.094	0.167
-534.135	-187.401	0.160	0.002
-533.121	643.767	-0.124	-0.315
-532.106	126.592	-0.137	0.173
-531.091	-200.000	-0.037	-0.260
-530.077	8.225	-0.162	0.121
-529.062	-25.534	0.179	0.105
-528.048	-200.000	-0.032	0.259
-527.033	-0.195	-0.261	-0.185
-526.018	-51.955	0.211	-0.098
-525.004	-200.000	-0.055	-0.256
-523.989	269.106	-0.218	-0.381
-522.975	60.685	0.163	0.161
-521.960	401.003	0.028	-0.058
-520.945	800.000	-0.058	0.217
-519.931	-55.355	0.152	0.068
-518.916	194.576	-0.124	0.187
-517.902	-29.823	-0.294	0.167
-516.887	800.000	0.024	-0.095
-515.872	510.106	-0.058	0.133
-514.858	800.000	-0.021	-0.074
-513.843	237.274	-0.047	-0.077
-512.829	-200.000	-0.000	0.099
-511.814	132.357	0.175	0.224
-510.799	-73.827	0.261	-0.095
-509.785	-58.024	-0.448	0.195
-508.770	-11.895	0.166	-0.108
-507.756	-200.000	0.084	-0.377
-506.741	800.000	0.058	0.231
-505.726	207.314	0.182	0.283
-504.712	-59.009	-0.155	-0.067
-503.697	-200.000	-0.043	0.238
-502.683	80.067	-0.164	0.175
-501.668	-200.000	0.017	0.124
-500.653	415.544	-0.052	0.111
-499.639	-132.211	-0.297	0.038
-498.624	74.217	-0.224	-0.234
-497.610	-200.000	0.052	0.265
-496.595	-181.843	0.095	-0.002
-495.581	382.865	-0.105	0.215
-494.566	484.787	0.089	-0.201
-493.551	-200.000	-0.002	0.043
-492.537	-81.496	-0.164	-0.054
-491.522	800.000	0.111	0.435
-490.508	28.664	0.186	0.157
-489.493	65.382	-0.074	-0.074
-488.478	-200.000	-0.034	-0.185
-487.464	413.145	0.089	-0.188
-486.449	249.662	-0.108	-0.181
-485.435	-200.000	-0.074	-0.364
-484.420	86.541	0.017	-0.018
-483.405	-163.524	0.209	0.010
-482.391	63.505	0.214	0.214
-481.376	-200.000	-0.026	0.186
-480.362	190.150	-0.093	0.138
-479.347	-200.000	0.028	-0.222
-478.332	216.565	-0.016	0.026
-477.318	-4.563	0.261	-0.179
-476.303	800.000	0.043	0.181
-475.289	148.298	-0.162	0.217
-474.274	-200.000	0.036	-0.192
-473.259	-8.368	0.236	0.158
-472.245	800.000	0.034	-0.121
-471.230	-174.282	-0.168	-0.005
-470.216	270.813	0.077	0.135
-469.201	-75.785	-0.138	-0.049
-468.186	-65.966	-0.199	-0.079
-467.172	28.292	0.116	-0.098
-466.157	-14.780	-0.185	0.118
-465.143	-200.000	0.051	-0.252
-464.128	-200.000	-0.051	-0.322
-463.113	-45.987	0.283	0.139
-462.099	-72.366	-0.127	0.047
-461.084	-200.000	-0.010	-0.302
-460.070	9.779	0.257	0.193
-459.055	-61.915	-0.393	0.163
-458.040	-175.281	-0.276	0.008
-457.026	-21.361	-0.178	0.108
-456.011	-60.968	0.161	-0.068
-454.997	-200.000	-0.010	-0.223
-453.982	44.402	-0.121	-0.110
-452.968	241.107	-0.073	-0.120
-451.953	13.332	0.063	-0.049
-450.938	-200.000	-0.012	-0.332
-449.924	-34.104	-0.214	0.117
-448.909	-96.265	0.139	0.037
-447.895	30.765	-0.190	-0.162
-446.880	-24.541	0.175	-0.103
-445.865	-141.053	-0.359	-0.037
-444.851	80.143	0.164	0.175
-443.836	41.289	-0.166	-0.149
-442.822	48.394	0.305	-0.283
-441.807	7.916	-0.163	0.121
-440.792	-3.272	0.141	0.098
-439.778	800.000	0.120	0.433
-438.763	-78.397	-0.159	-0.054
-437.749	-115.482	-0.244	-0.046
-436.734	133.109	-0.167	-0.214
-435.719	-200.000	0.089	0.000
-434.705	220.003	-0.224	0.356
-433.690	347.067	-0.043	0.084
-432.676	800.000	0.082	0.252
-431.661	-67.222	0.127	0.050
-430.646	-130.510	0.219	-0.029
-429.632	-163.294	-0.391	-0.019
-428.617	-200.000	0.005	0.186
-427.603	143.125	-0.215	-0.284
-426.588	262.770	-0.073	0.126
-425.573	-119.334	0.012	0.002
-424.559	308.931	-0.150	0.278
-423.544	783.792	-0.085	0.232
-422.530	-106.545	0.118	0.026
-421.515	800.000	-0.011	0.047
-420.500	-200.000	-0.024	0.271
-419.486	710.864	0.044	0.116
-418.471	-74.396	-0.062	0.022
-417.457	215.771	-0.173	0.273
-416.442	-94.461	-0.330	0.089
-415.428	92.893	0.033	0.037
-414.413	36.936	-0.035	0.031
-413.398	-144.074	-0.169	-0.016
-412.384	-36.808	0.151	0.080
-411.369	-43.271	0.107	0.054
-410.355	-200.000	0.012	0.187
-409.340	-89.337	-0.139	-0.041
-408.325	-103.131	-0.122	0.029
-407.311	-200.000	0.081	-0.357
-406.296	32.491	0.245	-0.210
-405.282	-121.156	-0.220	0.036
-404.267	800.000	-0.089	-0.263
-403.252	68.260	-0.080	0.081
-402.238	-92.544	0.166	0.046
-401.223	800.000	-0.065	0.273
-400.209	-200.000	0.041	-0.285
-399.194	-144.930	-0.277	-0.025
-398.179	-200.000	-0.021	-0.177
-397.165	58.247	0.203	-0.197
-396.150	-47.244	0.251	0.121
-395.136	280.260	0.079	-0.139
-394.121	1.729	0.205	0.146
-393.106	124.059	-0.097	0.120
-392.092	800.000	0.082	0.281
-391.077	-192.096	-0.220	-0.002
-390.063	-171.092	-0.320	0.011
-389.048	-72.865	-0.145	0.053
-388.033	-116.497	0.203	0.037
-387.019	-83.032	-0.175	-0.056
-386.004	-200.000	-0.011	0.210
-384.990	-200.000	0.065	0.299
-383.975	642.398	-0.058	-0.145
-382.960	261.558	0.134	-0.229
-381.946	24.868	-0.105	0.086
-380.931	60.026	-0.259	-0.253
-379.917	144.518	0.198	0.262
-378.902	-148.279	0.068	-0.006
-377.888	137.647	0.153	0.199
-376.873	-127.618	-0.213	-0.031
-375.858	-32.004	-0.383	0.212
-374.844	234.176	-0.100	-0.164
-373.829	-71.557	-0.359	-0.133
-372.815	81.687	-0.034	-0.037
-371.800	-48.860	0.286	0.136
-370.785	56.946	-0.108	0.104
-369.771	-88.969	-0.247	-0.072
-368.756	800.000	-0.066	-0.180
-367.742	772.400	0.041	-0.111
-366.727	800.000	-0.089	-0.249
-365.712	-35.027	-0.299	-0.161
-364.698	-200.000	0.128	-0.000
-363.683	-200.000	0.004	0.147
-362.669	-200.000	0.008	0.143
-361.654	21.054	0.158	0.127
-360.639	64.992	0.098	0.098
-359.625	-54.297	0.069	-0.031
-358.610	-200.000	-0.022	0.160
-357.596	-200.000	0.003	-0.243
-356.581	460.265	-0.131	0.288
-355.566	231.757	-0.091	-0.148
-354.552	-158.934	0.240	-0.014
-353.537	-14.443	-0.138	0.088
-352.523	-175.350	0.065	0.002
-351.508	44.511	-0.226	-0.205
-350.493	-113.987	-0.309	0.059
-349.479	184.994	-0.161	-0.236
-348.464	800.000	-0.088	-0.305
-347.450	800.000	0.054	0.166
-346.435	-200.000	0.007	0.235
-345.420	-200.000	-0.025	-0.290
-344.406	-21.780	0.274	0.165
-343.391	271.591	-0.007	-0.013
-342.377	11.825	-0.029	-0.022
-341.362	11.640	0.117	-0.089
-340.348	-200.000	-0.023	-0.103
-339.333	800.000	-0.101	0.286
-338.318	800.000	-0.094	0.333
-337.304	48.438	0.254	-0.235
-336.289	-200.000	-0.005	0.209
-335.275	-24.439	0.192	0.113
-334.260	800.000	-0.115	0.326
-333.245	120.217	0.171	0.210
-332.231	271.954	0.169	-0.294
-331.216	-200.000	0.064	-0.301
-330.202	-70.665	0.225	0.084
-329.187	-114.672	-0.208	-0.039
-328.172	160.290	-0.092	-0.127
-327.158	-95.371	0.343	0.091
-326.143	-5.843	-0.061	-0.041
-325.129	-128.419	-0.274	0.038
-324.114	-200.000	0.011	0.394
-323.099	58.541	0.123	0.119
-322.085	-200.000	-0.055	0.254
-321.070	44.559	0.061	-0.055
-320.056	84.119	0.014	0.015
-319.041	41.347	-0.182	-0.163
-318.026	-200.000	0.007	-0.313
-317.012	436.265	-0.130	-0.279
-315.997	-134.880	0.063	0.008
-314.983	-66.833	-0.198	0.078
-313.968	38.107	0.034	-0.030
-312.953	-76.649	-0.037	0.013
-311.939	433.839	-0.061	-0.131
-310.924	-164.050	0.255	-0.012
-309.910	403.871	0.126	0.263
-308.895	222.818	0.151	0.241
-307.880	-121.116	0.232	-0.038
-306.866	-200.000	0.017	0.166
-305.851	-137.349	-0.339	0.038
-304.837	228.715	-0.272	-0.438
-303.822	73.858	0.218	-0.226
-302.807	-11.377	-0.274	-0.178
-301.793	118.851	0.178	0.217
-300.778	533.976	-0.093	0.218
-299.764	155.518	-0.111	0.151
-298.749	-84.837	0.101	0.031
-297.735	310.075	0.156	0.288
-296.720	-37.180	-0.234	0.123
-295.705	-136.007	0.166	0.019
-294.691	95.672	0.325	-0.366
-293.676	-51.228	0.161	-0.074
-292.662	61.414	0.221	0.217
-291.647	-153.706	0.420	-0.029
-290.632	-167.587	0.119	-0.005
-289.618	-92.011	-0.343	0.096
-288.603	-73.392	-0.072	0.026
-287.589	161.337	-0.053	-0.073
-286.574	212.770	0.116	-0.180
-285.559	-103.390	0.388	0.090
-284.545	-73.466	0.146	-0.053
-283.530	-49.856	0.114	0.053
-282.516	800.000	-0.033	0.128
-281.501	440.621	-0.098	-0.212
-280.486	-151.163	-0.081	0.006
-279.472	219.736	0.227	-0.359
-278.457	-60.971	0.141	0.059
-277.443	56.554	-0.178	0.171
-276.428	-200.000	-0.030	-0.131
-275.413	-85.467	-0.367	0.113
-274.399	-90.934	-0.329	-0.093
-273.384	205.818	-0.208	-0.319
-272.370	282.124	-0.046	0.081
-271.355	-133.570	0.463	-0.057
-270.340	-37.138	-0.377	-0.199
-269.326	267.027	0.062	-0.107
-268.311	230.342	0.144	0.232
-267.297	-200.000	-0.022	-0.118
-266.282	293.362	-0.113	-0.204
-265.267	45.593	0.376	0.342
-264.253	-63.056	-0.037	-0.015
-263.238	39.638	-0.121	0.107
-262.224	-200.000	-0.011	0.176
-261.209	-28.055	0.057	0.033
-260.195	79.646	0.123	0.130
-259.180	-200.000	-0.017	0.485
-258.165	156.173	-0.062	-0.084
-257.151	-200.000	0.048	-0.305
-256.136	227.622	0.066	0.106
-255.122	117.857	0.163	-0.198
-254.107	-200.000	-0.024	-0.152
-253.092	-117.128	0.194	-0.035
-252.078	-75.130	-0.178	-0.063
-251.063	94.795	0.276	0.309
-250.049	800.000	0.046	-0.161
-249.034	147.147	0.080	0.106
-248.019	-200.000	0.003	0.036
-247.005	-200.000	0.003	-0.273
-245.990	-126.217	0.247	0.036
-244.976	-166.487	0.390	-0.016
-243.961	800.000	-0.094	0.332
-242.946	800.000	0.097	0.348
-241.932	127.289	-0.075	-0.094
-240.917	-200.000	-0.045	0.474
-239.903	51.851	-0.273	0.255
-238.888	800.000	0.057	-0.211
-237.873	233.781	0.215	0.349
-236.859	800.000	-0.077	0.245
-235.844	167.499	-0.119	0.166
-234.830	-73.772	0.216	0.077
-233.815	-80.556	0.328	0.108
-232.800	608.559	-0.085	-0.210
-231.786	-136.177	0.207	0.024
-230.771	-99.441	-0.020	-0.005
-229.757	800.000	-0.060	0.204
-228.742	-66.670	0.274	0.107
-227.727	7.841	-0.106	-0.078
-226.713	-200.000	0.029	0.375
-225.698	-200.000	0.057	-0.375
-224.684	42.635	0.290	-0.260
-223.669	-46.446	-0.112	-0.054
-222.655	-200.000	-0.181	0.001
-221.640	-108.219	-0.281	-0.060
-220.625	800.000	-0.146	-0.518
-219.611	134.734	0.151	-0.193
-218.596	443.610	0.076	-0.164
-217.582	-79.967	-0.419	-0.139
-216.567	-11.309	0.100	0.065
-215.552	42.848	-0.149	0.134
-214.538	123.988	0.264	0.326
-213.523	-23.792	-0.247	-0.146
-212.509	800.000	0.082	0.227
-211.494	-200.000	0.026	0.135
-210.479	-78.626	0.208	-0.070
-209.465	-60.751	0.154	-0.064
-208.450	-171.020	0.169	-0.006
-207.436	-200.000	0.002	0.160
-206.421	68.174	0.187	-0.189
-205.406	544.679	0.112	-0.263
-204.392	-39.051	0.258	0.134
-203.377	-54.333	-0.192	-0.086
-202.363	800.000	-0.058	-0.246
-201.348	-8.413	0.020	-0.013
-200.333	-84.285	-0.288	0.090
-199.319	-200.000	-0.014	-0.300
-198.304	57.847	-0.230	0.221
-197.290	283.486	-0.081	0.143
-196.275	-43.460	-0.304	0.151
-195.260	-112.520	-0.190	-0.037
-194.246	-200.000	-0.006	0.416
-193.231	-200.000	0.034	-0.222
-192.217	-67.931	-0.193	-0.074
-191.202	-200.000	-0.013	-0.349
-190.187	136.408	0.106	-0.136
-189.173	800.000	-0.086	0.257
-188.158	505.026	0.113	0.256
-187.144	-143.176	0.023	0.002
-186.129	-165.020	-0.336	-0.015
-185.114	-54.893	0.236	0.105
-184.100	93.842	-0.100	-0.111
-183.085	123.287	0.072	-0.089
-182.071	-22.774	0.196	-0.116
-181.056	-58.539	0.179	-0.076
-180.042	66.945	0.180	-0.180
-179.027	-200.000	0.021	0.161
-178.012	-131.560	-0.061	-0.008
-176.998	139.048	0.135	0.175
-175.983	56.106	-0.249	0.237
-174.969	-200.000	0.030	-0.203
-173.954	182.382	-0.140	-0.202
-172.939	-24.529	0.203	-0.118
-171.925	-200.000	-0.074	0.404
-170.910	-35.262	0.152	-0.081
-169.896	-200.000	-0.052	-0.358
-168.881	-56.773	0.146	0.064
-167.866	-8.071	-0.092	-0.061
-166.852	55.946	-0.084	-0.080
-165.837	297.722	0.125	0.226
-164.823	-126.620	0.281	-0.041
-163.808	147.968	0.091	-0.120
-162.793	-200.000	0.017	0.092
-161.779	-38.906	-0.136	-0.071
-160.764	279.241	-0.018	0.032
-159.750	120.672	0.091	0.111
-158.735	101.700	0.108	0.123
-157.720	-13.529	-0.108	-0.069
-156.706	-118.636	0.201	-0.035
-155.691	143.618	-0.085	-0.111
-154.677	70.651	-0.067	-0.068
-153.662	138.070	0.099	-0.128
-152.647	-200.000	-0.052	0.235
-151.633	-200.000	0.018	-0.085
-150.618	-29.892	0.259	-0.145
-149.604	17.254	-0.163	0.127
-148.589	279.884	-0.051	0.089
-147.574	800.000	0.083	-0.290
-146.560	-98.587	-0.083	0.021
-145.545	-200.000	0.030	-0.167
-144.531	568.079	0.136	0.323
-143.516	800.000	0.025	0.095
-142.502	-200.000	-0.005	0.144
-141.487	-200.000	-0.012	-0.202
-140.472	331.991	-0.034	0.065
-139.458	-166.905	-0.110	0.004
-138.443	-200.000	-0.005	-0.086
-137.429	-11.132	0.177	0.114
-136.414	110.983	-0.181	-0.213
-135.399	-82.600	0.255	0.081
-134.385	-200.000	-0.016	0.243
-133.370	-52.887	0.097	-0.044
-132.356	-22.534	0.124	0.074
-131.341	-200.000	0.015	-0.177
-130.326	724.128	0.070	0.184
-129.312	441.276	0.098	-0.210
-128.297	101.050	0.056	0.064
-127.283	-150.526	0.332	0.025
-126.268	-200.000	-0.020	-0.102
-125.253	8.908	0.332	-0.246
-124.239	-45.865	-0.224	-0.109
-123.224	143.419	-0.169	0.220
-122.210	800.000	0.045	0.124
-121.195	-43.207	-0.189	-0.094
-120.180	133.475	0.134	0.170
-119.166	-4.678	-0.188	-0.127
-118.151	-31.162	-0.178	0.099
-117.137	-26.389	0.358	-0.206
-116.122	37.162	0.060	-0.052
-115.107	800.000	-0.070	-0.208
-114.093	-26.348	-0.214	0.123
-113.078	36.250	0.080	0.069
-112.064	800.000	-0.015	0.060
-111.049	-200.000	0.017	0.097
-110.034	89.915	0.096	0.105
-109.020	18.437	-0.073	-0.057
-108.005	-40.511	0.245	0.124
-106.991	26.849	0.098	-0.080
-105.976	-105.988	-0.278	0.061
-104.962	-48.892	0.105	-0.049
-103.947	-200.000	-0.019	-0.347
-102.932	49.203	0.186	-0.171
-101.918	-104.691	0.352	-0.079
-100.903	5.758	-0.088	0.063
-99.889	136.083	-0.294	0.375
-98.874	-200.000	-0.069	-0.316
-97.859	72.836	-0.236	0.241
-96.845	152.983	0.080	0.107
-95.830	-55.652	0.228	0.100
-94.816	577.320	0.128	-0.305
-93.801	800.000	-0.082	-0.297
-92.786	305.713	-0.091	0.166
-91.772	800.000	-0.113	0.333
-90.757	-200.000	-0.028	-0.219
-89.743	-200.000	0.024	-0.223
-88.728	11.007	0.091	0.068
-87.713	275.365	0.046	0.079
-86.699	-138.903	-0.121	-0.013
-85.684	163.785	-0.151	0.208
-84.670	561.634	0.130	-0.308
-83.655	80.525	-0.177	0.187
-82.640	397.510	0.050	-0.102
-81.626	15.033	0.119	-0.091
-80.611	-200.000	-0.043	0.373
-79.597	-53.228	-0.158	0.071
-78.582	-200.000	0.037	0.214
-77.567	-116.175	0.482	0.088
-76.553	10.384	0.268	-0.199
-75.538	-21.867	-0.273	0.163
-74.524	65.387	0.183	0.181
-73.509	-71.279	0.140	-0.051
-72.494	9.819	0.332	-0.246
-71.480	12.831	0.361	-0.273
-70.465	-40.920	0.149	-0.075
-69.451	800.000	0.075	-0.211
-68.436	-70.487	-0.345	0.128
-67.422	404.144	-0.125	0.257
-66.407	407.587	0.165	0.342
-65.392	-116.523	-0.168	0.030
-64.378	192.037	-0.163	0.240
-63.363	-73.796	0.269	-0.096
-62.349	-80.944	-0.050	-0.016
-61.334	83.148	-1.148	-1.222
-60.319	98.387	0.633	0.714
-59.305	-200.000	-0.309	-1.431
-58.290	222.078	0.957	1.506
-57.276	425.316	0.654	1.377
-56.261	-200.000	122.324	612.363
-55.246	380.989	1571.596	3153.053
-54.232	140.961	2733.271	3532.649
-53.217	94.327	2172.583	2411.766
-52.203	35.777	1602.107	1376.849
-51.188	27.827	1345.815	1108.503
-50.173	25.135	1307.917	1061.332
-49.159	49.690	1372.768	1264.165
-48.144	47.979	1385.703	1265.619
-47.130	27.878	1336.006	1100.554
-46.115	24.697	1317.157	1066.049
-45.100	24.524	1311.764	1060.613
-44.086	24.546	1309.113	1058.560
-43.071	24.397	1307.369	1056.226
-42.057	24.388	1305.407	1054.546
-41.042	24.454	1303.388	1053.263
-40.027	24.570	1301.442	1052.333
-39.013	24.533	1299.937	1050.858
-37.998	24.449	1298.487	1049.148
-36.984	24.588	1296.178	1048.055
-35.969	24.565	1294.583	1046.591
-34.954	24.654	1292.813	1045.639
-33.940	24.600	1291.785	1044.451
-32.925	24.602	1290.416	1043.311
-31.911	24.700	1288.533	1042.323
-30.896	24.637	1287.461	1041.047
-29.881	24.656	1286.360	1040.223
-28.867	24.714	1284.998	1039.417
-27.852	24.622	1283.554	1037.673
-26.838	24.638	1282.373	1036.775
-25.823	24.715	1280.798	1035.907
-24.809	24.573	1279.476	1033.974
-23.794	24.688	1277.548	1033.036
-22.779	24.732	1276.519	1032.418
-21.765	24.665	1275.412	1031.095
-20.750	24.535	1274.428	1029.511
-19.736	24.629	1272.756	1028.658
-18.721	24.459	1272.377	1027.336
-17.706	24.405	1271.436	1026.222
-16.692	24.539	1269.180	1025.130
-15.677	24.619	1268.179	1024.741
-14.663	24.632	1267.179	1023.966
-13.648	24.429	1266.460	1022.180
-12.633	24.513	1265.466	1021.820
-11.619	24.499	1265.032	1021.351
-10.604	24.682	1263.086	1020.782
-9.590	24.593	1262.397	1019.679
-8.575	24.439	1261.649	1018.156
-7.560	24.510	1260.394	1017.508
-6.546	24.564	1259.735	1017.240
-5.531	24.494	1259.177	1016.353
-4.517	24.551	1258.292	1015.920
-3.502	24.487	1257.431	1014.823
-2.487	24.589	1256.335	1014.478
-1.473	24.518	1252.390	1010.848
-0.458	23.273	1238.286	992.451
0.556	18.613	1222.613	958.084
1.571	15.354	1229.855	945.333
2.586	14.556	1245.103	952.416
3.600	14.379	1233.529	942.478
4.615	10.563	1160.176	866.019
5.629	3.587	1087.567	776.735
6.644	0.445	1069.516	748.208
7.659	0.320	1067.337	745.997
8.673	0.095	1066.889	744.508
9.688	0.051	1065.609	743.328
10.702	0.286	1063.354	742.848
11.717	4.422	1068.488	766.827
12.731	11.728	1077.814	809.738
13.746	15.880	1082.583	833.857
14.761	16.612	1083.361	838.007
15.775	15.931	1081.335	832.998
16.790	15.070	1079.422	827.198
17.804	14.337	1078.124	822.515
18.819	13.948	1077.003	819.666
19.834	13.660	1076.099	817.487
20.848	13.521	1075.282	816.110
21.863	13.195	1074.387	813.751
22.877	13.117	1073.436	812.575
23.892	13.002	1072.970	811.587
24.907	13.025	1072.142	810.999
25.921	12.953	1071.946	810.424
26.936	13.096	1070.642	810.072
27.950	13.232	1069.479	809.785
28.965	13.245	1068.327	808.904
29.980	13.223	1066.835	807.595
30.994	13.272	1066.379	807.420
32.009	13.415	1065.131	807.101
33.023	13.340	1064.014	805.816
34.038	13.182	1063.299	804.434
35.053	13.199	1062.231	803.639
36.067	13.337	1060.931	803.253
37.082	13.166	1060.411	801.959
38.096	13.265	1059.374	801.581
39.111	13.289	1058.878	801.254
40.126	13.237	1057.786	800.105
41.140	13.092	1056.631	798.459
42.155	13.031	1055.427	797.186
43.169	13.105	1054.376	796.679
44.184	13.136	1053.272	795.922
45.199	13.097	1052.482	795.066
46.213	13.075	1050.970	793.749
47.228	13.125	1050.197	793.337
48.242	13.228	1049.086	792.920
49.257	13.154	1048.280	791.887
50.271	13.271	1047.081	791.470
51.286	13.199	1046.318	790.478
52.301	13.164	1045.358	789.518
53.315	13.124	1044.628	788.701
54.330	13.160	1043.229	787.748
55.344	13.228	1042.079	787.136
56.359	13.200	1041.592	786.563
57.374	13.144	1040.678	785.540
58.388	13.029	1039.783	784.246
59.403	13.127	1038.638	783.781
60.417	13.110	1038.026	783.168
61.432	13.083	1037.215	782.357
62.447	12.952	1036.558	781.173
63.461	13.143	1035.336	781.085
64.476	13.034	1034.684	780.008
65.490	13.029	1033.866	779.303
66.505	12.912	1033.396	778.325
67.520	13.050	1032.566	778.282
68.534	12.965	1031.939	777.340
69.549	13.156	1030.980	777.448
70.563	12.974	1030.632	776.260
71.578	12.989	1029.715	775.570
72.593	12.968	1028.965	774.839
73.607	13.056	1027.647	774.190
74.622	13.064	1026.863	773.568
75.636	12.958	1026.531	772.753
76.651	12.905	1026.180	772.176
77.666	12.872	1025.448	771.399
78.680	12.964	1024.664	771.173
79.695	12.901	1023.988	770.303
80.709	13.069	1023.381	770.561
81.724	12.988	1022.548	769.487
82.739	13.108	1021.678	769.324
83.753	13.110	1020.763	768.578
84.768	13.277	1020.035	768.736
85.782	13.174	1019.044	767.445
86.797	13.202	1017.792	766.564
87.812	13.169	1017.249	765.932
88.826	13.187	1015.808	764.863
89.841	13.084	1015.310	763.942
90.855	13.215	1014.127	763.591
91.870	13.185	1013.499	762.911
92.884	13.154	1012.800	762.176
93.899	13.318	1011.585	761.951
94.914	13.314	1010.878	761.331
95.928	13.361	1009.946	760.776
96.943	13.246	1009.348	759.730
97.957	13.316	1008.028	758.990
98.972	13.263	1007.467	758.257
99.987	13.261	1006.472	757.433
101.001	13.289	1005.125	756.484
102.016	13.235	1004.454	755.663
103.030	13.187	1004.103	755.111
104.045	13.259	1003.193	754.690
105.060	13.200	1002.210	753.615
106.074	13.271	1001.428	753.285
107.089	13.093	1000.448	751.671
108.103	13.215	999.551	751.485
109.118	13.151	998.172	750.090
110.133	13.047	997.695	749.192
111.147	13.212	996.569	749.029
112.162	13.107	995.586	747.750
113.176	13.201	995.047	747.706
114.191	13.265	994.121	747.230
115.206	13.253	993.717	746.808
116.220	13.181	992.900	745.803
117.235	13.155	991.825	744.811
118.249	13.047	991.388	743.929
119.264	13.182	989.900	743.358
120.279	13.067	989.974	742.826
121.293	13.276	988.640	742.701
122.308	13.058	988.102	741.251
123.322	13.096	986.900	740.455
124.337	13.101	985.760	739.557
125.352	13.161	985.081	739.250
126.366	13.178	983.560	738.117
127.381	13.168	982.329	737.084
128.395	13.103	981.934	736.433
129.410	13.240	980.691	736.049
130.424	13.246	979.874	735.394
131.439	13.235	979.166	734.750
132.454	13.165	978.548	733.909
133.468	13.255	977.343	733.340
134.483	13.222	976.667	732.621
135.497	13.139	975.917	731.628
136.512	13.242	974.939	731.284
137.527	13.249	974.123	730.638
138.541	13.135	973.817	729.841
139.556	13.275	972.789	729.624
140.570	13.282	972.590	729.442
141.585	13.462	970.836	728.852
142.600	13.310	970.590	727.934
143.614	13.587	969.358	728.167
144.629	13.437	968.928	727.118
145.643	13.450	968.004	726.416
146.658	13.317	967.149	725.129
147.673	13.301	966.314	724.367
148.687	13.457	965.013	724.012
149.702	13.437	964.293	723.321
150.716	13.398	963.526	722.509
151.731	13.303	963.127	721.730
152.746	13.331	962.575	721.376
153.760	13.384	961.564	720.787
154.775	13.490	961.377	721.046
155.789	13.491	960.303	720.179
156.804	13.420	959.899	719.503
157.819	13.583	958.795	719.320
158.833	13.461	958.377	718.415
159.848	13.443	957.722	717.780
160.862	13.543	956.758	717.428
161.877	13.539	955.825	716.649
162.892	13.540	954.717	715.757
163.906	13.361	954.152	714.499
164.921	13.555	952.929	714.357
165.935	13.605	951.889	713.728
166.950	13.534	951.312	712.929
167.964	13.582	950.530	712.484
168.979	13.479	949.860	711.475
169.994	13.534	948.640	710.735
171.008	13.533	948.312	710.422
172.023	13.606	947.642	710.171
173.037	13.569	947.163	709.592
174.052	13.556	946.550	709.015
175.067	13.650	945.245	708.374
176.081	13.533	944.871	707.532
177.096	13.559	944.160	707.047
178.110	13.637	943.453	706.789
179.125	13.767	942.958	706.910
180.140	13.645	942.532	706.008
181.154	13.776	941.965	706.076
182.169	13.713	941.597	705.472
183.183	13.816	940.533	705.048
184.198	13.804	940.013	704.548
185.213	13.838	938.900	703.796
186.227	13.911	938.272	703.572
187.242	13.756	937.977	702.632
188.256	13.873	937.237	702.509
189.271	13.970	935.964	701.903
190.286	13.746	935.667	700.669
191.300	13.616	934.917	699.498
192.315	13.656	934.413	699.228
193.329	13.748	933.695	699.019
194.344	13.716	933.666	698.800
195.359	13.767	932.502	698.079
196.373	13.874	931.756	697.909
197.388	13.938	931.569	697.977
198.402	14.100	930.771	697.997
199.417	14.005	930.130	697.058
200.432	13.979	929.811	696.648
201.446	14.026	929.282	696.387
202.461	14.048	929.090	696.274
203.475	14.109	927.798	695.498
204.490	14.073	927.004	694.693
205.504	13.917	926.624	693.693
206.519	14.077	925.595	693.528
207.534	13.906	925.500	692.683
208.548	14.025	924.835	692.620
209.563	14.092	923.870	692.114
210.577	14.152	922.793	691.495
211.592	14.302	922.036	691.493
212.607	14.255	921.544	690.866
213.621	14.134	921.434	690.218
214.636	14.068	920.062	688.860
215.650	14.184	919.553	688.895
216.665	14.398	918.184	688.694
217.680	14.413	917.682	688.319
218.694	14.349	916.898	687.405
219.709	14.315	916.719	687.068
220.723	14.359	915.636	686.378
221.738	14.373	915.550	686.313
222.753	14.247	914.791	685.161
223.767	14.445	913.852	685.212
224.782	14.359	913.422	684.478
225.796	14.435	912.866	684.313
226.811	14.519	912.152	684.060
227.826	14.382	911.646	683.059
228.840	14.330	910.732	682.099
229.855	14.362	909.848	681.507
230.869	14.424	909.161	681.186
231.884	14.406	908.452	680.522
232.899	14.488	907.854	680.348
233.913	14.322	907.270	679.173
234.928	14.381	906.760	678.971
235.942	14.293	906.353	678.249
236.957	14.526	905.170	678.253
237.972	14.477	904.835	677.743
238.986	14.464	904.083	677.064
240.001	14.403	903.692	676.465
241.015	14.412	903.052	675.962
242.030	14.447	902.278	675.466
243.045	14.495	901.592	675.087
244.059	14.464	901.261	674.654
245.074	14.586	900.352	674.405
246.088	14.590	899.623	673.817
247.103	14.685	898.804	673.527
248.117	14.713	898.482	673.340
249.132	14.801	897.664	673.021
250.147	14.807	897.031	672.510
251.161	14.627	896.962	671.676
252.176	14.816	895.762	671.477
253.190	14.698	895.192	670.517
254.205	14.833	894.202	670.257
255.220	14.809	894.217	670.113
256.234	14.905	893.050	669.565
257.249	15.020	892.187	669.317
258.263	14.851	891.751	668.253
259.278	14.900	891.311	668.063
260.293	15.004	890.049	667.473
261.307	14.956	890.147	667.295
262.322	15.117	889.341	667.273
263.336	15.074	888.316	666.273
264.351	15.053	887.603	665.598
265.366	15.146	887.001	665.456
266.380	15.110	886.486	664.869
267.395	14.982	885.840	663.817
268.409	14.913	885.007	662.859
269.424	15.167	883.851	662.942
270.439	15.052	883.777	662.372
271.453	15.095	882.785	661.741
272.468	15.073	882.461	661.351
273.482	14.942	882.448	660.767
274.497	15.160	880.940	660.437
275.512	15.225	880.664	660.429
276.526	15.027	880.590	659.532
277.541	15.110	879.978	659.344
278.555	15.139	879.382	658.953
279.570	15.368	878.364	659.032
280.585	15.398	877.124	658.163
281.599	15.391	876.562	657.655
282.614	15.328	876.155	657.043
283.628	15.182	875.925	656.240
284.643	15.234	875.450	656.031
285.657	15.304	874.066	655.209
286.672	15.297	873.927	655.021
287.687	15.314	873.208	654.488
288.701	15.358	872.685	654.212
289.716	15.435	872.121	654.030
290.730	15.348	871.769	653.370
291.745	15.358	870.897	652.697
292.760	15.542	870.361	652.955
293.774	15.365	870.146	652.047
294.789	15.426	868.886	651.280
295.803	15.499	868.237	651.018
296.818	15.405	867.908	650.352
297.833	15.455	866.859	649.701
298.847	15.564	866.232	649.597
299.862	15.661	865.790	649.583
300.876	15.568	865.689	649.089
301.891	15.726	864.880	649.033
302.906	15.742	864.044	648.412
303.920	15.586	864.231	647.892
304.935	15.663	863.533	647.608
305.949	15.628	862.495	646.640
306.964	15.657	861.836	646.199
307.979	15.729	861.124	645.883
308.993	15.798	860.514	645.634
310.008	15.808	859.939	645.186
311.022	15.829	859.526	644.898
312.037	15.626	859.092	643.736
313.052	15.703	858.204	643.309
314.066	15.675	858.043	643.024
315.081	15.764	857.336	642.778
316.095	15.716	856.646	642.021
317.110	15.813	856.035	641.877
318.125	15.970	854.976	641.623
319.139	15.703	855.210	640.726
320.154	15.835	854.698	640.788
321.168	15.702	854.108	639.783
322.183	15.957	853.412	640.173
323.197	15.891	853.082	639.618
324.212	15.795	852.302	638.612
325.227	15.873	852.240	638.807
326.241	15.847	851.374	638.002
327.256	15.734	851.131	637.334
328.270	15.907	850.046	637.119
329.285	15.839	849.642	636.504
330.300	15.939	848.905	636.275
331.314	15.888	848.237	635.525
332.329	16.000	848.039	635.743
333.343	15.998	847.505	635.276
334.358	15.971	847.175	634.872
335.373	15.980	846.664	634.468
336.387	16.118	846.323	634.675
337.402	16.131	846.146	634.536
338.416	16.025	845.612	633.680
339.431	16.169	845.139	633.810
340.446	16.395	844.574	634.180
341.460	16.198	844.382	633.238
342.475	16.107	844.247	632.741
343.489	16.175	843.459	632.348
344.504	16.393	842.921	632.709
345.519	16.313	842.902	632.338
346.533	16.293	841.990	631.522
347.548	16.273	841.283	630.862
348.562	16.305	840.856	630.603
349.577	16.258	840.859	630.375
350.592	16.227	839.839	629.441
351.606	16.296	839.104	629.089
352.621	16.247	838.405	628.326
353.635	16.278	837.879	627.993
354.650	16.328	837.052	627.503
355.665	16.360	836.639	627.257
356.679	16.317	835.731	626.361
357.694	16.468	835.480	626.676
358.708	16.538	834.369	626.048
359.723	16.504	834.141	625.695
360.738	16.474	833.702	625.199
361.752	16.374	833.186	624.389
362.767	16.427	832.667	624.139
363.781	16.541	832.414	624.317
364.796	16.523	831.441	623.465
365.810	16.534	831.252	623.309
366.825	16.632	830.807	623.278
367.840	16.700	830.518	623.261
368.854	16.654	829.629	622.367
369.869	16.698	829.157	622.121
370.883	16.727	828.473	621.658
371.898	16.785	828.551	621.873
372.913	16.833	828.102	621.659
373.927	16.740	827.683	620.947
374.942	16.902	826.931	620.921
375.956	16.919	826.512	620.616
376.971	16.686	826.544	619.732
377.986	16.782	826.362	619.890
379.000	16.813	825.643	619.409
380.015	16.942	824.437	618.921
381.029	16.914	823.701	618.213
382.044	16.997	823.236	618.109
383.059	17.022	822.917	617.907
384.073	16.965	822.509	617.337
385.088	17.107	821.817	617.282
386.102	16.914	821.217	616.074
387.117	16.810	821.024	615.497
388.132	16.892	820.389	615.264
389.146	16.968	819.365	614.717
390.161	16.893	819.038	614.149
391.175	17.165	818.848	614.933
392.190	16.946	818.471	613.804
393.205	17.050	817.788	613.613
394.219	17.104	817.283	613.376
395.234	16.943	817.344	612.785
396.248	16.929	816.716	612.209
397.263	16.923	816.482	611.958
398.278	16.853	816.045	611.323
399.292	17.007	815.903	611.718
400.307	17.029	814.510	610.701
401.321	16.972	814.503	610.437
402.336	16.978	813.968	610.003
403.350	17.119	813.668	610.231
404.365	17.107	813.285	609.846
405.380	17.154	812.811	609.605
406.394	17.243	811.906	609.190
407.409	17.295	811.755	609.210
408.423	17.240	811.408	608.701
409.438	17.386	811.178	608.998
410.453	17.361	810.568	608.395
411.467	17.307	809.809	607.578
412.482	17.349	809.860	607.713
413.496	17.445	809.165	607.482
414.511	17.492	808.910	607.403
415.526	17.466	808.565	606.996
416.540	17.518	808.397	607.001
417.555	17.513	807.767	606.460
418.569	17.528	806.939	605.835
419.584	17.496	806.623	605.430
420.599	17.573	805.918	605.121
421.613	113.078	1297.663	1485.851
422.628	97.613	1369.291	1485.927
