DTS Sentinel unit serial number:	SN413079Multiplexer serial number:	ORYXHardware model number:	OX4-SRSoftware version number:	ORYX F/W v4.00 Oryx Data Collector v3.7.2.0data status	okinstallation	princeton_trtdifferential loss correction	single-endedforward channel	channel 1reverse channel	N/Adate	2019/09/16time	17:46:35forward acquisition time	60.00reverse acquisition time	0.00gamma	496.2192k internal	0.2298k external	0.2298temperature offset calibration	0.9969default loss term (dB/km)	0.3790temperature slope calibration	1.0000multiplexer offset coefficient	1.0000multiplexer slope coefficient	1.0000fibre end	0.00T internal ref (°C)	38.00T ext. ref 1 (°C)	15.57T ext. ref 2 (°C)	32.01length (m)	temperature (°C)	Stokes	anti-Stokes-747.200	13.478	-0.358	-0.284
-746.185	-200.000	-0.011	0.057
-745.171	-200.000	-0.026	-0.336
-744.156	9.987	0.250	0.194
-743.142	253.050	0.037	-0.064
-742.127	482.418	0.070	-0.163
-741.112	-127.001	-0.042	0.006
-740.098	59.628	0.378	0.381
-739.083	800.000	0.076	-0.265
-738.069	-24.375	-0.135	0.082
-737.054	-43.164	-0.332	0.172
-736.039	40.672	-0.309	0.284
-735.025	84.575	0.173	0.194
-734.010	-36.890	0.083	0.045
-732.996	-8.885	-0.103	-0.071
-731.981	85.158	-0.074	0.083
-730.966	-5.677	0.231	0.162
-729.952	-116.081	0.423	-0.080
-728.937	227.324	-0.104	-0.172
-727.923	25.684	-0.272	0.231
-726.908	303.883	0.029	-0.056
-725.894	-200.000	0.087	-0.652
-724.879	129.019	-0.160	-0.208
-723.864	123.170	-0.152	-0.194
-722.850	637.509	0.093	-0.241
-721.835	-3.212	-0.131	0.093
-720.821	-63.377	-0.143	-0.060
-719.806	-87.503	-0.163	-0.050
-718.791	-200.000	0.023	0.145
-717.777	67.812	0.056	-0.059
-716.762	87.916	-0.104	0.118
-715.748	-200.000	0.070	-0.329
-714.733	114.024	0.212	0.263
-713.718	-45.435	0.199	0.101
-712.704	-106.428	-0.143	0.033
-711.689	-54.784	-0.246	0.113
-710.675	181.601	-0.083	-0.125
-709.660	-200.000	0.016	0.124
-708.645	648.921	-0.139	-0.362
-707.631	47.453	-0.268	-0.255
-706.616	39.489	-0.073	-0.067
-705.602	-79.701	0.301	0.103
-704.587	-99.213	0.271	-0.070
-703.572	-82.840	0.133	0.044
-702.558	-50.117	0.175	0.084
-701.543	47.057	0.226	-0.214
-700.529	800.000	0.059	0.217
-699.514	-191.455	0.473	-0.005
-698.499	96.155	0.137	-0.160
-697.485	-98.560	-0.124	0.032
-696.470	166.808	0.121	-0.175
-695.456	46.861	0.078	-0.074
-694.441	-97.529	0.303	-0.080
-693.426	-114.632	-0.288	0.056
-692.412	765.016	-0.060	-0.165
-691.397	-200.000	0.000	-0.007
-690.383	324.394	-0.191	-0.373
-689.368	-144.560	0.067	0.006
-688.354	-48.218	0.302	-0.149
-687.339	-200.000	0.008	0.098
-686.324	-37.513	-0.151	0.082
-685.310	-200.000	0.014	0.182
-684.295	109.567	0.121	0.148
-683.281	41.816	0.100	-0.093
-682.266	31.284	-0.128	0.112
-681.251	58.658	-0.184	-0.184
-680.237	100.276	0.054	0.064
-679.222	-113.884	0.147	0.029
-678.208	51.449	-0.076	-0.074
-677.193	-124.051	0.339	0.054
-676.178	-200.000	-0.033	0.270
-675.164	-46.787	-0.039	-0.019
-674.149	48.657	-0.038	0.036
-673.135	192.558	-0.198	0.305
-672.120	-96.677	-0.257	0.069
-671.105	85.706	-0.130	-0.146
-670.091	375.923	-0.082	-0.169
-669.076	163.547	0.091	0.130
-668.062	-17.506	-0.326	0.208
-667.047	155.063	-0.241	0.337
-666.032	-55.772	0.250	0.114
-665.018	-44.495	-0.180	-0.091
-664.003	70.492	0.259	-0.273
-662.989	169.135	0.205	0.298
-661.974	121.401	0.142	-0.180
-660.959	-200.000	0.013	-0.121
-659.945	-200.000	-0.012	0.109
-658.930	-200.000	0.009	-0.181
-657.916	325.040	0.012	-0.023
-656.901	800.000	-0.067	0.195
-655.886	-15.277	0.218	-0.142
-654.872	63.351	-0.090	-0.092
-653.857	-67.080	-0.121	0.049
-652.843	122.015	-0.117	0.149
-651.828	3.922	-0.091	-0.067
-650.814	-75.171	0.108	-0.039
-649.799	-51.533	0.362	-0.172
-648.784	800.000	-0.093	-0.308
-647.770	-172.901	0.097	0.003
-646.755	-18.863	-0.367	0.232
-645.741	-96.149	-0.312	0.084
-644.726	-200.000	0.008	-0.142
-643.711	-49.784	0.129	-0.062
-642.697	-154.742	-0.269	0.018
-641.682	21.587	-0.248	0.205
-640.668	21.314	0.142	-0.117
-639.653	517.744	-0.082	-0.194
-638.638	-121.085	-0.215	-0.037
-637.624	-4.612	-0.327	0.230
-636.609	97.302	0.147	0.172
-635.595	104.480	0.180	-0.216
-634.580	367.072	0.117	0.241
-633.565	86.818	0.076	0.085
-632.551	-114.600	0.264	0.051
-631.536	-77.088	-0.319	-0.113
-630.522	-71.989	-0.427	-0.161
-629.507	-20.447	0.157	0.098
-628.492	-26.082	-0.209	-0.125
-627.478	-40.790	-0.214	-0.112
-626.463	22.207	-0.100	0.083
-625.449	-200.000	-0.017	0.171
-624.434	149.808	-0.166	0.228
-623.419	-42.368	-0.370	-0.192
-622.405	28.622	0.245	0.211
-621.390	124.380	0.123	0.157
-620.376	27.863	0.094	0.081
-619.361	-167.223	0.189	-0.008
-618.346	-57.686	0.151	0.067
-617.332	-118.272	-0.219	0.040
-616.317	800.000	0.065	0.240
-615.303	247.365	-0.057	0.097
-614.288	-98.427	-0.183	0.048
-613.273	-1.475	-0.279	0.200
-612.259	99.369	0.283	0.332
-611.244	-79.933	-0.364	-0.124
-610.230	-25.620	0.270	-0.162
-609.215	-11.393	0.204	-0.137
-608.201	800.000	-0.105	0.336
-607.186	-50.524	0.154	0.074
-606.171	592.452	0.143	0.358
-605.157	112.888	0.074	0.091
-604.142	121.813	0.012	0.015
-603.128	-67.278	0.094	0.038
-602.113	397.948	-0.057	-0.122
-601.098	-122.417	0.439	-0.073
-600.084	-200.000	0.041	0.213
-599.069	286.969	0.071	-0.130
-598.055	-25.675	-0.124	-0.074
-597.040	-200.000	0.058	0.397
-596.025	18.777	0.228	-0.185
-595.011	-200.000	-0.026	-0.183
-593.996	800.000	-0.054	-0.165
-592.982	322.682	-0.255	0.493
-591.967	-39.732	-0.264	-0.140
-590.952	-34.585	-0.292	-0.162
-589.938	-91.815	0.317	-0.091
-588.923	-200.000	0.053	-0.328
-587.909	-46.391	-0.433	-0.216
-586.894	-66.436	-0.157	-0.063
-585.879	30.873	-0.138	-0.120
-584.865	-200.000	-0.025	-0.152
-583.850	174.810	0.057	0.084
-582.836	-12.239	0.148	0.098
-581.821	24.892	-0.227	0.191
-580.806	-59.199	0.265	-0.116
-579.792	-89.593	0.170	-0.051
-578.777	-200.000	0.024	0.272
-577.763	16.516	0.083	0.066
-576.748	800.000	-0.056	0.223
-575.733	-150.993	0.122	-0.009
-574.719	-200.000	0.031	0.166
-573.704	-200.000	-0.004	-0.266
-572.690	-200.000	0.035	-0.184
-571.675	210.517	0.192	0.306
-570.661	-51.252	-0.177	0.084
-569.646	-200.000	-0.079	-0.391
-568.631	85.694	0.073	-0.082
-567.617	-34.562	-0.129	0.072
-566.602	-200.000	0.035	0.158
-565.588	77.971	-0.231	-0.250
-564.573	-74.589	-0.297	-0.108
-563.558	19.934	-0.136	0.111
-562.544	-200.000	0.051	0.253
-561.529	-29.979	-0.146	0.084
-560.515	115.131	-0.160	-0.198
-559.500	-200.000	-0.058	-0.456
-558.485	-81.750	0.299	0.099
-557.471	104.343	0.149	-0.177
-556.456	428.454	0.106	-0.231
-555.442	-26.739	0.155	-0.092
-554.427	800.000	0.074	-0.227
-553.412	800.000	0.043	0.137
-552.398	800.000	-0.086	-0.265
-551.383	-200.000	0.029	-0.151
-550.369	-92.091	0.430	-0.123
-549.354	-106.296	-0.086	0.019
-548.339	-200.000	-0.070	0.317
-547.325	-48.689	-0.250	-0.122
-546.310	16.372	0.057	0.046
-545.296	-200.000	0.020	0.118
-544.281	355.876	-0.143	-0.288
-543.266	800.000	0.050	-0.174
-542.252	-7.875	-0.275	0.188
-541.237	-100.439	-0.199	-0.050
-540.223	-29.238	0.131	0.076
-539.208	-115.045	-0.069	-0.013
-538.193	-45.700	0.080	-0.040
-537.179	-167.823	-0.148	-0.006
-536.164	-200.000	-0.003	-0.205
-535.150	-138.713	0.220	-0.024
-534.135	800.000	0.044	-0.147
-533.121	6.158	-0.313	0.235
-532.106	-106.244	-0.099	-0.022
-531.091	-45.994	-0.202	0.101
-530.077	-37.930	0.302	-0.163
-529.062	-74.753	0.179	-0.065
-528.048	-52.535	-0.203	0.095
-527.033	-69.812	0.075	0.029
-526.018	800.000	-0.027	0.089
-525.004	347.254	0.153	0.305
-523.989	-21.920	0.026	-0.016
-522.975	-149.123	-0.514	-0.042
-521.960	282.841	0.206	-0.374
-520.945	800.000	-0.036	0.119
-519.931	-109.847	-0.112	0.024
-518.916	800.000	-0.093	0.339
-517.902	441.505	-0.059	0.131
-516.887	-11.878	0.063	-0.042
-515.872	-127.658	0.206	0.030
-514.858	76.487	-0.089	-0.095
-513.843	34.244	0.237	0.209
-512.829	621.840	-0.039	0.098
-511.814	62.353	0.274	0.277
-510.799	-73.982	-0.396	0.145
-509.785	-65.495	-0.295	0.120
-508.770	454.651	0.142	0.318
-507.756	-178.606	-0.297	0.007
-506.741	357.236	0.121	0.245
-505.726	-200.000	-0.013	-0.092
-504.712	-200.000	0.050	-0.471
-503.697	-200.000	-0.276	0.001
-502.683	82.097	0.148	0.162
-501.668	131.747	0.340	-0.442
-500.653	554.888	-0.044	-0.108
-499.639	-110.839	0.189	0.039
-498.624	-200.000	0.074	-0.508
-497.610	469.887	-0.053	0.119
-496.595	435.669	0.133	0.293
-495.581	47.148	0.197	0.186
-494.566	-200.000	0.001	0.039
-493.551	800.000	-0.094	-0.277
-492.537	-154.776	0.166	-0.011
-491.522	-200.000	-0.030	-0.375
-490.508	-200.000	0.005	0.251
-489.493	-153.446	0.251	0.018
-488.478	-166.235	0.164	0.007
-487.464	-132.816	-0.157	-0.020
-486.449	448.090	-0.143	0.318
-485.435	167.510	0.112	0.161
-484.420	200.475	0.042	-0.065
-483.405	514.041	-0.107	-0.252
-482.391	222.247	-0.241	0.392
-481.376	26.271	-0.245	-0.207
-480.362	-200.000	-0.015	-0.102
-479.347	12.450	0.153	0.119
-478.332	-200.000	-0.072	-0.345
-477.318	-166.923	0.234	-0.010
-476.303	800.000	0.162	-0.509
-475.289	88.504	-0.235	-0.264
-474.274	-144.734	0.192	0.018
-473.259	176.157	-0.168	-0.246
-472.245	-40.132	-0.125	-0.066
-471.230	-200.000	0.011	-0.095
-470.216	-153.472	-0.385	-0.027
-469.201	-6.614	-0.126	-0.087
-468.186	-200.000	0.005	0.151
-467.172	-200.000	-0.057	0.466
-466.157	800.000	0.060	0.192
-465.143	-50.476	0.360	0.172
-464.128	-84.316	0.227	0.073
-463.113	24.733	-0.089	0.074
-462.099	337.048	-0.075	-0.147
-461.084	-200.000	-0.022	0.173
-460.070	9.672	0.149	-0.114
-459.055	343.425	-0.129	-0.256
-458.040	731.907	0.046	0.125
-457.026	109.120	-0.177	-0.214
-456.011	-90.181	-0.139	-0.041
-454.997	-52.162	0.520	0.244
-453.982	-54.168	0.251	0.115
-452.968	31.330	-0.195	-0.169
-451.953	-50.456	0.148	-0.071
-450.938	-105.481	0.298	0.068
-449.924	-65.645	-0.228	-0.092
-448.909	-70.468	0.208	-0.079
-447.895	149.495	0.113	0.154
-446.880	800.000	-0.037	-0.135
-445.865	-56.668	-0.078	-0.035
-444.851	-62.382	0.403	0.169
-443.836	-66.617	0.028	0.011
-442.822	-102.735	0.203	0.049
-441.807	-200.000	0.006	-0.143
-440.792	113.722	0.203	-0.249
-439.778	93.968	-0.130	-0.149
-438.763	-58.456	-0.013	0.006
-437.749	-10.428	0.066	0.044
-436.734	-57.065	-0.261	-0.116
-435.719	579.292	-0.124	0.306
-434.705	570.604	0.129	-0.316
-433.690	-34.866	-0.232	0.128
-432.676	80.898	-0.142	-0.155
-431.661	-112.996	-0.115	0.023
-430.646	-186.067	-0.157	0.002
-429.632	308.618	-0.115	-0.216
-428.617	32.352	0.127	-0.111
-427.603	-69.822	-0.443	0.171
-426.588	419.299	-0.088	0.189
-425.573	-194.866	0.138	0.001
-424.559	111.001	0.122	0.148
-423.544	-109.122	0.222	-0.048
-422.530	65.644	-0.130	0.132
-421.515	-200.000	0.011	0.389
-420.500	-106.274	-0.102	0.023
-419.486	-102.848	-0.536	-0.129
-418.471	-26.011	-0.114	-0.067
-417.457	147.947	0.117	0.159
-416.442	115.172	-0.165	0.203
-415.428	318.368	-0.126	-0.240
-414.413	-189.299	0.283	0.003
-413.398	723.452	0.070	-0.189
-412.384	-10.742	0.140	-0.094
-411.369	13.464	0.151	-0.118
-410.355	764.018	-0.041	0.112
-409.340	173.151	0.080	0.116
-408.325	-140.966	-0.113	0.012
-407.311	17.785	0.114	0.092
-406.296	88.401	0.191	-0.214
-405.282	-41.770	-0.428	-0.221
-404.267	-95.075	0.092	-0.025
-403.252	-134.233	-0.146	0.018
-402.238	94.774	-0.248	-0.284
-401.223	162.861	0.135	0.190
-400.209	238.907	0.137	0.229
-399.194	90.835	-0.218	-0.246
-398.179	-200.000	0.005	0.030
-397.165	-200.000	0.035	0.179
-396.150	-200.000	0.023	0.177
-395.136	-47.963	0.291	-0.142
-394.121	-8.604	-0.155	-0.105
-393.106	245.428	-0.207	-0.351
-392.092	316.950	0.042	-0.080
-391.077	-103.684	-0.597	-0.141
-390.063	-29.321	-0.009	-0.005
-389.048	71.756	0.158	0.165
-388.033	-49.432	-0.147	-0.070
-387.019	-62.147	0.224	-0.094
-386.004	-41.229	0.102	0.053
-384.990	-42.188	0.203	-0.105
-383.975	-129.076	-0.152	-0.021
-382.960	-119.958	0.211	-0.036
-381.946	179.747	-0.141	0.207
-380.931	58.877	0.182	-0.180
-379.917	-61.788	-0.252	0.106
-378.902	141.978	-0.120	0.160
-377.888	-139.201	-0.337	0.037
-376.873	-27.792	0.123	-0.072
-375.858	-200.000	-0.069	0.462
-374.844	800.000	-0.021	0.073
-373.829	678.594	0.102	-0.268
-372.815	18.848	-0.413	-0.333
-371.800	127.974	0.221	-0.282
-370.785	-116.560	0.285	0.053
-369.771	411.598	0.017	-0.036
-368.756	443.658	-0.092	0.204
-367.742	-200.000	-0.053	0.350
-366.727	800.000	-0.057	-0.171
-365.712	-130.069	0.094	-0.013
-364.698	-120.608	0.112	0.019
-363.683	-89.488	-0.156	-0.046
-362.669	98.687	-0.153	0.178
-361.654	-82.384	-0.289	0.095
-360.639	-90.741	0.171	-0.050
-359.625	586.555	0.084	0.209
-358.610	-200.000	0.040	0.210
-357.596	261.482	-0.101	-0.176
-356.581	-3.021	-0.109	0.077
-355.566	-200.000	-0.085	0.388
-354.552	796.169	0.013	-0.036
-353.537	-69.104	-0.287	-0.111
-352.523	-186.518	-0.267	-0.004
-351.508	-13.203	0.228	-0.149
-350.493	3.815	0.156	0.114
-349.479	-59.299	-0.458	0.198
-348.464	167.474	-0.108	0.154
-347.450	-16.057	-0.306	0.196
-346.435	42.234	0.207	-0.189
-345.420	13.115	0.180	-0.140
-344.406	-60.826	-0.310	-0.132
-343.391	-200.000	-0.010	0.144
-342.377	-96.335	-0.329	0.088
-341.362	-149.723	0.277	-0.022
-340.348	-179.741	0.142	-0.003
-339.333	-139.840	-0.397	-0.042
-338.318	-15.759	-0.201	-0.129
-337.304	-44.944	-0.246	-0.123
-336.289	800.000	-0.061	-0.204
-335.275	800.000	0.050	-0.146
-334.260	669.052	-0.064	-0.167
-333.245	-109.579	0.217	-0.046
-332.231	327.659	0.061	0.118
-331.216	-140.623	0.249	-0.026
-330.202	476.983	-0.072	-0.164
-329.187	288.676	0.102	-0.185
-328.172	-99.053	0.152	-0.039
-327.158	-200.000	0.019	0.284
-326.143	-138.595	-0.230	-0.025
-325.129	2.073	0.154	0.111
-324.114	142.536	0.050	0.066
-323.099	-80.489	0.102	-0.034
-322.085	237.257	0.069	0.114
-321.070	50.630	-0.286	-0.272
-320.056	-50.283	0.147	-0.070
-319.041	21.007	0.346	-0.282
-318.026	-63.036	0.268	0.111
-317.012	252.228	0.077	0.131
-315.997	800.000	0.024	0.096
-314.983	800.000	0.082	0.312
-313.968	-147.491	0.214	0.018
-312.953	-135.139	0.130	-0.016
-311.939	-72.997	-0.626	-0.231
-310.924	220.207	0.149	0.240
-309.910	144.524	0.104	0.140
-308.895	-4.727	0.127	0.088
-307.880	767.099	0.042	0.115
-306.866	95.910	-0.180	0.207
-305.851	-200.000	-0.024	0.332
-304.837	95.637	-0.131	-0.150
-303.822	-87.941	-0.193	-0.058
-302.807	-66.990	-0.170	0.067
-301.793	-66.170	0.308	0.123
-300.778	-77.869	-0.310	0.107
-299.764	-200.000	0.010	-0.100
-298.749	-200.000	0.014	0.109
-297.735	-118.803	0.311	-0.055
-296.720	-200.000	-0.031	0.213
-295.705	19.466	-0.088	-0.071
-294.691	-94.214	0.323	0.089
-293.676	275.642	-0.081	0.145
-292.662	62.245	0.104	0.104
-291.647	660.115	0.016	-0.041
-290.632	-71.494	-0.239	-0.090
-289.618	800.000	-0.025	0.101
-288.603	2.900	0.148	-0.108
-287.589	-120.942	-0.135	0.023
-286.574	-200.000	0.057	-0.327
-285.559	84.420	0.215	-0.236
-284.545	-200.000	-0.036	0.196
-283.530	44.105	-0.123	-0.113
-282.516	-200.000	-0.289	-0.001
-281.501	31.373	0.302	0.260
-280.486	455.171	-0.097	-0.217
-279.472	-200.000	0.029	-0.166
-278.457	-51.899	0.208	-0.097
-277.443	142.365	0.333	0.443
-276.428	-130.232	0.481	-0.066
-275.413	-47.405	-0.078	0.038
-274.399	-155.425	-0.129	-0.008
-273.384	135.478	-0.070	-0.091
-272.370	-38.436	0.025	0.013
-271.355	-24.119	0.036	0.022
-270.340	147.319	0.189	-0.255
-269.326	167.155	0.056	-0.080
-268.311	42.950	0.090	0.082
-267.297	-59.729	-0.286	0.123
-266.282	11.415	0.131	-0.101
-265.267	800.000	0.046	0.188
-264.253	-200.000	0.025	-0.122
-263.238	800.000	0.034	0.140
-262.224	-200.000	0.004	-0.176
-261.209	3.940	0.136	0.100
-260.195	-91.061	0.182	-0.052
-259.180	-200.000	0.025	0.124
-258.165	800.000	0.133	0.433
-257.151	-200.000	-0.027	-0.248
-256.136	82.802	-0.295	0.321
-255.122	21.208	0.042	0.034
-254.107	-64.307	-0.163	0.067
-253.092	-97.682	-0.158	0.041
-252.078	-33.607	0.043	-0.024
-251.063	112.812	0.108	0.131
-250.049	-17.858	-0.209	0.131
-249.034	636.585	-0.057	0.146
-248.019	-94.965	-0.177	-0.048
-247.005	-113.890	-0.116	0.023
-245.990	-146.802	0.269	-0.023
-244.976	-25.706	0.096	0.057
-243.961	800.000	0.040	0.175
-242.946	800.000	0.062	-0.184
-241.932	-15.619	0.140	0.089
-240.917	252.856	-0.077	0.131
-239.903	8.958	-0.228	-0.172
-238.888	-21.870	0.327	0.199
-237.873	81.462	0.163	-0.177
-236.859	-109.996	0.323	-0.068
-235.844	100.709	0.047	-0.055
-234.830	800.000	0.055	-0.205
-233.815	-2.261	-0.221	0.155
-232.800	205.858	0.153	0.238
-231.786	-45.892	0.216	0.107
-230.771	65.270	-0.104	-0.105
-229.757	-137.385	0.489	0.055
-228.742	-9.248	0.074	-0.050
-227.727	-200.000	0.015	0.149
-226.713	-30.523	-0.017	-0.009
-225.698	-96.540	-0.120	0.032
-224.684	12.032	-0.277	-0.213
-223.669	51.993	0.345	-0.329
-222.655	-78.442	0.209	-0.072
-221.640	122.108	0.110	0.137
-220.625	800.000	0.032	-0.095
-219.611	65.866	0.092	0.093
-218.596	-159.633	0.302	-0.017
-217.582	42.388	-0.176	0.160
-216.567	667.782	0.080	0.206
-215.552	18.891	0.085	0.068
-214.538	800.000	-0.066	-0.243
-213.523	106.828	-0.082	0.098
-212.509	-200.000	-0.006	0.291
-211.494	-113.912	0.312	0.061
-210.479	108.130	-0.254	-0.302
-209.465	152.435	-0.111	0.151
-208.450	-40.237	0.419	-0.218
-207.436	-9.070	0.151	-0.101
-206.421	-48.594	0.288	-0.138
-205.406	-184.851	-0.165	0.003
-204.392	208.039	0.153	0.240
-203.377	-58.376	-0.286	0.124
-202.363	75.875	0.272	-0.288
-201.348	-79.423	0.052	0.017
-200.333	263.364	0.123	0.214
-199.319	15.431	-0.182	0.143
-198.304	-200.000	-0.048	-0.323
-197.290	239.733	0.044	-0.074
-196.275	-107.206	-0.142	-0.031
-195.260	-200.000	-0.002	0.140
-194.246	-200.000	-0.026	0.119
-193.231	233.642	-0.017	-0.027
-192.217	-200.000	-0.030	-0.387
-191.202	-200.000	0.060	0.289
-190.187	-87.004	0.199	0.060
-189.173	-172.836	-0.159	-0.005
-188.158	-97.361	0.180	0.047
-187.144	5.120	0.183	0.135
-186.129	315.653	-0.054	0.101
-185.114	-95.260	-0.062	-0.017
-184.100	-104.430	-0.243	-0.056
-183.085	315.404	-0.066	0.124
-182.071	314.718	0.078	0.146
-181.056	628.534	0.038	-0.096
-180.042	127.323	-0.059	-0.075
-179.027	-7.713	-0.249	-0.168
-178.012	-200.000	-0.054	-0.332
-176.998	-37.105	-0.092	-0.049
-175.983	-20.563	0.185	-0.114
-174.969	-39.910	-0.146	-0.076
-173.954	-105.551	0.409	0.093
-172.939	-200.000	0.038	-0.171
-171.925	-48.348	-0.213	-0.102
-170.910	-82.855	0.062	-0.020
-169.896	129.921	-0.056	0.071
-168.881	800.000	0.110	-0.360
-167.866	-40.737	0.242	-0.125
-166.852	-125.140	0.169	0.026
-165.837	-32.402	0.192	0.107
-164.823	-142.410	-0.469	-0.046
-163.808	800.000	-0.043	-0.170
-162.793	259.855	-0.102	-0.176
-161.779	-200.000	0.011	0.210
-160.764	-196.022	0.241	-0.002
-159.750	-78.947	-0.174	0.059
-158.735	-200.000	-0.022	0.113
-157.720	615.034	0.081	-0.201
-156.706	616.219	-0.036	-0.090
-155.691	541.940	0.075	0.178
-154.677	103.117	-0.285	-0.333
-153.662	195.597	0.120	-0.182
-152.647	-83.692	0.067	0.021
-151.633	-200.000	-0.008	-0.057
-150.618	800.000	0.058	0.215
-149.604	-126.078	0.266	-0.040
-148.589	9.461	0.101	0.076
-147.574	-200.000	0.012	0.278
-146.560	-65.982	0.157	0.062
-145.545	-41.049	0.254	-0.131
-144.531	-200.000	0.033	-0.293
-143.516	127.338	0.241	0.305
-142.502	39.382	0.288	-0.257
-141.487	224.159	0.143	0.231
-140.472	800.000	0.077	0.240
-139.458	-70.121	-0.165	-0.062
-138.443	-105.430	-0.060	0.014
-137.429	800.000	0.123	0.456
-136.414	-200.000	0.015	-0.211
-135.399	23.787	0.065	0.053
-134.385	-200.000	0.001	-0.334
-133.370	99.056	-0.029	-0.033
-132.356	-160.032	0.272	-0.015
-131.341	800.000	-0.051	-0.210
-130.326	-27.097	0.076	-0.044
-129.312	-101.556	0.147	0.036
-128.297	101.663	-0.153	-0.178
-127.283	-116.069	0.120	-0.022
-126.268	435.523	-0.069	-0.150
-125.253	-70.282	-0.245	-0.093
-124.239	28.382	0.139	-0.117
-123.224	1.973	-0.111	0.080
-122.210	-127.191	-0.126	0.018
-121.195	747.806	0.066	-0.177
-120.180	112.587	0.077	0.093
-119.166	324.691	-0.100	-0.191
-118.151	426.456	-0.089	0.191
-117.137	-85.742	0.382	-0.118
-116.122	800.000	0.028	0.082
-115.107	116.162	-0.193	-0.236
-114.093	171.177	-0.089	-0.127
-113.078	278.116	0.181	0.321
-112.064	27.399	0.157	0.132
-111.049	9.305	0.360	-0.271
-110.034	338.385	0.071	0.137
-109.020	-200.000	-0.028	-0.258
-108.005	181.426	-0.186	0.272
-106.991	28.627	0.285	-0.240
-105.976	282.614	0.089	0.159
-104.962	-9.353	-0.080	-0.053
-103.947	0.307	-0.061	0.044
-102.932	264.736	-0.095	-0.164
-101.918	-120.834	-0.434	0.073
-100.903	-200.000	0.011	-0.409
-99.889	3.709	0.126	-0.091
-98.874	-49.415	-0.212	0.101
-97.859	227.811	-0.042	-0.068
-96.845	334.773	-0.120	-0.232
-95.830	-29.445	0.381	-0.217
-94.816	-132.306	0.089	-0.011
-93.801	-126.377	0.177	-0.026
-92.786	800.000	-0.055	0.159
-91.772	-122.532	0.216	0.035
-90.757	-121.367	0.365	-0.061
-89.743	1.038	0.201	-0.144
-88.728	-200.000	0.010	-0.110
-87.713	-200.000	0.048	0.285
-86.699	128.937	0.027	0.035
-85.684	-78.478	0.386	0.132
-84.670	800.000	-0.070	0.213
-83.655	157.007	-0.034	-0.046
-82.640	-149.780	0.063	0.005
-81.626	-120.852	0.163	-0.027
-80.611	-200.000	0.028	0.199
-79.597	-60.038	-0.128	0.054
-78.582	230.877	0.154	-0.250
-77.567	800.000	-0.060	0.172
-76.553	-200.000	0.022	-0.241
-75.538	-74.101	-0.095	0.034
-74.524	259.254	-0.092	0.158
-73.509	800.000	0.081	0.306
-72.494	400.524	0.104	0.216
-71.480	-50.176	0.121	0.057
-70.465	-116.048	0.443	-0.082
-69.451	123.869	-0.077	0.097
-68.436	59.611	-0.164	0.160
-67.422	-71.304	-0.028	-0.010
-66.407	-128.496	-0.445	-0.063
-65.392	-132.849	0.085	-0.011
-64.378	-30.226	0.061	0.034
-63.363	-86.052	-0.217	0.067
-62.349	-200.000	0.068	-0.304
-61.334	92.888	-0.740	-0.831
-60.319	101.571	0.312	0.361
-59.305	-200.000	-0.086	-1.017
-58.290	92.075	0.851	0.953
-57.276	-200.000	0.383	2.007
-56.261	-200.000	87.485	510.850
-55.246	487.366	1366.836	3099.605
-54.232	149.471	2572.300	3462.074
-53.217	112.799	2204.299	2653.481
-52.203	48.859	1656.229	1544.451
-51.188	41.310	1389.102	1248.259
-50.173	38.121	1345.154	1189.333
-49.159	56.797	1388.805	1343.831
-48.144	61.773	1407.475	1392.609
-47.130	41.925	1364.759	1229.969
-46.115	38.122	1347.399	1191.133
-45.100	37.969	1342.463	1185.792
-44.086	37.949	1339.377	1182.902
-43.071	37.792	1337.718	1180.438
-42.057	37.795	1335.752	1178.674
-41.042	37.847	1333.940	1177.343
-40.027	37.946	1332.070	1176.240
-39.013	38.003	1329.861	1174.586
-37.998	37.985	1328.427	1173.165
-36.984	37.915	1326.849	1171.304
-35.969	37.989	1324.522	1169.648
-34.954	38.003	1323.114	1168.445
-33.940	38.102	1321.623	1167.670
-32.925	38.026	1320.603	1166.272
-31.911	38.023	1319.154	1164.924
-30.896	38.092	1317.554	1163.881
-29.881	38.080	1316.434	1162.773
-28.867	38.154	1314.626	1161.570
-27.852	38.123	1312.934	1159.841
-26.838	38.168	1311.877	1159.132
-25.823	38.119	1310.800	1157.844
-24.809	38.086	1308.826	1155.859
-23.794	38.150	1307.388	1154.919
-22.779	38.121	1306.122	1153.584
-21.765	38.026	1304.785	1151.800
-20.750	37.986	1303.792	1150.640
-19.736	37.994	1302.252	1149.279
-18.721	38.063	1300.402	1148.011
-17.706	37.913	1299.607	1146.383
-16.692	37.937	1298.456	1145.461
-15.677	37.971	1297.444	1144.722
-14.663	37.920	1296.297	1143.365
-13.648	37.886	1295.235	1142.181
-12.633	37.952	1293.975	1141.414
-11.619	37.934	1293.042	1140.441
-10.604	37.906	1292.214	1139.501
-9.590	38.024	1290.955	1139.034
-8.575	37.845	1290.649	1137.672
-7.560	37.909	1289.928	1137.365
-6.546	37.915	1289.155	1136.675
-5.531	37.926	1287.746	1135.452
-4.517	37.934	1287.015	1134.807
-3.502	37.943	1286.184	1134.082
-2.487	37.967	1285.026	1133.157
-1.473	37.851	1281.289	1129.147
-0.458	36.455	1265.100	1106.841
0.556	30.479	1245.568	1060.799
1.571	26.202	1248.741	1038.866
2.586	24.728	1263.404	1042.384
3.600	24.146	1253.388	1030.665
4.615	22.054	1186.759	964.311
5.629	18.053	1116.021	886.055
6.644	15.744	1096.482	858.689
7.659	15.501	1093.891	855.347
8.673	15.520	1092.583	854.345
9.688	15.514	1091.006	853.005
10.702	15.756	1089.214	852.752
11.717	18.180	1092.610	867.648
12.731	20.729	1095.252	882.613
13.746	19.763	1092.744	875.627
14.761	17.727	1089.737	862.847
15.775	16.559	1086.985	854.694
16.790	15.452	1085.564	847.909
17.804	14.867	1082.939	842.834
18.819	14.223	1082.084	838.852
19.834	13.727	1081.375	835.730
20.848	13.574	1080.307	834.059
21.863	13.414	1078.933	832.122
22.877	13.303	1078.296	830.998
23.892	13.301	1077.397	830.222
24.907	13.278	1076.580	829.404
25.921	13.209	1075.876	828.441
26.936	13.304	1074.464	827.757
27.950	13.381	1073.073	826.994
28.965	13.514	1071.170	826.118
29.980	13.550	1069.536	824.964
30.994	13.419	1068.834	823.698
32.009	13.450	1067.691	822.899
33.023	13.555	1066.554	822.470
34.038	13.567	1065.194	821.411
35.053	13.540	1064.576	820.726
36.067	13.403	1063.695	819.297
37.082	13.311	1063.349	818.505
38.096	13.520	1062.013	818.437
39.111	13.492	1061.298	817.671
40.126	13.339	1060.277	816.058
41.140	13.333	1059.120	815.069
42.155	13.317	1057.579	813.731
43.169	13.172	1056.838	812.378
44.184	13.143	1055.667	811.262
45.199	13.164	1054.835	810.650
46.213	13.202	1053.391	809.659
47.228	13.330	1052.461	809.498
48.242	13.419	1051.008	808.744
49.257	13.319	1050.384	807.701
50.271	13.428	1049.319	807.346
51.286	13.448	1048.396	806.659
52.301	13.396	1047.893	805.950
53.315	13.298	1046.720	804.498
54.330	13.269	1045.304	803.198
55.344	13.290	1044.590	802.681
56.359	13.304	1043.794	802.067
57.374	13.276	1042.673	800.999
58.388	13.245	1041.922	800.202
59.403	13.086	1041.301	798.885
60.417	13.238	1040.303	798.782
61.432	13.217	1039.497	797.991
62.447	13.144	1038.600	796.878
63.461	13.087	1037.983	796.062
64.476	13.151	1036.823	795.408
65.490	13.053	1036.014	794.247
66.505	13.130	1035.190	793.916
67.520	13.202	1034.403	793.586
68.534	13.241	1033.450	792.973
69.549	13.203	1033.106	792.455
70.563	13.153	1032.150	791.415
71.578	13.191	1031.183	790.783
72.593	13.061	1030.703	789.721
73.607	13.005	1030.429	789.174
74.622	13.211	1029.192	789.143
75.636	13.180	1028.896	788.699
76.651	13.052	1028.412	787.645
77.666	13.104	1027.512	787.134
78.680	12.998	1027.203	786.321
79.695	13.183	1026.115	786.302
80.709	13.169	1025.908	786.006
81.724	13.277	1025.230	785.930
82.739	13.443	1024.049	785.745
83.753	13.317	1023.477	784.640
84.768	13.388	1022.337	784.033
85.782	13.476	1021.226	783.526
86.797	13.393	1020.633	782.609
87.812	13.301	1019.817	781.480
88.826	13.415	1018.626	781.036
89.841	13.415	1017.811	780.342
90.855	13.514	1016.659	779.854
91.870	13.459	1016.398	779.328
92.884	13.384	1015.472	778.194
93.899	13.547	1014.155	777.885
94.914	13.559	1013.083	777.048
95.928	13.603	1012.318	776.599
96.943	13.420	1012.016	775.442
97.957	13.451	1010.944	774.697
98.972	13.364	1010.006	773.503
99.987	13.472	1009.064	773.216
101.001	13.520	1007.936	772.509
102.016	13.471	1007.390	771.792
103.030	13.497	1006.738	771.347
104.045	13.484	1005.706	770.426
105.060	13.407	1004.805	769.311
106.074	13.477	1003.605	768.650
107.089	13.320	1002.881	767.297
108.103	13.228	1001.904	766.055
109.118	13.319	1000.931	765.667
110.133	13.409	999.645	765.028
111.147	13.245	999.270	763.916
112.162	13.272	998.405	763.314
113.176	13.308	997.838	762.981
114.191	13.393	996.813	762.521
115.206	13.460	995.719	761.921
116.220	13.428	994.926	761.102
117.235	13.291	993.836	759.570
118.249	13.386	993.124	759.395
119.264	13.399	992.673	759.044
120.279	13.278	992.036	757.936
121.293	13.321	991.020	757.289
122.308	13.280	990.045	756.289
123.322	13.329	988.662	755.390
124.337	13.207	987.770	754.084
125.352	13.262	986.781	753.512
126.366	13.284	985.800	752.796
127.381	13.237	984.752	751.717
128.395	13.248	983.884	751.040
129.410	13.318	982.808	750.470
130.424	13.346	982.365	750.189
131.439	13.496	980.898	749.681
132.454	13.503	980.669	749.474
133.468	13.506	979.585	748.593
134.483	13.360	979.285	747.639
135.497	13.408	978.195	746.955
136.512	13.553	976.985	746.619
137.527	13.534	976.264	745.916
138.541	13.397	975.790	744.870
139.556	13.557	974.918	744.859
140.570	13.471	974.381	743.999
141.585	13.705	973.172	744.060
142.600	13.535	972.645	742.825
143.614	13.673	971.525	742.524
144.629	13.623	971.205	741.988
145.643	13.682	969.877	741.173
146.658	13.594	969.429	740.373
147.673	13.611	967.954	739.256
148.687	13.528	967.250	738.280
149.702	13.435	966.755	737.424
150.716	13.510	965.570	736.790
151.731	13.426	965.195	736.064
152.746	13.415	964.644	735.532
153.760	13.467	963.746	735.011
154.775	13.534	963.285	734.892
155.789	13.737	962.397	735.048
156.804	13.815	961.206	734.422
157.819	13.746	960.953	733.857
158.833	13.746	960.445	733.405
159.848	13.798	959.448	732.808
160.862	13.660	958.218	731.195
161.877	13.644	957.342	730.390
162.892	13.628	956.587	729.679
163.906	13.607	955.576	728.751
164.921	13.613	954.559	727.939
165.935	13.642	953.528	727.215
166.950	13.736	952.981	727.146
167.964	13.634	952.004	725.887
168.979	13.646	951.082	725.173
169.994	13.586	950.365	724.302
171.008	13.714	949.566	724.187
172.023	13.767	949.020	723.940
173.037	13.755	948.520	723.440
174.052	13.812	947.400	722.770
175.067	13.745	946.822	721.974
176.081	13.726	946.204	721.355
177.096	13.727	945.746	720.949
178.110	13.820	945.529	721.121
179.125	13.667	944.770	719.813
180.140	13.659	943.796	718.975
181.154	13.918	943.515	719.820
182.169	13.958	942.761	719.354
183.183	13.902	942.625	718.944
184.198	14.023	941.505	718.550
185.213	13.946	940.670	717.514
186.227	13.901	940.287	716.967
187.242	13.946	939.821	716.741
188.256	14.020	938.956	716.337
189.271	13.934	938.168	715.302
190.286	13.832	937.778	714.501
191.300	13.708	936.494	712.928
192.315	13.698	936.332	712.700
193.329	13.639	936.236	712.310
194.344	13.724	935.210	711.829
195.359	13.917	934.155	711.789
196.373	13.965	933.797	711.661
197.388	13.891	933.649	711.168
198.402	14.031	932.812	711.069
199.417	14.070	932.121	710.643
200.432	14.059	931.719	710.229
201.446	14.231	930.865	710.249
202.461	14.242	930.324	709.818
203.475	14.182	929.985	709.243
204.490	14.029	929.129	707.874
205.504	14.179	928.342	707.850
206.519	14.120	927.439	706.850
207.534	14.150	926.945	706.536
208.548	14.125	926.023	705.666
209.563	14.146	925.421	705.233
210.577	14.318	924.737	705.378
211.592	14.422	924.078	705.253
212.607	14.142	923.482	703.551
213.621	14.323	922.543	703.540
214.636	14.285	922.186	703.043
215.650	14.255	921.060	701.999
216.665	14.464	920.155	702.125
217.680	14.536	919.503	701.869
218.694	14.548	918.797	701.319
219.709	14.418	918.436	700.436
220.723	14.472	917.838	700.144
221.738	14.359	917.100	699.043
222.753	14.356	916.572	698.566
223.767	14.491	916.023	698.652
224.782	14.669	915.355	698.828
225.796	14.540	914.805	697.805
226.811	14.520	914.238	697.227
227.826	14.463	913.523	696.380
228.840	14.413	912.574	695.389
229.855	14.514	911.829	695.181
230.869	14.501	911.182	694.572
231.884	14.402	910.308	693.432
232.899	14.331	909.814	692.699
233.913	14.477	908.609	692.328
234.928	14.519	907.993	691.970
235.942	14.604	907.475	691.867
236.957	14.469	907.145	690.995
237.972	14.550	906.145	690.505
238.986	14.467	905.943	689.950
240.001	14.523	905.147	689.513
241.015	14.511	904.454	688.873
242.030	14.534	904.076	688.620
243.045	14.526	903.562	688.134
244.059	14.616	902.697	687.784
245.074	14.708	901.905	687.502
246.088	14.714	901.613	687.244
247.103	14.770	900.722	686.731
248.117	14.773	900.321	686.378
249.132	14.926	899.611	686.402
250.147	14.856	899.264	685.792
251.161	14.806	898.751	685.134
252.176	14.989	897.381	684.777
253.190	14.860	897.515	684.292
254.205	15.005	896.364	683.949
255.220	14.986	895.746	683.335
256.234	15.098	895.053	683.204
257.249	14.956	894.386	682.057
258.263	14.988	893.840	681.711
259.278	15.151	892.953	681.637
260.293	15.058	892.843	681.115
261.307	15.126	892.321	680.931
262.322	15.197	891.118	680.243
263.336	15.242	890.303	679.742
264.351	15.003	889.535	678.129
265.366	15.197	889.176	678.578
266.380	15.271	888.435	678.252
267.395	15.184	887.755	677.321
268.409	15.214	886.970	676.784
269.424	15.178	886.302	676.069
270.439	15.163	885.863	675.614
271.453	15.237	885.192	675.339
272.468	15.228	884.146	674.447
273.482	15.245	883.552	674.003
274.497	15.217	883.514	673.800
275.512	15.215	882.940	673.296
276.526	15.228	882.389	672.870
277.541	15.214	881.567	672.125
278.555	15.242	881.062	671.793
279.570	15.527	880.176	672.201
280.585	15.474	879.101	671.106
281.599	15.470	878.610	670.657
282.614	15.376	878.181	669.897
283.628	15.383	877.710	669.506
284.643	15.416	877.159	669.157
285.657	15.422	876.419	668.556
286.672	15.434	875.771	668.053
287.687	15.332	875.329	667.250
288.701	15.425	874.639	667.033
289.716	15.456	873.920	666.549
290.730	15.538	873.289	666.334
291.745	15.641	872.450	666.043
292.760	15.572	872.041	665.401
293.774	15.564	871.879	665.186
294.789	15.611	870.911	664.575
295.803	15.560	870.035	663.645
296.818	15.476	869.526	662.867
297.833	15.545	868.918	662.618
298.847	15.588	868.165	662.155
299.862	15.684	867.648	662.078
300.876	15.718	867.213	661.820
301.891	15.660	866.787	661.208
302.906	15.789	866.131	661.156
303.920	15.766	865.805	660.759
304.935	15.773	865.336	660.372
305.949	15.874	864.435	660.021
306.964	15.893	863.872	659.606
307.979	15.744	863.303	658.530
308.993	15.834	862.989	658.586
310.008	16.033	861.978	658.534
311.022	15.798	861.718	657.359
312.037	15.789	861.057	656.760
313.052	15.851	860.301	656.370
314.066	15.887	859.787	656.057
315.081	15.789	859.430	655.347
316.095	15.785	858.656	654.683
317.110	15.737	858.426	654.262
318.125	15.825	857.618	653.929
319.139	15.750	857.159	653.232
320.154	15.893	856.768	653.432
321.168	15.887	856.341	653.022
322.183	16.004	855.765	652.980
323.197	15.890	855.140	652.006
324.212	15.929	854.639	651.716
325.227	15.987	853.789	651.235
326.241	15.930	853.324	650.602
327.256	15.887	852.803	649.979
328.270	15.980	852.104	649.748
329.285	15.892	851.398	648.814
330.300	15.994	851.203	649.001
331.314	16.056	850.466	648.621
332.329	16.083	849.659	648.050
333.343	16.184	848.987	647.870
334.358	16.124	848.846	647.474
335.373	15.986	848.847	646.886
336.387	16.262	848.275	647.452
337.402	16.193	848.095	646.992
338.416	16.235	847.531	646.666
339.431	16.418	847.159	647.027
340.446	16.256	847.051	646.266
341.460	16.180	846.687	645.643
342.475	16.322	846.188	645.747
343.489	16.365	845.661	645.452
344.504	16.345	845.071	644.869
345.519	16.374	844.751	644.676
346.533	16.394	844.097	644.199
347.548	16.181	843.898	643.178
348.562	16.327	843.004	642.994
349.577	16.247	842.383	642.160
350.592	16.297	841.900	641.923
351.606	16.294	840.790	641.009
352.621	16.310	840.295	640.638
353.635	16.250	839.700	639.897
354.650	16.313	838.850	639.434
355.665	16.483	838.297	639.598
356.679	16.454	837.842	639.085
357.694	16.465	837.295	638.652
358.708	16.709	836.101	638.607
359.723	16.585	835.779	637.835
360.738	16.608	835.219	637.440
361.752	16.541	834.855	636.851
362.767	16.578	834.498	636.661
363.781	16.577	834.011	636.231
364.796	16.653	833.175	635.824
365.810	16.684	832.987	635.739
366.825	16.720	832.550	635.482
367.840	16.788	832.212	635.424
368.854	16.700	831.864	634.773
369.869	16.615	831.317	633.982
370.883	16.656	830.715	633.620
371.898	16.758	830.514	633.791
372.913	16.847	830.040	633.708
373.927	16.867	829.317	633.172
374.942	16.886	828.806	632.797
375.956	16.853	828.512	632.394
376.971	16.914	827.979	632.160
377.986	16.958	827.776	632.111
379.000	17.000	827.381	631.912
380.015	17.002	826.815	631.430
381.029	16.998	825.801	630.587
382.044	17.122	825.404	630.688
383.059	17.120	824.709	630.093
384.073	17.009	824.304	629.317
385.088	16.898	823.529	628.257
386.102	17.009	822.795	628.051
387.117	17.037	822.336	627.748
388.132	16.867	822.163	626.933
389.146	17.062	821.385	627.004
390.161	16.932	821.113	626.261
391.175	17.169	820.877	626.902
392.190	17.088	819.823	625.743
393.205	17.151	819.220	625.458
394.219	16.991	819.241	624.829
395.234	17.091	818.705	624.736
396.248	16.937	818.331	623.828
397.263	16.959	817.859	623.493
398.278	17.100	817.305	623.533
399.292	16.924	817.050	622.637
400.307	17.010	816.589	622.545
401.321	16.979	815.926	621.873
402.336	17.176	815.308	622.068
403.350	17.014	815.320	621.429
404.365	17.140	814.606	621.290
405.380	17.353	813.878	621.459
406.394	17.357	813.617	621.220
407.409	17.247	813.538	620.701
408.423	17.364	812.812	620.521
409.438	17.455	812.570	620.613
410.453	17.560	812.269	620.711
411.467	17.483	811.502	619.789
412.482	17.419	811.275	619.327
413.496	17.492	810.845	619.210
414.511	17.572	810.513	619.191
415.526	17.533	810.176	618.739
416.540	17.530	809.524	618.176
417.555	17.572	809.246	618.061
418.569	17.504	808.473	617.169
419.584	17.517	808.033	616.825
420.599	17.541	807.691	616.596
421.613	98.252	1278.347	1414.080
422.628	84.308	1346.943	1414.165
