DTS Sentinel unit serial number:	SN413079Multiplexer serial number:	ORYXHardware model number:	OX4-SRSoftware version number:	ORYX F/W v4.00 Oryx Data Collector v3.7.2.0data status	okinstallation	princeton_trtdifferential loss correction	single-endedforward channel	channel 1reverse channel	N/Adate	2019/09/18time	09:38:35forward acquisition time	60.00reverse acquisition time	0.00gamma	496.2192k internal	0.2334k external	0.2334temperature offset calibration	0.9966default loss term (dB/km)	0.3790temperature slope calibration	1.0000multiplexer offset coefficient	1.0000multiplexer slope coefficient	1.0000fibre end	0.00T internal ref (°C)	26.67T ext. ref 1 (°C)	0.27T ext. ref 2 (°C)	23.41length (m)	temperature (°C)	Stokes	anti-Stokes-747.200	800.000	-0.083	-0.282
-746.185	-124.248	-0.228	0.036
-745.171	800.000	-0.066	0.247
-744.156	-41.311	0.095	-0.049
-743.142	-157.781	-0.139	-0.008
-742.127	2.643	-0.214	0.156
-741.112	162.740	-0.098	-0.139
-740.098	12.710	0.256	0.199
-739.083	270.523	0.270	0.477
-738.069	283.153	-0.122	0.220
-737.054	440.564	0.092	0.202
-736.039	127.973	0.143	0.183
-735.025	-126.495	0.179	0.027
-734.010	52.306	-0.138	-0.132
-732.996	-84.550	-0.464	-0.147
-731.981	-71.006	-0.270	0.102
-730.966	82.335	-0.089	0.097
-729.952	123.132	-0.351	-0.441
-728.937	800.000	-0.076	-0.215
-727.923	591.998	0.077	0.191
-726.908	-81.967	0.171	-0.056
-725.894	0.187	-0.102	0.073
-724.879	34.434	0.088	0.077
-723.864	134.961	0.252	-0.328
-722.850	-200.000	-0.084	-0.370
-721.835	-100.246	-0.141	0.035
-720.821	62.824	-0.153	-0.153
-719.806	-165.864	0.344	-0.015
-718.791	800.000	-0.012	0.044
-717.777	800.000	-0.070	0.305
-716.762	105.021	-0.281	-0.333
-715.748	-145.552	0.165	-0.015
-714.733	-200.000	-0.036	0.218
-713.718	-59.803	-0.049	-0.021
-712.704	158.674	-0.140	0.195
-711.689	72.102	0.139	-0.145
-710.675	-98.687	-0.125	0.032
-709.660	-53.673	0.234	0.107
-708.645	325.657	0.077	-0.147
-707.631	-121.299	-0.301	0.051
-706.616	-71.168	-0.306	0.115
-705.602	-200.000	-0.010	0.084
-704.587	-200.000	-0.006	0.238
-703.572	451.299	-0.050	-0.111
-702.558	-64.693	0.187	0.076
-701.543	34.779	0.140	0.123
-700.529	-200.000	0.018	-0.174
-699.514	800.000	-0.126	-0.400
-698.499	-200.000	0.001	0.171
-697.485	273.060	-0.034	0.060
-696.470	-140.168	-0.100	-0.011
-695.456	238.549	0.017	-0.029
-694.441	-200.000	0.005	-0.334
-693.426	-139.097	-0.056	0.006
-692.412	-80.066	-0.143	0.048
-691.397	138.837	-0.064	0.085
-690.383	75.111	0.122	-0.129
-689.368	276.980	-0.041	0.074
-688.354	800.000	-0.042	-0.138
-687.339	-34.331	-0.176	0.097
-686.324	563.137	-0.128	0.311
-685.310	-169.225	-0.352	-0.013
-684.295	-200.000	0.024	-0.463
-683.281	287.137	-0.107	0.194
-682.266	-200.000	-0.028	0.321
-681.251	-159.306	0.164	0.009
-680.237	800.000	-0.092	-0.257
-679.222	-9.829	0.266	-0.177
-678.208	-55.010	-0.188	0.085
-677.193	-137.754	-0.158	-0.018
-676.178	210.087	-0.292	-0.459
-675.164	800.000	-0.075	-0.264
-674.149	-200.000	-0.005	0.090
-673.135	-13.375	-0.264	0.172
-672.120	-100.323	-0.267	0.067
-671.105	-65.123	-0.056	0.023
-670.091	-4.689	0.326	-0.226
-669.076	-40.604	-0.157	0.081
-668.062	-117.686	-0.161	0.029
-667.047	-0.225	0.157	-0.112
-666.032	-200.000	-0.038	0.173
-665.018	-87.662	-0.239	0.072
-664.003	70.033	0.026	0.027
-662.989	-80.049	-0.039	-0.013
-661.974	249.936	0.049	-0.083
-660.959	-200.000	0.008	0.245
-659.945	-9.781	-0.193	-0.129
-658.930	-151.838	0.196	0.014
-657.916	34.298	-0.302	-0.264
-656.901	-99.555	0.098	-0.025
-655.886	358.075	-0.152	-0.304
-654.872	-200.000	-0.009	-0.143
-653.857	-200.000	0.032	0.164
-652.843	-108.938	-0.247	-0.053
-651.828	311.886	0.087	0.164
-650.814	-193.487	0.192	0.002
-649.799	-200.000	-0.008	0.235
-648.784	-94.579	-0.274	0.075
-647.770	90.134	0.155	0.174
-646.755	-130.452	-0.053	0.007
-645.741	283.973	-0.036	-0.064
-644.726	-200.000	-0.010	-0.128
-643.711	-58.915	-0.170	0.074
-642.697	800.000	-0.085	0.243
-641.682	27.914	-0.154	-0.130
-640.668	359.606	-0.030	0.060
-639.653	800.000	-0.037	-0.111
-638.638	-101.048	-0.097	-0.024
-637.624	408.142	0.051	-0.107
-636.609	-117.900	-0.289	-0.052
-635.595	800.000	0.056	0.164
-634.580	-153.840	-0.151	-0.010
-633.565	-33.779	-0.214	-0.118
-632.551	142.706	0.160	-0.213
-631.536	800.000	-0.132	-0.391
-630.522	555.649	-0.083	-0.200
-629.507	-13.814	0.137	-0.089
-628.492	-37.142	-0.017	0.009
-627.478	-200.000	0.003	-0.221
-626.463	32.106	-0.289	-0.249
-625.449	-122.519	0.252	-0.041
-624.434	-44.668	-0.379	-0.190
-623.419	420.738	-0.191	-0.410
-622.405	-200.000	0.013	0.085
-621.390	-200.000	0.004	0.310
-620.376	115.972	-0.102	0.125
-619.361	236.004	-0.153	0.253
-618.346	457.381	-0.077	-0.171
-617.332	26.251	0.200	0.167
-616.317	113.094	0.109	-0.132
-615.303	140.952	0.340	0.450
-614.288	-103.772	-0.254	-0.060
-613.273	800.000	-0.023	0.065
-612.259	5.449	0.156	-0.115
-611.244	423.645	0.105	-0.226
-610.230	-85.914	-0.112	0.035
-609.215	88.528	-0.171	-0.190
-608.201	202.171	0.015	-0.023
-607.186	723.706	-0.104	0.277
-606.171	-200.000	0.017	0.156
-605.157	800.000	-0.090	0.294
-604.142	-167.074	0.238	0.010
-603.128	-200.000	-0.006	0.249
-602.113	-54.427	0.111	0.051
-601.098	-144.307	-0.230	0.021
-600.084	701.340	-0.141	0.372
-599.069	65.125	-0.204	0.206
-598.055	-132.975	-0.120	-0.015
-597.040	451.791	0.142	-0.314
-596.025	528.724	0.070	0.165
-595.011	155.872	-0.059	0.082
-593.996	-23.844	-0.140	-0.084
-592.982	-155.009	-0.233	0.015
-591.967	-125.678	-0.256	-0.039
-590.952	22.809	0.297	0.244
-589.938	-61.250	0.275	0.116
-588.923	103.666	0.174	-0.204
-587.909	-78.703	0.302	0.103
-586.894	-42.341	-0.290	-0.148
-585.879	800.000	0.058	0.207
-584.865	-95.865	-0.147	0.039
-583.850	-200.000	-0.024	-0.121
-582.836	538.202	0.025	0.060
-581.821	800.000	-0.027	0.112
-580.806	361.241	0.079	-0.158
-579.792	-200.000	-0.014	0.078
-578.777	-179.456	-0.156	0.003
-577.763	467.525	0.100	0.225
-576.748	-52.341	-0.226	-0.104
-575.733	-88.047	-0.456	0.137
-574.719	-200.000	-0.045	-0.266
-573.704	-104.734	-0.223	-0.051
-572.690	58.426	-0.066	0.064
-571.675	-200.000	-0.002	-0.245
-570.661	800.000	-0.052	-0.166
-569.646	1.163	0.232	-0.166
-568.631	4.581	-0.024	-0.018
-567.617	-87.613	-0.053	0.016
-566.602	-200.000	0.029	-0.267
-565.588	-23.605	0.512	0.307
-564.573	-200.000	-0.019	-0.275
-563.558	94.886	-0.080	0.090
-562.544	3.037	-0.078	0.057
-561.529	-151.768	0.111	-0.008
-560.515	390.656	0.031	-0.065
-559.500	596.791	-0.010	-0.026
-558.485	214.635	0.123	-0.194
-557.471	69.594	-0.157	-0.161
-556.456	241.308	-0.137	0.228
-555.442	318.956	0.198	0.375
-554.427	529.730	0.194	-0.456
-553.412	800.000	-0.067	-0.279
-552.398	-200.000	0.013	-0.176
-551.383	44.453	-0.397	-0.364
-550.369	339.614	-0.168	-0.326
-549.354	-90.901	-0.484	-0.139
-548.339	80.729	0.089	-0.095
-547.325	362.448	0.117	0.234
-546.310	-193.151	0.151	-0.001
-545.296	126.148	0.206	-0.260
-544.281	179.970	-0.164	0.240
-543.266	218.830	-0.122	0.194
-542.252	-200.000	0.029	0.225
-541.237	100.386	0.193	0.223
-540.223	-82.864	-0.167	-0.054
-539.208	-200.000	-0.008	-0.318
-538.193	-200.000	-0.051	-0.230
-537.179	13.611	0.148	0.114
-536.164	266.484	-0.176	0.307
-535.150	-200.000	0.036	-0.164
-534.135	109.206	0.088	0.105
-533.121	-164.749	0.113	0.005
-532.106	-65.998	0.173	-0.069
-531.091	-86.222	-0.218	0.067
-530.077	16.157	0.105	0.083
-529.062	58.978	0.315	0.309
-528.048	-89.692	0.271	0.079
-527.033	-82.829	-0.280	0.090
-526.018	-180.141	-0.113	-0.002
-525.004	-26.184	0.132	0.078
-523.989	616.943	0.007	-0.018
-522.975	47.589	0.136	0.126
-521.960	800.000	0.085	0.342
-520.945	-28.446	-0.108	0.062
-519.931	-141.940	-0.085	-0.008
-518.916	-22.098	0.140	-0.085
-517.902	-39.041	0.404	-0.212
-516.887	154.309	0.175	0.240
-515.872	-108.478	-0.170	-0.037
-514.858	79.771	0.198	0.212
-513.843	-200.000	0.014	-0.069
-512.829	-8.285	0.094	0.063
-511.814	-179.493	-0.265	0.006
-510.799	-200.000	0.023	0.124
-509.785	250.247	-0.056	0.095
-508.770	131.070	0.138	-0.177
-507.756	-58.747	-0.311	-0.134
-506.741	225.812	-0.126	-0.203
-505.726	78.492	-0.097	0.103
-504.712	-56.266	-0.280	-0.124
-503.697	205.964	0.170	-0.263
-502.683	2.742	-0.298	-0.215
-501.668	118.929	0.179	0.220
-500.653	91.758	-0.058	0.065
-499.639	-24.513	0.080	0.047
-498.624	-200.000	-0.077	0.377
-497.610	800.000	-0.040	0.139
-496.595	-82.909	0.425	-0.136
-495.581	534.733	-0.081	-0.191
-494.566	166.867	-0.077	-0.109
-493.551	-115.837	-0.406	-0.076
-492.537	-200.000	-0.004	0.103
-491.522	-52.242	0.356	0.164
-490.508	800.000	-0.066	-0.245
-489.493	383.204	0.078	0.160
-488.478	800.000	-0.041	0.162
-487.464	-152.165	0.187	-0.014
-486.449	109.764	0.168	-0.200
-485.435	38.061	-0.181	0.160
-484.420	-108.984	-0.114	-0.024
-483.405	-48.797	0.230	0.110
-482.391	48.514	-0.209	-0.195
-481.376	-111.122	0.213	-0.044
-480.362	-39.139	-0.264	0.138
-479.347	167.818	-0.265	-0.375
-478.332	-63.219	-0.211	-0.087
-477.318	-85.524	0.240	0.074
-476.303	800.000	-0.099	-0.314
-475.289	-22.296	0.162	0.098
-474.274	800.000	-0.098	0.346
-473.259	-90.559	0.185	-0.053
-472.245	800.000	-0.107	-0.415
-471.230	40.275	-0.168	-0.150
-470.216	-29.332	0.182	0.103
-469.201	-93.945	0.022	-0.006
-468.186	-200.000	0.018	0.100
-467.172	-65.082	0.091	-0.037
-466.157	-96.705	0.078	-0.020
-465.143	119.712	-0.068	0.084
-464.128	-200.000	-0.000	-0.068
-463.113	-97.992	0.100	-0.026
-462.099	-200.000	0.073	0.371
-461.084	-54.907	0.305	0.137
-460.070	507.932	-0.054	0.124
-459.055	-121.535	-0.265	-0.044
-458.040	512.773	-0.017	0.040
-457.026	88.748	0.203	0.224
-456.011	739.535	0.095	0.254
-454.997	543.817	0.091	0.216
-453.982	195.041	0.183	0.276
-452.968	-42.218	-0.141	-0.071
-451.953	-22.364	-0.098	0.059
-450.938	209.957	-0.041	0.065
-449.924	79.348	-0.117	-0.124
-448.909	195.728	0.020	-0.031
-447.895	-200.000	0.024	0.228
-446.880	-200.000	0.023	-0.515
-445.865	-200.000	-0.004	-0.032
-444.851	-78.786	0.285	0.097
-443.836	-94.427	0.213	-0.058
-442.822	84.904	-0.351	0.383
-441.807	251.809	0.126	0.213
-440.792	60.155	0.108	-0.106
-439.778	-200.000	0.065	-0.396
-438.763	-11.553	-0.360	-0.235
-437.749	800.000	-0.068	-0.258
-436.734	800.000	0.021	-0.065
-435.719	-41.598	0.189	0.096
-434.705	62.053	0.183	0.181
-433.690	158.795	0.095	-0.131
-432.676	-37.956	-0.379	-0.200
-431.661	800.000	-0.040	0.145
-430.646	10.202	-0.072	0.054
-429.632	-47.558	0.214	-0.103
-428.617	-69.680	0.167	-0.063
-427.603	-54.921	-0.431	0.193
-426.588	316.107	-0.051	-0.095
-425.573	69.448	0.091	0.093
-424.559	800.000	-0.047	0.164
-423.544	-52.353	-0.336	-0.155
-422.530	31.075	-0.066	-0.056
-421.515	661.482	-0.075	-0.191
-420.500	-157.163	-0.463	-0.028
-419.486	-144.385	-0.145	-0.013
-418.471	-123.404	-0.214	-0.034
-417.457	-200.000	0.037	0.175
-416.442	16.248	-0.113	-0.088
-415.428	8.137	0.109	0.081
-414.413	-86.896	-0.154	0.047
-413.398	-200.000	0.043	0.242
-412.384	226.205	-0.086	-0.138
-411.369	-22.319	-0.153	0.092
-410.355	-200.000	-0.057	0.361
-409.340	-79.530	0.243	0.081
-408.325	247.922	0.060	0.101
-407.311	747.412	0.045	0.121
-406.296	800.000	-0.130	-0.384
-405.282	-45.223	-0.264	-0.130
-404.267	97.184	0.041	-0.046
-403.252	-200.000	-0.061	0.339
-402.238	-7.066	0.232	-0.156
-401.223	41.450	0.053	0.048
-400.209	26.237	0.253	-0.209
-399.194	-117.916	-0.200	-0.036
-398.179	-123.589	0.314	-0.049
-397.165	358.340	0.100	0.199
-396.150	-200.000	-0.007	-0.111
-395.136	27.987	0.156	-0.130
-394.121	800.000	0.077	-0.231
-393.106	196.911	-0.052	0.079
-392.092	55.323	0.051	-0.049
-391.077	-96.858	0.298	-0.077
-390.063	-114.994	-0.121	0.023
-389.048	-92.963	0.075	0.021
-388.033	104.638	-0.224	0.261
-387.019	800.000	0.083	0.251
-386.004	28.838	-0.230	-0.193
-384.990	800.000	0.047	-0.170
-383.975	-200.000	0.005	0.057
-382.960	51.538	0.222	-0.210
-381.946	-94.844	0.283	-0.076
-380.931	-38.388	0.114	0.060
-379.917	-3.096	0.098	0.068
-378.902	800.000	-0.107	-0.417
-377.888	-69.296	0.301	-0.115
-376.873	-9.485	-0.155	-0.103
-375.858	-46.196	-0.223	0.109
-374.844	132.264	0.096	0.123
-373.829	-200.000	0.016	-0.121
-372.815	-140.242	0.309	0.032
-371.800	110.914	-0.140	-0.167
-370.785	-192.276	0.519	-0.005
-369.771	146.073	0.089	0.119
-368.756	133.588	0.166	-0.213
-367.742	-23.291	-0.262	0.156
-366.727	-56.588	0.180	0.079
-365.712	450.299	-0.053	-0.115
-364.698	-200.000	-0.016	-0.099
-363.683	69.335	0.047	0.048
-362.669	-177.723	0.235	-0.006
-361.654	-92.254	-0.176	0.049
-360.639	-178.971	-0.178	-0.004
-359.625	-123.446	-0.047	-0.007
-358.610	624.365	-0.056	-0.139
-357.596	10.262	0.327	-0.247
-356.581	83.847	-0.124	-0.134
-355.566	82.416	0.116	-0.124
-354.552	-61.070	-0.144	0.060
-353.537	136.177	0.165	0.212
-352.523	-200.000	-0.056	-0.346
-351.508	125.937	-0.182	0.227
-350.493	118.702	0.244	-0.298
-349.479	-90.731	0.380	-0.109
-348.464	-113.604	0.369	0.071
-347.450	-152.731	0.215	0.015
-346.435	-200.000	-0.023	-0.211
-345.420	158.069	-0.202	-0.276
-344.406	359.313	0.092	0.183
-343.391	-86.181	-0.121	-0.037
-342.377	75.586	-0.236	-0.246
-341.362	-62.581	0.127	0.052
-340.348	-200.000	-0.027	-0.141
-339.333	-200.000	-0.021	0.422
-338.318	-200.000	0.017	-0.179
-337.304	-48.730	0.190	0.090
-336.289	66.029	0.086	-0.086
-335.275	-200.000	-0.010	0.198
-334.260	-9.656	-0.391	0.258
-333.245	-200.000	-0.001	0.106
-332.231	7.055	0.076	0.056
-331.216	-192.055	-0.156	-0.001
-330.202	429.669	-0.118	-0.251
-329.187	-200.000	-0.003	0.015
-328.172	-27.240	-0.172	0.099
-327.158	219.391	-0.130	0.205
-326.143	221.928	-0.185	-0.295
-325.129	165.739	-0.270	0.377
-324.114	800.000	0.098	0.332
-323.099	-87.059	0.204	0.061
-322.085	160.005	-0.140	-0.193
-321.070	-34.307	-0.220	0.119
-320.056	4.212	-0.199	-0.144
-319.041	190.355	-0.125	-0.185
-318.026	193.800	0.102	-0.152
-317.012	-200.000	0.021	-0.309
-315.997	109.960	0.153	0.181
-314.983	-200.000	0.009	-0.212
-313.968	-38.107	0.153	0.081
-312.953	108.657	-0.221	0.261
-311.939	2.318	0.083	-0.060
-310.924	-9.792	0.029	-0.019
-309.910	-26.660	0.128	0.074
-308.895	500.155	-0.132	0.300
-307.880	673.742	-0.014	-0.036
-306.866	542.469	0.096	-0.227
-305.851	-200.000	0.064	-0.426
-304.837	-1.155	-0.040	-0.028
-303.822	800.000	0.087	-0.344
-302.807	-89.893	-0.560	-0.162
-301.793	-200.000	0.001	-0.004
-300.778	-180.105	-0.163	-0.003
-299.764	-64.408	-0.093	-0.038
-298.749	-200.000	-0.004	0.134
-297.735	265.772	0.006	-0.011
-296.720	203.526	-0.128	-0.196
-295.705	-139.478	-0.164	-0.017
-294.691	-103.692	-0.140	0.033
-293.676	402.101	0.156	-0.324
-292.662	-136.904	0.139	0.016
-291.647	-200.000	-0.014	0.117
-290.632	800.000	-0.009	0.028
-289.618	-62.601	-0.184	0.075
-288.603	-200.000	0.042	0.214
-287.589	42.985	-0.081	0.073
-286.574	148.889	-0.026	0.035
-285.559	481.564	-0.088	-0.197
-284.545	-129.509	-0.055	-0.008
-283.530	800.000	0.059	0.183
-282.516	-200.000	0.012	0.135
-281.501	-82.238	-0.201	0.065
-280.486	148.776	0.049	-0.066
-279.472	800.000	-0.092	0.331
-278.457	800.000	-0.015	-0.042
-277.443	-69.267	0.145	-0.055
-276.428	88.395	-0.025	-0.027
-275.413	-77.636	0.252	0.086
-274.399	-200.000	0.035	-0.274
-273.384	-118.604	-0.047	0.008
-272.370	685.727	0.063	-0.161
-271.355	33.036	-0.041	0.035
-270.340	464.865	-0.137	-0.302
-269.326	33.150	0.293	0.250
-268.311	-49.383	0.213	0.100
-267.297	800.000	0.076	0.262
-266.282	-153.978	-0.144	-0.010
-265.267	-121.656	0.217	-0.035
-264.253	71.937	-0.299	-0.307
-263.238	800.000	-0.090	-0.246
-262.224	94.387	-0.033	-0.037
-261.209	362.724	-0.083	-0.164
-260.195	81.272	0.072	0.077
-259.180	261.539	0.057	-0.097
-258.165	633.508	0.026	-0.064
-257.151	-82.440	-0.270	0.087
-256.136	800.000	-0.049	-0.159
-255.122	-132.447	-0.329	-0.042
-254.107	-145.689	0.076	0.007
-253.092	113.205	0.084	-0.101
-252.078	-200.000	-0.043	-0.275
-251.063	-92.059	-0.096	-0.027
-250.049	-32.038	-0.234	-0.129
-249.034	5.026	0.390	-0.283
-248.019	-56.902	-0.361	0.157
-247.005	86.118	0.297	-0.323
-245.990	14.688	-0.072	0.056
-244.976	185.668	-0.108	-0.158
-243.961	-58.299	-0.055	-0.024
-242.946	-25.125	0.229	0.134
-241.932	323.605	-0.094	0.178
-240.917	430.065	-0.099	0.211
-239.903	-63.713	0.111	-0.045
-238.888	-18.106	0.584	0.361
-237.873	276.003	0.181	0.316
-236.859	-42.989	0.019	-0.009
-235.844	-190.703	0.198	0.002
-234.830	764.377	0.132	-0.353
-233.815	305.532	0.191	-0.351
-232.800	24.980	-0.140	0.114
-231.786	-133.139	0.290	-0.036
-230.771	-122.624	0.261	0.042
-229.757	26.885	0.146	0.120
-228.742	52.431	0.295	0.277
-227.727	800.000	-0.052	-0.205
-226.713	19.718	0.272	0.216
-225.698	120.749	0.104	0.127
-224.684	-200.000	0.035	-0.180
-223.669	-4.571	-0.054	-0.037
-222.655	176.483	-0.020	-0.028
-221.640	327.190	-0.065	0.123
-220.625	673.425	0.141	0.360
-219.611	109.715	0.046	-0.054
-218.596	-155.664	-0.162	-0.010
-217.582	-81.581	-0.148	0.048
-216.567	324.146	0.084	-0.157
-215.552	345.435	-0.057	-0.110
-214.538	800.000	-0.021	0.085
-213.523	-87.219	-0.171	-0.051
-212.509	-200.000	-0.025	-0.260
-211.494	-116.611	0.335	-0.061
-210.479	-200.000	0.046	0.448
-209.465	-200.000	0.050	0.295
-208.450	-124.216	0.238	-0.037
-207.436	42.785	0.124	0.111
-206.421	-200.000	0.030	0.180
-205.406	689.783	-0.066	0.171
-204.392	-28.067	-0.206	-0.117
-203.377	-0.748	-0.032	-0.022
-202.363	800.000	0.036	0.132
-201.348	236.074	-0.014	0.023
-200.333	53.737	0.118	-0.112
-199.319	-200.000	0.018	0.220
-198.304	-4.102	-0.137	-0.093
-197.290	-129.252	0.037	-0.005
-196.275	-128.509	-0.476	-0.066
-195.260	-87.360	0.227	-0.068
-194.246	588.955	-0.028	-0.069
-193.231	-105.882	-0.159	0.035
-192.217	275.563	-0.213	0.372
-191.202	-32.302	-0.136	0.075
-190.187	25.464	-0.206	-0.169
-189.173	95.752	0.299	0.335
-188.158	123.144	-0.152	0.187
-187.144	-84.792	0.298	0.092
-186.129	-110.716	-0.161	-0.033
-185.114	23.046	0.487	0.393
-184.100	-149.088	-0.477	-0.038
-183.085	-200.000	-0.017	-0.173
-182.071	-200.000	-0.014	-0.200
-181.056	-200.000	0.012	0.483
-180.042	87.720	0.097	0.106
-179.027	3.772	0.207	-0.149
-178.012	-191.730	-0.201	0.002
-176.998	-200.000	0.037	0.252
-175.983	-200.000	-0.007	0.370
-174.969	800.000	0.123	0.461
-173.954	-81.371	0.144	0.047
-172.939	-2.136	0.027	0.019
-171.925	-200.000	0.025	-0.229
-170.910	-200.000	-0.007	0.119
-169.896	-200.000	0.030	-0.181
-168.881	33.156	-0.197	0.168
-167.866	-130.319	0.277	-0.037
-166.852	-200.000	0.035	-0.158
-165.837	350.310	-0.147	0.285
-164.823	105.314	0.214	0.248
-163.808	131.827	0.108	0.137
-162.793	-161.815	0.458	-0.023
-161.779	-86.939	0.340	0.102
-160.764	-200.000	0.001	-0.472
-159.750	99.285	-0.121	0.138
-158.735	187.662	-0.051	0.075
-157.720	533.954	-0.015	-0.036
-156.706	-42.904	0.320	0.159
-155.691	236.341	-0.030	-0.049
-154.677	378.276	-0.203	-0.407
-153.662	503.225	0.085	-0.193
-152.647	-39.440	0.293	-0.151
-151.633	-108.272	-0.302	0.064
-150.618	53.041	-0.050	0.047
-149.604	-113.871	-0.149	0.028
-148.589	302.511	0.163	-0.296
-147.574	-103.764	-0.400	0.092
-146.560	23.595	0.026	0.021
-145.545	376.135	0.071	0.143
-144.531	800.000	0.098	0.279
-143.516	800.000	0.093	0.288
-142.502	-53.653	-0.213	-0.095
-141.487	511.286	-0.066	0.150
-140.472	89.660	-0.309	0.338
-139.458	800.000	0.042	-0.124
-138.443	120.709	-0.123	-0.150
-137.429	-200.000	-0.024	-0.221
-136.414	-147.121	-0.044	-0.004
-135.399	446.758	-0.093	-0.200
-134.385	264.221	0.086	-0.147
-133.370	481.219	-0.051	0.113
-132.356	-76.936	-0.330	0.113
-131.341	-67.272	0.288	-0.111
-130.326	412.000	0.134	-0.279
-129.312	29.050	-0.325	0.271
-128.297	-74.654	0.164	-0.058
-127.283	71.231	-0.149	0.151
-126.268	31.195	-0.358	0.302
-125.253	-131.539	-0.263	0.034
-124.239	-200.000	-0.001	-0.102
-123.224	262.368	-0.122	0.207
-122.210	-99.411	0.117	-0.029
-121.195	607.013	0.145	0.355
-120.180	-200.000	0.001	0.220
-119.166	-200.000	-0.035	0.415
-118.151	573.500	-0.082	-0.196
-117.137	-42.752	0.388	0.194
-116.122	187.989	-0.024	0.035
-115.107	-35.639	0.144	-0.077
-114.093	55.222	-0.376	0.357
-113.078	78.098	0.268	0.280
-112.064	108.572	0.072	0.084
-111.049	30.943	0.040	0.034
-110.034	44.513	0.188	-0.169
-109.020	-121.184	-0.137	0.022
-108.005	126.958	-0.070	-0.087
-106.991	-47.422	-0.266	0.127
-105.976	-30.019	-0.325	-0.181
-104.962	57.758	-0.185	0.178
-103.947	-200.000	0.050	0.370
-102.932	800.000	0.142	0.387
-101.918	99.646	-0.156	0.177
-100.903	-109.860	-0.159	0.033
-99.889	-125.372	0.198	-0.030
-98.874	-200.000	-0.051	0.224
-97.859	85.284	-0.222	0.238
-96.845	-54.835	0.393	-0.174
-95.830	57.085	-0.074	0.071
-94.816	5.530	-0.248	0.179
-93.801	-200.000	-0.011	0.245
-92.786	-11.630	0.228	0.147
-91.772	76.385	0.179	0.186
-90.757	-174.749	0.096	-0.003
-89.743	394.614	-0.088	0.180
-88.728	104.710	0.165	0.190
-87.713	-31.142	-0.313	-0.173
-86.699	-19.458	0.028	0.017
-85.684	-200.000	0.030	-0.234
-84.670	306.753	-0.054	0.098
-83.655	800.000	-0.054	-0.229
-82.640	-43.776	-0.620	-0.306
-81.626	385.932	-0.124	0.250
-80.611	33.792	0.156	-0.133
-79.597	-123.162	0.278	0.044
-78.582	298.389	0.119	0.214
-77.567	231.505	0.051	-0.082
-76.553	-200.000	0.034	-0.156
-75.538	-152.973	-0.189	0.013
-74.524	7.371	-0.013	0.009
-73.509	116.185	-0.129	0.155
-72.494	-200.000	-0.075	0.332
-71.480	166.248	-0.079	0.110
-70.465	800.000	0.059	-0.207
-69.451	17.708	0.246	-0.192
-68.436	-109.768	0.108	0.022
-67.422	800.000	-0.135	-0.428
-66.407	-26.439	0.245	0.140
-65.392	-200.000	0.022	0.229
-64.378	42.234	-0.144	0.128
-63.363	-200.000	0.045	0.312
-62.349	-83.137	0.275	0.086
-61.334	102.722	-0.974	-1.116
-60.319	146.841	0.404	0.532
-59.305	205.156	-0.602	-0.915
-58.290	194.975	1.001	1.488
-57.276	-200.000	0.330	1.555
-56.261	-200.000	113.391	613.713
-55.246	443.401	1516.272	3252.690
-54.232	144.363	2700.367	3527.451
-53.217	101.369	2179.259	2483.557
-52.203	38.187	1613.263	1405.014
-51.188	29.781	1352.840	1127.188
-50.173	27.028	1313.904	1078.378
-49.159	53.980	1368.607	1287.118
-48.144	52.132	1383.381	1289.802
-47.130	30.290	1339.636	1119.079
-46.115	26.867	1321.018	1083.083
-45.100	26.621	1316.458	1077.839
-44.086	26.552	1314.244	1075.575
-43.071	26.420	1311.315	1072.354
-42.057	26.477	1309.646	1071.279
-41.042	26.534	1307.445	1069.774
-40.027	26.524	1306.233	1068.684
-39.013	26.606	1304.038	1067.325
-37.998	26.603	1301.933	1065.547
-36.984	26.649	1300.607	1064.688
-35.969	26.675	1298.184	1062.816
-34.954	26.761	1296.863	1062.197
-33.940	26.749	1295.401	1060.882
-32.925	26.736	1293.919	1059.554
-31.911	26.756	1292.538	1058.495
-30.896	26.743	1291.188	1057.274
-29.881	26.784	1290.102	1056.579
-28.867	26.798	1288.344	1055.181
-27.852	26.831	1286.974	1054.211
-26.838	26.723	1285.928	1052.685
-25.823	26.688	1284.677	1051.417
-24.809	26.781	1282.941	1050.490
-23.794	26.715	1281.684	1049.037
-22.779	26.705	1280.456	1047.932
-21.765	26.718	1279.695	1047.342
-20.750	26.739	1278.043	1046.071
-19.736	26.713	1276.189	1044.361
-18.721	26.617	1275.594	1043.280
-17.706	26.706	1274.439	1042.805
-16.692	26.730	1272.927	1041.668
-15.677	26.662	1272.221	1040.657
-14.663	26.602	1271.145	1039.390
-13.648	26.623	1269.525	1038.145
-12.633	26.510	1269.171	1037.170
-11.619	26.595	1267.740	1036.445
-10.604	26.626	1267.044	1036.012
-9.590	26.594	1265.868	1034.827
-8.575	26.611	1265.052	1034.212
-7.560	26.605	1264.535	1033.716
-6.546	26.552	1263.735	1032.716
-5.531	26.556	1262.561	1031.739
-4.517	26.465	1261.919	1030.657
-3.502	26.605	1261.113	1030.754
-2.487	26.634	1260.020	1029.986
-1.473	26.689	1255.832	1026.831
-0.458	25.583	1241.905	1009.204
0.556	21.062	1226.013	975.958
1.571	17.777	1234.161	963.826
2.586	17.069	1249.379	971.569
3.600	16.675	1237.982	960.388
4.615	12.375	1163.362	879.451
5.629	4.275	1087.824	781.589
6.644	0.463	1069.155	749.205
7.659	0.220	1067.169	746.540
8.673	0.196	1066.311	745.758
9.688	0.201	1064.215	744.250
10.702	0.372	1062.748	744.003
11.717	5.087	1068.592	771.380
12.731	12.702	1078.565	816.390
13.746	16.317	1082.662	837.376
14.761	16.686	1082.699	839.161
15.775	15.954	1081.091	834.219
16.790	15.030	1078.948	827.920
17.804	14.304	1077.731	823.323
18.819	14.056	1076.308	820.939
19.834	13.758	1075.591	818.850
20.848	13.529	1074.612	816.902
21.863	13.281	1073.810	814.999
22.877	13.103	1073.144	813.545
23.892	13.143	1072.201	812.953
24.907	13.030	1071.572	811.851
25.921	13.090	1070.614	811.348
26.936	13.127	1069.852	810.881
27.950	13.187	1068.624	810.173
28.965	13.267	1067.775	809.849
29.980	13.296	1066.036	808.597
30.994	13.353	1065.356	808.292
32.009	13.175	1064.578	806.761
33.023	13.292	1063.386	806.353
34.038	13.281	1061.969	805.156
35.053	13.264	1061.143	804.376
36.067	13.225	1060.632	803.727
37.082	13.183	1059.734	802.773
38.096	13.161	1059.110	802.120
39.111	13.121	1058.402	801.321
40.126	13.245	1056.847	800.672
41.140	13.121	1055.731	799.157
42.155	13.157	1054.247	798.136
43.169	13.109	1053.568	797.322
44.184	13.086	1052.182	796.088
45.199	13.036	1051.438	795.218
46.213	13.134	1050.463	794.881
47.228	13.150	1049.161	793.900
48.242	13.103	1048.301	792.952
49.257	13.278	1046.645	792.470
50.271	13.385	1045.989	792.414
51.286	13.221	1045.091	790.878
52.301	13.124	1044.280	789.735
53.315	13.076	1043.842	789.103
54.330	13.251	1042.356	788.744
55.344	13.088	1041.406	787.180
56.359	13.168	1040.739	786.988
57.374	13.153	1039.492	785.901
58.388	13.161	1038.241	784.927
59.403	12.995	1038.161	784.007
60.417	13.047	1037.235	783.482
61.432	13.072	1036.421	782.920
62.447	13.009	1035.424	781.796
63.461	13.007	1034.492	781.017
64.476	13.047	1033.654	780.500
65.490	12.993	1033.125	779.780
66.505	12.977	1032.732	779.337
67.520	13.054	1032.101	779.159
68.534	13.073	1030.496	777.965
69.549	13.119	1030.032	777.763
70.563	13.010	1029.586	776.842
71.578	12.908	1028.705	775.632
72.593	13.058	1027.414	775.294
73.607	12.918	1027.278	774.465
74.622	12.861	1026.699	773.692
75.636	12.897	1025.861	773.163
76.651	12.856	1024.970	772.231
77.666	12.866	1024.633	771.954
78.680	12.988	1023.717	771.766
79.695	12.883	1022.894	770.589
80.709	12.955	1022.577	770.615
81.724	13.104	1021.644	770.538
82.739	13.083	1020.948	769.848
83.753	13.206	1019.531	769.285
84.768	13.189	1019.257	768.931
85.782	13.132	1018.271	767.856
86.797	13.252	1016.962	767.357
87.812	13.180	1016.382	766.518
88.826	13.191	1015.273	765.662
89.841	13.171	1014.305	764.774
90.855	13.303	1013.392	764.627
91.870	13.220	1012.713	763.664
92.884	13.379	1012.041	763.823
93.899	13.182	1010.964	762.036
94.914	13.238	1010.252	761.689
95.928	13.341	1009.228	761.322
96.943	13.357	1008.848	761.043
97.957	13.246	1007.794	759.669
98.972	13.280	1006.472	758.761
99.987	13.212	1006.204	758.183
101.001	13.219	1005.217	757.404
102.016	13.128	1004.179	756.136
103.030	13.426	1002.777	756.376
104.045	13.389	1002.269	755.758
105.060	13.253	1001.916	754.802
106.074	13.347	1000.426	754.045
107.089	13.073	1000.249	752.593
108.103	13.074	999.339	751.848
109.118	13.153	997.786	750.971
110.133	13.166	997.046	750.407
111.147	13.053	996.509	749.423
112.162	13.162	995.386	749.005
113.176	13.181	994.718	748.526
114.191	13.242	993.843	748.078
115.206	13.233	993.270	747.536
116.220	13.230	992.104	746.580
117.235	13.302	991.212	746.167
118.249	13.224	990.598	745.288
119.264	13.244	989.484	744.476
120.279	13.278	988.981	744.181
121.293	13.184	988.214	743.116
122.308	13.095	987.378	742.025
123.322	13.137	986.370	741.388
124.337	13.269	984.935	740.833
125.352	13.217	984.149	739.946
126.366	13.066	983.228	738.513
127.381	13.220	982.221	738.379
128.395	13.205	981.281	737.539
129.410	13.238	980.320	736.899
130.424	13.154	979.298	735.693
131.439	13.124	978.915	735.207
132.454	13.349	977.834	735.330
133.468	13.282	977.156	734.459
134.483	13.298	976.357	733.861
135.497	13.190	975.722	732.839
136.512	13.222	974.526	732.021
137.527	13.181	974.177	731.511
138.541	13.168	973.264	730.704
139.556	13.206	972.394	730.154
140.570	13.435	971.790	730.646
141.585	13.531	970.458	730.003
142.600	13.306	970.265	728.803
143.614	13.465	969.606	728.944
144.629	13.404	968.389	727.697
145.643	13.351	967.503	726.734
146.658	13.361	966.460	725.930
147.673	13.312	965.865	725.201
148.687	13.351	964.394	724.204
149.702	13.423	964.069	724.210
150.716	13.417	963.452	723.659
151.731	13.497	962.154	722.969
152.746	13.382	961.706	722.065
153.760	13.470	961.238	722.034
154.775	13.477	960.970	721.800
155.789	13.521	959.724	720.990
156.804	13.413	959.113	719.997
157.819	13.549	958.609	720.149
158.833	13.534	957.604	719.264
159.848	13.453	957.172	718.525
160.862	13.527	956.283	718.115
161.877	13.512	954.999	717.022
162.892	13.523	954.336	716.506
163.906	13.377	953.488	715.178
164.921	13.437	952.573	714.687
165.935	13.631	951.432	714.605
166.950	13.514	950.876	713.618
167.964	13.462	949.567	712.349
168.979	13.614	948.451	712.103
169.994	13.462	948.211	711.206
171.008	13.530	947.528	710.921
172.023	13.500	946.502	709.962
173.037	13.605	946.034	709.998
174.052	13.664	945.211	709.569
175.067	13.510	945.090	708.757
176.081	13.469	944.296	707.924
177.096	13.622	943.346	707.802
178.110	13.694	942.813	707.649
179.125	13.644	942.195	706.909
180.140	13.648	941.704	706.492
181.154	13.756	941.047	706.399
182.169	13.726	941.006	706.175
183.183	13.870	940.240	706.151
184.198	13.863	938.874	705.033
185.213	13.818	938.543	704.533
186.227	13.835	937.975	704.115
187.242	13.817	937.542	703.651
188.256	13.875	936.776	703.258
189.271	13.843	936.093	702.549
190.286	13.743	935.407	701.550
191.300	13.675	934.653	700.637
192.315	13.557	934.116	699.674
193.329	13.783	933.497	700.099
194.344	13.706	932.681	699.104
195.359	13.717	932.205	698.731
196.373	13.856	931.455	698.693
197.388	13.830	931.025	698.195
198.402	13.897	930.662	698.146
199.417	13.820	929.962	697.235
200.432	14.047	929.213	697.565
201.446	14.072	928.940	697.403
202.461	14.153	928.574	697.405
203.475	14.050	927.751	696.296
204.490	14.021	927.175	695.678
205.504	13.968	926.238	694.691
206.519	14.013	925.140	693.995
207.534	13.955	924.746	693.397
208.548	14.001	924.042	692.998
209.563	14.010	923.433	692.519
210.577	14.098	922.811	692.357
211.592	14.133	922.270	692.035
212.607	14.180	921.644	691.699
213.621	14.260	920.427	691.056
214.636	14.224	919.751	690.338
215.650	14.195	919.403	689.896
216.665	14.292	918.086	689.247
217.680	14.256	917.587	688.666
218.694	14.367	916.886	688.537
219.709	14.272	916.481	687.777
220.723	14.235	915.892	687.122
221.738	14.364	914.830	686.799
222.753	14.354	914.218	686.238
223.767	14.337	913.730	685.740
224.782	14.476	913.169	685.830
225.796	14.273	912.788	684.648
226.811	14.338	911.910	684.194
227.826	14.305	911.182	683.454
228.840	14.414	910.521	683.344
229.855	14.298	909.122	681.760
230.869	14.477	908.763	682.161
231.884	14.416	908.393	681.573
232.899	14.391	907.436	680.694
233.913	14.322	906.933	679.975
234.928	14.490	906.104	679.978
235.942	14.486	905.424	679.393
236.957	14.489	905.012	679.033
237.972	14.365	904.597	678.157
238.986	14.456	904.003	678.023
240.001	14.376	903.434	677.211
241.015	14.423	902.925	676.961
242.030	14.354	902.582	676.362
243.045	14.517	901.679	676.286
244.059	14.555	901.184	676.011
245.074	14.619	900.334	675.571
246.088	14.529	899.697	674.672
247.103	14.561	899.159	674.336
248.117	14.634	898.666	674.202
249.132	14.598	898.486	673.861
250.147	14.696	897.362	673.353
251.161	14.678	896.712	672.735
252.176	14.840	895.881	672.702
253.190	14.942	895.214	672.553
254.205	14.888	894.862	672.012
255.220	14.887	894.198	671.451
256.234	14.839	893.796	670.897
257.249	14.806	893.013	670.119
258.263	14.895	892.137	669.757
259.278	14.871	891.472	669.101
260.293	14.929	890.867	668.822
261.307	14.865	890.698	668.378
262.322	14.992	889.478	667.913
263.336	15.028	888.772	667.466
264.351	15.138	888.058	667.310
265.366	14.978	887.685	666.334
266.380	15.097	886.911	666.166
267.395	15.025	886.313	665.373
268.409	15.087	885.517	664.960
269.424	15.179	884.511	664.513
270.439	15.082	884.201	663.837
271.453	15.206	882.943	663.322
272.468	15.141	882.935	663.002
273.482	15.142	882.434	662.572
274.497	15.207	881.772	662.270
275.512	15.237	881.089	661.817
276.526	15.302	880.837	661.829
277.541	15.166	880.438	660.932
278.555	15.184	879.446	660.199
279.570	15.217	878.781	659.772
280.585	15.260	878.082	659.358
281.599	15.222	877.730	658.885
282.614	15.361	876.713	658.609
283.628	15.291	876.535	658.142
284.643	15.424	875.593	657.898
285.657	15.292	874.776	656.711
286.672	15.225	874.895	656.478
287.687	15.353	873.876	656.157
288.701	15.407	872.981	655.637
289.716	15.434	872.468	655.299
290.730	15.445	871.709	654.715
291.745	15.536	871.119	654.568
292.760	15.399	870.734	653.687
293.774	15.419	869.916	653.095
294.789	15.357	869.519	652.496
295.803	15.497	868.111	651.925
296.818	15.536	867.754	651.751
297.833	15.490	867.192	651.094
298.847	15.573	866.564	650.885
299.862	15.663	865.994	650.749
300.876	15.608	865.730	650.279
301.891	15.637	865.248	649.971
302.906	15.588	864.689	649.305
303.920	15.709	864.125	649.292
304.935	15.679	863.691	648.792
305.949	15.655	862.848	648.009
306.964	15.752	862.041	647.721
307.979	15.717	861.467	647.098
308.993	15.772	860.974	646.883
310.008	15.896	860.224	646.737
311.022	15.777	859.913	645.987
312.037	15.913	859.082	645.829
313.052	15.638	858.824	644.525
314.066	15.658	858.264	644.124
315.081	15.811	857.533	644.101
316.095	15.866	856.846	643.740
317.110	15.816	855.975	642.837
318.125	15.794	855.680	642.476
319.139	15.970	854.997	642.577
320.154	15.856	854.679	641.847
321.168	15.903	854.563	641.881
322.183	15.856	853.724	641.014
323.197	15.952	853.300	641.007
324.212	15.895	852.680	640.266
325.227	15.996	851.889	639.999
326.241	15.916	851.524	639.365
327.256	15.796	851.552	638.874
328.270	15.774	850.321	637.811
329.285	15.824	849.861	637.599
330.300	15.919	848.955	637.223
331.314	15.954	848.713	637.118
332.329	15.968	848.058	636.622
333.343	15.982	847.882	636.487
334.358	15.969	847.437	636.045
335.373	16.182	847.262	636.663
336.387	16.037	847.155	635.977
337.402	15.942	846.920	635.387
338.416	16.067	846.242	635.294
339.431	16.228	845.664	635.410
340.446	16.203	845.338	635.014
341.460	16.182	844.804	634.477
342.475	16.123	844.588	634.036
343.489	16.168	844.043	633.743
344.504	16.246	843.706	633.725
345.519	16.203	843.134	633.079
346.533	16.296	842.289	632.737
347.548	16.381	841.896	632.705
348.562	16.212	841.517	631.730
349.577	16.210	840.852	631.169
350.592	16.289	839.798	630.614
351.606	16.260	839.491	630.221
352.621	16.216	839.075	629.689
353.635	16.321	838.316	629.455
354.650	16.251	837.619	628.615
355.665	16.356	837.001	628.487
356.679	16.499	836.308	628.441
357.694	16.416	835.722	627.637
358.708	16.427	835.219	627.246
359.723	16.445	834.775	626.922
360.738	16.490	834.283	626.665
361.752	16.462	833.354	625.808
362.767	16.486	832.792	625.421
363.781	16.495	832.519	625.193
364.796	16.636	832.157	625.386
365.810	16.622	831.546	624.822
366.825	16.743	830.941	624.756
367.840	16.709	830.605	624.323
368.854	16.551	830.157	623.349
369.869	16.590	829.780	623.156
370.883	16.509	829.442	622.546
371.898	16.556	829.288	622.549
372.913	16.724	828.813	622.754
373.927	16.734	827.829	621.998
374.942	16.808	827.615	622.053
375.956	16.825	827.463	621.945
376.971	16.867	826.715	621.483
377.986	16.893	826.507	621.367
379.000	16.988	825.581	620.964
380.015	16.894	825.110	620.213
381.029	16.905	824.565	619.787
382.044	16.792	824.467	619.245
383.059	16.925	823.455	618.916
384.073	17.008	822.685	618.585
385.088	16.894	822.342	617.856
386.102	16.825	822.107	617.375
387.117	16.837	821.298	616.757
388.132	16.818	820.884	616.320
389.146	16.908	820.416	616.242
390.161	16.868	820.039	615.759
391.175	16.986	819.034	615.378
392.190	17.042	818.616	615.211
393.205	17.035	818.110	614.754
394.219	17.036	817.865	614.517
395.234	16.810	817.693	613.515
396.248	16.954	816.898	613.386
397.263	16.982	816.469	613.111
398.278	16.988	816.548	613.138
399.292	16.982	815.579	612.334
400.307	16.956	815.457	612.095
401.321	17.082	815.007	612.156
402.336	17.079	814.073	611.390
403.350	17.005	814.110	611.099
404.365	17.052	813.423	610.697
405.380	17.249	812.680	610.795
406.394	17.228	812.267	610.354
407.409	17.302	811.935	610.317
408.423	17.221	811.791	609.865
409.438	17.284	811.256	609.632
410.453	17.357	810.861	609.544
411.467	17.343	810.137	608.896
412.482	17.354	809.637	608.505
413.496	17.506	809.399	608.815
414.511	17.513	809.096	608.558
415.526	17.544	808.555	608.209
416.540	17.555	808.303	608.006
417.555	17.553	807.928	607.660
418.569	17.535	807.514	607.233
419.584	17.404	807.240	606.508
420.599	17.538	806.304	606.227
421.613	111.589	1296.832	1479.826
422.628	96.271	1368.299	1479.937
