DTS Sentinel unit serial number:	SN413079Multiplexer serial number:	ORYXHardware model number:	OX4-SRSoftware version number:	ORYX F/W v4.00 Oryx Data Collector v3.7.2.0data status	okinstallation	princeton_trtdifferential loss correction	single-endedforward channel	channel 1reverse channel	N/Adate	2019/09/19time	15:02:35forward acquisition time	60.00reverse acquisition time	0.00gamma	496.2192k internal	0.2316k external	0.2316temperature offset calibration	1.0020default loss term (dB/km)	0.3790temperature slope calibration	1.0000multiplexer offset coefficient	1.0000multiplexer slope coefficient	1.0000fibre end	0.00T internal ref (°C)	33.19T ext. ref 1 (°C)	1.11T ext. ref 2 (°C)	30.11length (m)	temperature (°C)	Stokes	anti-Stokes-747.200	-83.046	0.121	0.039
-746.185	-200.000	0.082	0.500
-745.171	535.443	-0.167	-0.402
-744.156	-174.771	-0.186	-0.005
-743.142	-85.226	0.459	-0.145
-742.127	84.009	0.080	-0.088
-741.112	120.022	0.188	0.236
-740.098	20.576	0.234	0.192
-739.083	-24.198	-0.165	-0.100
-738.069	-31.195	0.096	-0.055
-737.054	-200.000	-0.030	-0.190
-736.039	54.505	-0.199	0.194
-735.025	196.688	0.065	-0.101
-734.010	163.593	-0.110	0.157
-732.996	26.405	0.212	-0.180
-731.981	-149.408	-0.093	0.007
-730.966	-40.230	-0.043	-0.022
-729.952	-200.000	-0.012	-0.063
-728.937	-70.068	0.157	0.061
-727.923	504.965	0.153	-0.360
-726.908	-64.940	-0.311	-0.127
-725.894	-200.000	0.022	0.214
-724.879	408.802	-0.076	0.162
-723.864	467.664	0.065	-0.148
-722.850	28.019	0.069	0.059
-721.835	31.933	0.161	0.140
-720.821	-176.089	0.208	-0.006
-719.806	800.000	0.023	-0.103
-718.791	-200.000	0.034	0.248
-717.777	-34.503	0.203	0.113
-716.762	-109.807	-0.232	-0.049
-715.748	125.791	-0.152	-0.195
-714.733	-66.761	0.146	0.058
-713.718	-200.000	-0.003	-0.223
-712.704	-200.000	-0.001	-0.086
-711.689	0.504	0.156	0.113
-710.675	-51.819	0.068	0.032
-709.660	-104.875	-0.133	0.031
-708.645	-112.988	0.069	0.014
-707.631	-24.744	0.215	0.129
-706.616	800.000	-0.027	-0.094
-705.602	-200.000	0.076	-0.446
-704.587	-46.043	0.128	0.064
-703.572	111.231	-0.185	-0.225
-702.558	22.609	-0.050	-0.041
-701.543	800.000	-0.040	-0.119
-700.529	-7.124	0.257	0.176
-699.514	800.000	0.080	-0.312
-698.499	-109.105	-0.147	0.032
-697.485	-200.000	-0.010	-0.395
-696.470	84.620	-0.140	-0.155
-695.456	-72.821	-0.131	-0.049
-694.441	-200.000	0.012	-0.066
-693.426	9.959	-0.127	-0.098
-692.412	-200.000	-0.041	-0.259
-691.397	-200.000	0.000	0.040
-690.383	250.712	0.123	-0.211
-689.368	15.567	0.143	0.114
-688.354	800.000	-0.024	0.102
-687.339	11.462	0.228	0.176
-686.324	-200.000	-0.031	0.271
-685.310	800.000	-0.081	-0.267
-684.295	383.907	-0.119	-0.247
-683.281	-62.820	0.281	-0.118
-682.266	-31.565	-0.316	-0.180
-681.251	22.324	0.498	-0.411
-680.237	-147.402	0.263	-0.022
-679.222	547.240	0.159	-0.385
-678.208	-170.247	-0.490	0.017
-677.193	-121.656	-0.291	0.049
-676.178	178.231	0.210	0.310
-675.164	78.377	-0.151	-0.163
-674.149	178.913	0.154	0.228
-673.135	167.885	0.167	-0.240
-672.120	85.664	-0.036	-0.040
-671.105	118.085	0.202	-0.251
-670.091	424.156	-0.045	-0.099
-669.076	401.674	0.055	0.117
-668.062	-200.000	-0.058	-0.325
-667.047	800.000	-0.109	-0.440
-666.032	26.194	0.066	-0.055
-665.018	-59.927	0.172	-0.074
-664.003	49.266	0.141	0.134
-662.989	210.758	0.237	-0.377
-661.974	800.000	-0.113	-0.339
-660.959	503.436	-0.096	-0.225
-659.945	28.531	-0.135	0.115
-658.930	800.000	-0.085	-0.271
-657.916	313.474	-0.041	-0.079
-656.901	528.540	0.200	-0.476
-655.886	-115.518	-0.255	-0.048
-654.872	-200.000	-0.016	-0.298
-653.857	444.369	0.180	-0.398
-652.843	45.872	0.105	-0.098
-651.828	3.285	-0.092	0.068
-650.814	-70.128	0.168	0.064
-649.799	-200.000	-0.038	-0.302
-648.784	-82.029	0.214	0.070
-647.770	-98.979	0.216	-0.055
-646.755	39.389	0.133	0.120
-645.741	-26.023	0.106	-0.063
-644.726	-73.580	0.219	0.081
-643.711	800.000	-0.018	0.058
-642.697	-113.793	-0.111	0.022
-641.682	291.985	-0.092	0.168
-640.668	-200.000	0.016	0.084
-639.653	-200.000	0.008	-0.093
-638.638	22.260	0.242	0.199
-637.624	-154.802	0.230	-0.015
-636.609	-123.637	-0.293	0.047
-635.595	-92.431	-0.180	-0.051
-634.580	-200.000	0.048	-0.244
-633.565	-41.703	0.019	0.010
-632.551	-3.818	-0.291	-0.204
-631.536	170.976	-0.036	-0.052
-630.522	270.604	0.162	0.288
-629.507	-200.000	-0.021	0.244
-628.492	127.166	0.104	-0.134
-627.478	-181.632	0.148	-0.003
-626.463	36.923	-0.126	-0.112
-625.449	184.149	-0.042	0.063
-624.434	800.000	-0.041	0.161
-623.419	13.515	0.204	-0.159
-622.405	167.078	-0.205	-0.293
-621.390	-200.000	-0.088	-0.395
-620.376	-144.301	-0.231	0.022
-619.361	107.249	0.206	-0.246
-618.346	-108.764	-0.366	-0.079
-617.332	-200.000	-0.020	0.155
-616.317	-141.103	-0.505	0.052
-615.303	98.724	0.159	-0.185
-614.288	-200.000	0.061	0.310
-613.273	-137.206	0.200	0.023
-612.259	-100.493	-0.333	0.083
-611.244	-124.748	0.154	-0.024
-610.230	-200.000	0.009	-0.157
-609.215	-200.000	-0.007	-0.175
-608.201	-200.000	-0.002	0.056
-607.186	-49.523	-0.151	-0.072
-606.171	-139.516	-0.196	0.021
-605.157	-36.188	0.314	-0.171
-604.142	-123.861	0.193	-0.031
-603.128	-200.000	-0.037	-0.204
-602.113	142.065	0.127	-0.170
-601.098	-112.534	-0.121	-0.024
-600.084	134.926	0.148	-0.194
-599.069	-200.000	0.011	-0.187
-598.055	-200.000	0.052	-0.370
-597.040	-80.347	0.213	-0.072
-596.025	43.995	0.278	-0.256
-595.011	49.939	0.072	0.068
-593.996	-82.822	-0.411	0.134
-592.982	499.709	-0.199	-0.461
-591.967	224.410	-0.082	0.134
-590.952	-200.000	0.017	-0.121
-589.938	157.868	-0.072	-0.101
-588.923	800.000	0.069	0.231
-587.909	800.000	0.098	-0.296
-586.894	15.108	0.208	-0.164
-585.879	-92.614	-0.259	0.073
-584.865	-200.000	0.050	-0.342
-583.850	439.157	-0.056	0.123
-582.836	-65.728	0.257	-0.104
-581.821	-200.000	-0.005	-0.076
-580.806	-7.101	-0.439	-0.300
-579.792	-103.594	-0.275	0.065
-578.777	-200.000	0.008	-0.227
-577.763	-52.490	0.350	0.163
-576.748	-163.228	-0.284	-0.014
-575.733	320.747	0.145	0.278
-574.719	-156.673	-0.235	-0.015
-573.704	800.000	-0.051	-0.153
-572.690	42.569	-0.201	-0.184
-571.675	755.714	-0.134	0.365
-570.661	18.531	0.220	-0.177
-569.646	55.178	-0.107	-0.104
-568.631	-46.746	-0.044	-0.022
-567.617	28.491	0.096	0.082
-566.602	-60.933	0.093	0.040
-565.588	73.529	-0.154	-0.162
-564.573	-46.889	0.185	0.091
-563.558	-4.093	-0.218	-0.152
-562.544	-200.000	-0.020	0.262
-561.529	-166.822	-0.110	-0.005
-560.515	113.159	0.053	-0.065
-559.500	-157.434	0.278	0.017
-558.485	800.000	0.010	0.035
-557.471	177.565	0.187	0.274
-556.456	-23.342	-0.063	0.038
-555.442	-200.000	0.023	0.269
-554.427	102.629	0.135	-0.159
-553.412	408.946	0.052	-0.110
-552.398	389.361	-0.114	0.237
-551.383	-200.000	0.032	-0.210
-550.369	-200.000	0.027	-0.358
-549.354	800.000	0.062	-0.205
-548.339	-130.961	0.180	0.024
-547.325	-17.273	0.080	0.050
-546.310	237.639	-0.137	0.229
-545.296	495.956	0.189	-0.437
-544.281	-91.765	-0.319	-0.091
-543.266	-172.507	0.256	-0.008
-542.252	769.812	-0.022	0.061
-541.237	800.000	-0.083	0.325
-540.223	80.681	-0.191	0.207
-539.208	-108.213	0.092	0.020
-538.193	43.244	0.049	-0.045
-537.179	800.000	-0.066	-0.205
-536.164	-162.239	-0.093	0.005
-535.150	-85.940	0.071	-0.022
-534.135	-21.626	-0.221	-0.136
-533.121	800.000	-0.076	0.242
-532.106	-200.000	-0.020	0.244
-531.091	800.000	0.115	0.378
-530.077	22.752	-0.125	0.103
-529.062	-41.358	0.221	-0.114
-528.048	-200.000	-0.000	0.123
-527.033	-200.000	-0.020	-0.099
-526.018	72.339	-0.058	-0.060
-525.004	-140.249	0.311	0.033
-523.989	47.114	0.202	0.189
-522.975	800.000	-0.060	0.250
-521.960	-35.952	0.303	0.165
-520.945	321.850	-0.057	-0.109
-519.931	-113.407	0.107	0.021
-518.916	800.000	0.129	0.460
-517.902	229.446	-0.098	0.161
-516.887	37.901	0.146	-0.130
-515.872	-200.000	0.028	0.199
-514.858	800.000	-0.079	0.218
-513.843	-200.000	-0.018	-0.118
-512.829	251.400	-0.244	-0.416
-511.814	-141.646	-0.071	0.007
-510.799	-68.827	-0.089	0.035
-509.785	-200.000	0.007	-0.087
-508.770	-200.000	-0.002	-0.059
-507.756	85.493	0.106	0.117
-506.741	169.784	-0.093	0.133
-505.726	-200.000	-0.013	0.316
-504.712	360.048	-0.058	0.116
-503.697	-69.789	-0.115	0.044
-502.683	-200.000	-0.055	0.338
-501.668	-185.402	-0.111	-0.002
-500.653	236.639	-0.072	-0.120
-499.639	-76.799	0.174	0.061
-498.624	553.597	-0.045	0.108
-497.610	78.544	-0.011	0.011
-496.595	800.000	0.020	-0.087
-495.581	-88.938	0.293	0.087
-494.566	227.078	0.098	-0.160
-493.551	69.696	0.026	-0.027
-492.537	-200.000	0.010	-0.181
-491.522	217.445	0.302	0.482
-490.508	-59.102	-0.203	0.088
-489.493	141.074	0.121	0.161
-488.478	356.439	-0.013	-0.027
-487.464	267.390	-0.017	-0.029
-486.449	-59.393	0.197	-0.085
-485.435	251.367	-0.101	0.173
-484.420	510.482	0.191	-0.444
-483.405	-54.488	-0.215	-0.098
-482.391	-122.455	-0.122	0.020
-481.376	325.181	0.103	0.198
-480.362	729.279	-0.042	-0.112
-479.347	-4.047	0.241	0.167
-478.332	142.215	-0.105	-0.140
-477.318	-113.387	-0.142	0.028
-476.303	-200.000	-0.074	-0.425
-475.289	-21.766	0.159	-0.097
-474.274	-200.000	0.000	-0.418
-473.259	-200.000	-0.011	-0.130
-472.245	81.320	-0.134	-0.146
-471.230	-98.498	0.361	-0.093
-470.216	-200.000	-0.003	0.055
-469.201	95.029	-0.297	0.339
-468.186	-200.000	0.004	-0.226
-467.172	-55.803	-0.097	-0.044
-466.157	56.229	-0.275	0.267
-465.143	283.354	-0.121	0.217
-464.128	87.160	0.089	-0.098
-463.113	-175.443	0.133	0.004
-462.099	-102.891	-0.316	-0.075
-461.084	335.741	0.096	-0.187
-460.070	-200.000	-0.040	-0.388
-459.055	800.000	0.063	-0.177
-458.040	132.525	0.104	0.135
-457.026	44.329	-0.170	-0.156
-456.011	40.919	-0.124	0.112
-454.997	-126.732	0.108	-0.016
-453.982	-200.000	-0.013	-0.174
-452.968	-151.513	-0.099	0.007
-451.953	181.288	0.209	-0.308
-450.938	30.538	-0.143	-0.122
-449.924	-168.190	0.466	-0.018
-448.909	7.003	0.222	-0.166
-447.895	733.713	0.093	-0.250
-446.880	-25.070	-0.135	-0.080
-445.865	147.784	0.020	0.027
-444.851	-122.394	0.313	-0.051
-443.836	-22.115	0.241	0.146
-442.822	800.000	-0.061	-0.171
-441.807	-151.714	0.204	0.015
-440.792	-103.446	-0.148	0.035
-439.778	104.419	0.108	0.127
-438.763	524.620	0.031	0.072
-437.749	166.757	0.185	0.263
-436.734	5.984	0.218	-0.162
-435.719	449.995	-0.039	-0.086
-434.705	-57.289	-0.330	-0.145
-433.690	23.446	-0.127	0.104
-432.676	460.603	-0.130	0.289
-431.661	-139.068	-0.199	-0.022
-430.646	-143.673	-0.386	0.037
-429.632	70.567	-0.075	0.078
-428.617	-57.042	-0.216	-0.095
-427.603	141.461	0.209	0.277
-426.588	-160.092	0.165	0.009
-425.573	25.725	0.164	-0.136
-424.559	800.000	0.037	-0.124
-423.544	-101.666	0.391	0.095
-422.530	-96.297	-0.235	0.062
-421.515	-84.714	-0.148	-0.047
-420.500	-200.000	0.014	0.176
-419.486	-137.927	-0.235	-0.026
-418.471	50.446	-0.150	-0.142
-417.457	192.190	-0.111	0.168
-416.442	-31.264	0.074	-0.042
-415.428	-101.867	0.039	-0.009
-414.413	-23.489	0.186	0.112
-413.398	-54.480	-0.088	-0.040
-412.384	95.816	0.146	-0.166
-411.369	235.582	0.037	0.061
-410.355	454.132	-0.239	-0.528
-409.340	-200.000	0.046	-0.331
-408.325	97.731	-0.055	-0.063
-407.311	-53.976	-0.221	0.101
-406.296	-98.820	0.149	-0.038
-405.282	187.944	-0.220	-0.328
-404.267	213.319	-0.066	-0.104
-403.252	-9.307	0.150	0.100
-402.238	-39.274	-0.071	0.037
-401.223	64.721	0.083	0.084
-400.209	54.122	0.151	0.145
-399.194	800.000	-0.056	0.179
-398.179	-200.000	0.020	-0.167
-397.165	413.736	0.078	0.165
-396.150	-137.621	-0.276	-0.031
-395.136	-155.467	-0.099	0.006
-394.121	55.027	-0.124	-0.119
-393.106	-151.077	0.293	0.022
-392.092	-173.073	0.244	-0.007
-391.077	629.319	0.095	0.241
-390.063	198.362	-0.144	-0.220
-389.048	69.851	-0.141	0.145
-388.033	-115.182	0.176	0.033
-387.019	-54.839	-0.224	0.101
-386.004	-200.000	0.055	0.318
-384.990	-123.592	-0.428	-0.068
-383.975	-136.874	-0.184	-0.021
-382.960	95.248	0.150	-0.170
-381.946	108.575	0.101	-0.120
-380.931	2.890	-0.201	0.145
-379.917	162.951	0.057	-0.080
-378.902	-83.574	-0.281	-0.090
-377.888	654.330	0.152	0.389
-376.873	-27.640	0.130	-0.076
-375.858	23.373	0.356	0.292
-374.844	-127.394	-0.210	-0.031
-373.829	-139.491	-0.201	-0.021
-372.815	77.039	0.155	-0.164
-371.800	8.518	-0.291	-0.219
-370.785	-81.896	0.307	-0.100
-369.771	-8.374	-0.269	0.181
-368.756	-16.592	0.134	-0.084
-367.742	-120.615	-0.401	0.068
-366.727	-24.863	0.259	-0.153
-365.712	114.920	-0.145	0.177
-364.698	21.600	-0.370	0.300
-363.683	-200.000	0.031	0.136
-362.669	118.134	0.296	-0.364
-361.654	72.480	-0.125	0.130
-360.639	-124.497	0.145	-0.023
-359.625	-53.548	0.254	-0.116
-358.610	-200.000	0.013	0.275
-357.596	-95.487	-0.117	0.031
-356.581	-37.795	-0.432	-0.230
-355.566	-18.449	0.220	-0.137
-354.552	800.000	0.071	-0.246
-353.537	-194.998	-0.203	-0.002
-352.523	91.733	-0.014	0.016
-351.508	-104.370	-0.174	-0.040
-350.493	-80.146	-0.128	0.043
-349.479	12.629	0.153	0.118
-348.464	439.329	-0.079	0.171
-347.450	-0.692	-0.088	0.062
-346.435	122.735	0.131	-0.163
-345.420	111.274	-0.132	-0.159
-344.406	-70.817	0.100	0.037
-343.391	-178.392	-0.182	0.004
-342.377	616.156	-0.157	-0.394
-341.362	-200.000	0.006	-0.393
-340.348	-163.400	-0.367	0.017
-339.333	78.051	-0.222	0.236
-338.318	-200.000	-0.041	0.469
-337.304	800.000	-0.136	0.522
-336.289	101.588	-0.197	0.229
-335.275	23.997	-0.082	-0.067
-334.260	248.247	0.205	0.345
-333.245	-200.000	-0.005	0.221
-332.231	566.470	-0.095	-0.230
-331.216	-71.730	-0.423	-0.157
-330.202	-163.094	0.214	0.010
-329.187	-147.165	0.490	0.042
-328.172	-200.000	0.276	0.001
-327.158	234.931	0.086	0.141
-326.143	511.808	-0.134	-0.310
-325.129	-109.134	0.323	0.069
-324.114	92.818	0.061	0.069
-323.099	-200.000	0.005	-0.142
-322.085	163.521	0.109	0.152
-321.070	-30.043	0.166	-0.094
-320.056	34.218	-0.239	-0.207
-319.041	57.971	0.346	0.337
-318.026	-163.743	-0.109	0.005
-317.012	168.545	-0.067	0.096
-315.997	800.000	-0.023	0.072
-314.983	-99.841	0.247	0.061
-313.968	-175.469	0.204	0.006
-312.953	220.716	0.079	0.126
-311.939	-94.528	-0.168	0.046
-310.924	-3.710	-0.052	-0.036
-309.910	-200.000	-0.026	-0.181
-308.895	-56.621	-0.264	-0.117
-307.880	-98.465	-0.105	-0.027
-306.866	-174.816	-0.293	-0.008
-305.851	680.143	0.081	0.211
-304.837	-85.852	0.185	0.057
-303.822	372.316	-0.110	-0.223
-302.807	-1.448	-0.120	0.084
-301.793	800.000	-0.090	0.299
-300.778	-106.647	-0.256	-0.057
-299.764	-138.874	-0.365	0.040
-298.749	-54.752	-0.148	-0.067
-297.735	-179.638	0.500	-0.011
-296.720	-67.749	0.533	-0.208
-295.705	-58.751	-0.225	-0.097
-294.691	283.890	-0.163	0.291
-293.676	53.399	0.206	0.196
-292.662	78.302	-0.218	0.232
-291.647	678.022	0.034	-0.087
-290.632	163.242	-0.093	0.130
-289.618	800.000	0.069	0.240
-288.603	-170.172	-0.163	0.006
-287.589	185.326	-0.124	-0.183
-286.574	-200.000	-0.018	0.290
-285.559	800.000	-0.064	0.229
-284.545	99.520	-0.170	0.196
-283.530	-194.278	0.272	-0.002
-282.516	-4.867	-0.131	-0.090
-281.501	-143.089	-0.168	-0.016
-280.486	800.000	0.168	-0.530
-279.472	-112.315	0.263	0.052
-278.457	784.957	-0.028	-0.077
-277.443	-200.000	-0.025	-0.112
-276.428	800.000	-0.086	-0.364
-275.413	800.000	0.079	0.233
-274.399	-200.000	0.007	0.088
-273.384	-46.402	-0.032	-0.016
-272.370	195.399	0.148	0.223
-271.355	-200.000	0.023	0.223
-270.340	215.948	-0.091	-0.144
-269.326	-200.000	0.038	0.226
-268.311	121.253	0.119	0.147
-267.297	-107.831	0.254	0.055
-266.282	-82.369	0.139	-0.045
-265.267	-79.616	0.253	-0.085
-264.253	143.461	0.116	-0.153
-263.238	97.136	-0.174	0.199
-262.224	-98.471	0.169	0.043
-261.209	-200.000	0.006	0.346
-260.195	800.000	-0.119	0.349
-259.180	67.291	0.088	-0.089
-258.165	800.000	-0.045	0.194
-257.151	576.676	-0.088	-0.213
-256.136	90.038	-0.130	0.145
-255.122	20.469	0.353	0.284
-254.107	-22.900	-0.145	0.087
-253.092	-200.000	0.023	0.108
-252.078	149.148	0.058	0.078
-251.063	622.096	-0.063	0.157
-250.049	-1.169	0.227	-0.159
-249.034	4.658	0.169	-0.123
-248.019	370.622	-0.061	0.122
-247.005	97.334	-0.134	0.153
-245.990	800.000	0.052	-0.153
-244.976	-200.000	-0.006	0.202
-243.961	204.429	-0.024	-0.036
-242.946	1.470	-0.200	0.143
-241.932	162.650	0.125	0.174
-240.917	-200.000	0.024	-0.194
-239.903	800.000	-0.101	0.371
-238.888	-200.000	-0.009	-0.208
-237.873	-102.040	0.252	0.060
-236.859	-52.669	0.186	-0.085
-235.844	-200.000	-0.060	-0.517
-234.830	-117.584	0.091	-0.016
-233.815	127.326	-0.043	-0.054
-232.800	-99.955	0.080	-0.020
-231.786	73.898	0.218	-0.227
-230.771	114.675	-0.265	0.320
-229.757	-82.021	0.215	0.070
-228.742	518.449	0.142	0.329
-227.727	61.319	-0.155	-0.153
-226.713	-200.000	0.011	0.050
-225.698	120.897	-0.101	0.125
-224.684	64.206	-0.223	0.222
-223.669	800.000	0.031	0.114
-222.655	-166.188	0.269	0.011
-221.640	3.842	-0.208	0.151
-220.625	800.000	-0.028	-0.111
-219.611	800.000	-0.050	0.149
-218.596	536.087	-0.099	-0.234
-217.582	9.299	-0.233	0.175
-216.567	-60.204	0.363	0.153
-215.552	146.866	0.130	0.174
-214.538	800.000	0.034	0.134
-213.523	-119.531	0.125	0.021
-212.509	26.353	-0.175	-0.146
-211.494	-141.430	0.085	0.009
-210.479	-200.000	-0.033	0.194
-209.465	-200.000	0.031	-0.172
-208.450	-200.000	0.009	-0.149
-207.436	90.895	-0.035	-0.038
-206.421	-10.579	-0.056	0.037
-205.406	-200.000	0.026	-0.222
-204.392	85.318	0.124	-0.135
-203.377	-168.586	-0.010	0.000
-202.363	-200.000	-0.016	-0.170
-201.348	2.238	-0.097	-0.070
-200.333	800.000	-0.042	0.125
-199.319	297.245	0.107	-0.194
-198.304	91.958	0.057	-0.063
-197.290	73.520	0.185	-0.192
-196.275	-165.615	-0.103	-0.004
-195.260	-74.497	0.292	-0.104
-194.246	198.149	-0.122	0.185
-193.231	-28.483	0.261	0.149
-192.217	800.000	-0.026	-0.097
-191.202	23.434	-0.286	0.233
-190.187	-113.433	-0.276	-0.054
-189.173	9.713	-0.110	-0.083
-188.158	-200.000	-0.011	-0.067
-187.144	248.245	-0.119	-0.200
-186.129	-200.000	0.016	0.381
-185.114	-30.267	0.137	0.077
-184.100	-71.407	0.071	0.026
-183.085	800.000	0.060	0.182
-182.071	-200.000	-0.014	-0.176
-181.056	-200.000	-0.006	0.045
-180.042	-173.217	0.173	0.005
-179.027	-200.000	0.017	0.152
-178.012	57.223	-0.173	-0.168
-176.998	-167.087	0.260	0.010
-175.983	-115.315	0.221	0.041
-174.969	-81.099	-0.095	0.031
-173.954	-75.244	0.379	0.134
-172.939	800.000	-0.086	0.284
-171.925	-200.000	0.035	-0.299
-170.910	-82.222	0.220	-0.071
-169.896	271.428	-0.031	-0.054
-168.881	-43.135	-0.221	-0.111
-167.866	-104.935	-0.033	-0.008
-166.852	-112.729	0.243	0.048
-165.837	-200.000	0.022	-0.156
-164.823	-200.000	0.008	-0.209
-163.808	588.778	-0.127	-0.310
-162.793	-108.225	-0.287	-0.062
-161.779	-173.849	-0.070	-0.002
-160.764	228.078	-0.032	-0.052
-159.750	-200.000	-0.011	0.059
-158.735	-89.935	0.203	0.059
-157.720	-129.877	0.262	-0.036
-156.706	-200.000	-0.407	0.001
-155.691	-148.957	-0.240	-0.019
-154.677	800.000	-0.052	0.181
-153.662	10.193	-0.128	0.096
-152.647	0.181	0.137	-0.097
-151.633	0.331	0.167	-0.118
-150.618	187.950	0.152	-0.224
-149.604	95.392	0.152	0.172
-148.589	800.000	0.106	0.456
-147.574	32.125	-0.012	0.011
-146.560	-200.000	0.010	-0.312
-145.545	-31.063	-0.017	0.009
-144.531	-153.469	0.226	0.016
-143.516	-200.000	-0.039	-0.170
-142.502	453.824	0.060	-0.132
-141.487	53.664	-0.273	0.259
-140.472	-80.616	-0.185	0.061
-139.458	-200.000	-0.006	0.120
-138.443	-119.577	0.167	-0.029
-137.429	-94.949	0.362	-0.097
-136.414	-112.825	-0.392	0.077
-135.399	2.995	0.154	-0.110
-134.385	-119.778	0.357	0.061
-133.370	-156.767	0.241	-0.015
-132.356	-12.537	0.093	0.060
-131.341	197.617	-0.101	-0.153
-130.326	253.811	0.102	-0.173
-129.312	443.615	0.088	-0.191
-128.297	-39.162	0.189	-0.098
-127.283	433.016	0.126	-0.270
-126.268	461.918	-0.042	0.094
-125.253	169.425	-0.082	0.115
-124.239	-153.982	-0.317	0.021
-123.224	800.000	-0.054	0.152
-122.210	261.810	0.128	-0.220
-121.195	-101.577	-0.287	-0.069
-120.180	17.626	0.234	0.184
-119.166	167.315	0.193	0.271
-118.151	-130.885	-0.048	0.006
-117.137	-80.589	-0.273	0.090
-116.122	-35.182	-0.162	-0.087
-115.107	-200.000	0.037	0.390
-114.093	800.000	0.140	0.439
-113.078	29.136	0.082	-0.069
-112.064	-9.612	0.088	-0.058
-111.049	10.899	-0.222	-0.168
-110.034	141.397	-0.098	0.128
-109.020	168.709	0.021	-0.030
-108.005	-28.003	-0.218	-0.125
-106.991	800.000	-0.075	0.208
-105.976	627.806	-0.052	0.129
-104.962	223.962	-0.037	0.058
-103.947	41.503	0.152	-0.136
-102.932	78.586	-0.064	-0.068
-101.918	6.307	0.039	0.029
-100.903	80.329	0.296	-0.315
-99.889	727.704	0.097	-0.257
-98.874	129.395	0.210	0.265
-97.859	-92.343	0.443	0.123
-96.845	-165.288	-0.184	-0.008
-95.830	27.400	-0.042	-0.035
-94.816	-98.827	0.294	0.074
-93.801	800.000	-0.050	0.178
-92.786	66.892	-0.099	0.100
-91.772	150.865	-0.047	-0.063
-90.757	-200.000	-0.004	0.318
-89.743	-57.851	0.090	-0.039
-88.728	-200.000	0.053	-0.446
-87.713	-70.343	-0.280	0.105
-86.699	249.677	0.154	-0.257
-85.684	800.000	-0.075	0.309
-84.670	-39.505	0.211	0.109
-83.655	-132.994	-0.041	0.005
-82.640	800.000	-0.012	-0.051
-81.626	100.861	0.195	-0.224
-80.611	-102.118	-0.070	-0.017
-79.597	14.945	-0.072	-0.055
-78.582	-167.666	0.325	-0.013
-77.567	243.241	-0.226	0.373
-76.553	108.679	-0.138	0.163
-75.538	800.000	-0.071	0.296
-74.524	0.223	0.328	0.231
-73.509	-186.242	-0.441	0.006
-72.494	-84.596	0.306	-0.095
-71.480	93.901	0.180	-0.201
-70.465	-132.541	0.364	-0.046
-69.451	800.000	0.062	0.227
-68.436	-200.000	0.022	0.216
-67.422	-200.000	0.005	0.234
-66.407	800.000	0.028	0.097
-65.392	-39.382	-0.101	0.052
-64.378	162.001	0.032	0.044
-63.363	-137.933	0.215	0.024
-62.349	38.692	-0.302	-0.266
-61.334	185.471	-0.751	-1.101
-60.319	47.262	0.431	0.395
-59.305	800.000	-0.262	-1.019
-58.290	257.891	0.570	0.968
-57.276	-200.000	0.285	1.537
-56.261	-200.000	95.815	549.168
-55.246	479.908	1440.169	3219.657
-54.232	144.679	2657.774	3501.843
-53.217	109.297	2221.660	2622.541
-52.203	44.743	1659.588	1505.220
-51.188	36.730	1389.418	1210.279
-50.173	33.353	1346.702	1152.512
-49.159	54.315	1393.064	1322.320
-48.144	56.876	1410.287	1354.447
-47.130	36.870	1367.644	1191.986
-46.115	33.359	1350.472	1155.590
-45.100	33.170	1345.842	1150.435
-44.086	33.150	1343.322	1148.110
-43.071	32.951	1341.491	1145.295
-42.057	32.960	1339.284	1143.420
-41.042	33.063	1337.353	1142.347
-40.027	33.115	1335.796	1141.284
-39.013	33.128	1333.652	1139.490
-37.998	33.147	1331.831	1137.999
-36.984	33.089	1330.597	1136.551
-35.969	33.235	1328.591	1135.674
-34.954	33.259	1326.786	1134.225
-33.940	33.249	1325.497	1133.018
-32.925	33.264	1324.141	1131.906
-31.911	33.232	1322.637	1130.386
-30.896	33.243	1321.118	1129.107
-29.881	33.365	1320.003	1128.838
-28.867	33.245	1318.512	1126.800
-27.852	33.289	1317.076	1125.789
-26.838	33.284	1315.296	1124.195
-25.823	33.338	1313.774	1123.174
-24.809	33.303	1312.634	1121.943
-23.794	33.272	1311.140	1120.438
-22.779	33.238	1310.019	1119.238
-21.765	33.291	1308.273	1118.016
-20.750	33.271	1307.120	1116.867
-19.736	33.267	1306.141	1115.959
-18.721	33.124	1304.890	1114.007
-17.706	33.161	1303.784	1113.235
-16.692	33.145	1302.499	1111.998
-15.677	33.206	1301.726	1111.654
-14.663	33.222	1299.891	1110.139
-13.648	33.112	1299.314	1108.954
-12.633	33.121	1298.801	1108.526
-11.619	33.162	1297.323	1107.458
-10.604	33.063	1296.659	1106.270
-9.590	33.060	1295.515	1105.231
-8.575	33.069	1294.424	1104.313
-7.560	33.082	1293.701	1103.726
-6.546	32.979	1293.063	1102.533
-5.531	33.082	1291.724	1101.948
-4.517	33.051	1290.855	1100.985
-3.502	33.122	1289.882	1100.525
-2.487	33.179	1289.286	1100.306
-1.473	33.052	1285.968	1096.694
-0.458	32.224	1270.939	1079.081
0.556	28.123	1253.361	1040.327
1.571	23.792	1258.558	1019.753
2.586	21.905	1273.006	1020.404
3.600	20.262	1259.758	1000.230
4.615	14.557	1183.749	908.803
5.629	5.658	1104.903	802.763
6.644	1.366	1084.124	765.984
7.659	1.072	1081.592	762.648
8.673	0.963	1080.833	761.495
9.688	1.020	1079.781	760.973
10.702	1.189	1078.049	760.535
11.717	5.804	1083.911	787.825
12.731	13.487	1094.166	834.044
13.746	17.035	1098.618	855.278
14.761	17.511	1098.576	857.567
15.775	16.916	1096.080	852.551
16.790	15.867	1094.334	845.852
17.804	15.128	1093.014	841.043
18.819	14.805	1091.788	838.409
19.834	14.465	1090.702	835.793
20.848	14.221	1089.550	833.616
21.863	13.985	1088.609	831.644
22.877	13.765	1088.373	830.288
23.892	13.794	1087.519	829.706
24.907	13.765	1087.048	829.130
25.921	13.815	1085.878	828.413
26.936	13.733	1085.228	827.434
27.950	13.893	1083.994	827.220
28.965	13.958	1082.507	826.333
29.980	13.877	1081.485	825.075
30.994	14.095	1080.325	825.202
32.009	14.088	1079.425	824.407
33.023	14.042	1078.307	823.254
34.038	14.021	1077.153	822.195
35.053	13.961	1076.452	821.289
36.067	13.803	1075.966	820.063
37.082	13.927	1074.827	819.739
38.096	13.977	1074.205	819.435
39.111	13.958	1073.133	818.453
40.126	13.848	1072.661	817.478
41.140	13.803	1070.921	815.857
42.155	13.803	1069.618	814.795
43.169	13.917	1068.502	814.431
44.184	13.795	1067.810	813.236
45.199	13.791	1066.484	812.132
46.213	13.841	1065.361	811.451
47.228	14.025	1064.447	811.579
48.242	13.806	1063.728	809.893
49.257	13.794	1062.809	809.061
50.271	13.875	1061.706	808.543
51.286	13.966	1060.570	808.054
52.301	14.052	1059.459	807.551
53.315	13.867	1058.563	805.899
54.330	13.870	1057.526	805.054
55.344	13.777	1056.891	804.045
56.359	13.829	1055.832	803.422
57.374	13.855	1054.700	802.615
58.388	13.802	1053.858	801.647
59.403	13.794	1053.521	801.283
60.417	13.790	1052.893	800.714
61.432	13.940	1051.606	800.388
62.447	13.807	1050.879	799.124
63.461	13.788	1050.096	798.365
64.476	13.618	1049.640	797.128
65.490	13.719	1048.781	796.892
66.505	13.801	1047.625	796.338
67.520	13.768	1047.393	795.931
68.534	13.851	1046.207	795.356
69.549	13.866	1045.660	794.943
70.563	13.828	1044.742	793.995
71.578	13.654	1044.527	792.926
72.593	13.735	1043.219	792.252
73.607	13.709	1042.855	791.783
74.622	13.687	1042.624	791.430
75.636	13.760	1041.226	790.648
76.651	13.617	1040.841	789.602
77.666	13.718	1040.266	789.580
78.680	13.744	1039.093	788.744
79.695	13.693	1039.067	788.411
80.709	13.754	1038.220	787.987
81.724	13.820	1037.543	787.715
82.739	13.802	1036.864	787.048
83.753	13.913	1035.751	786.656
84.768	13.978	1035.323	786.571
85.782	14.000	1033.551	785.259
86.797	13.955	1032.933	784.506
87.812	13.735	1032.426	783.013
88.826	13.892	1030.922	782.542
89.841	13.972	1029.631	781.873
90.855	13.960	1028.823	781.135
91.870	14.048	1027.948	780.814
92.884	13.991	1027.365	780.034
93.899	13.989	1026.425	779.242
94.914	14.084	1025.214	778.699
95.928	14.069	1024.617	778.104
96.943	14.086	1023.349	777.153
97.957	14.083	1022.504	776.429
98.972	13.985	1021.931	775.467
99.987	14.021	1021.245	775.045
101.001	14.010	1019.729	773.776
102.016	13.991	1019.029	773.089
103.030	13.996	1018.162	772.386
104.045	13.904	1017.884	771.680
105.060	13.918	1016.978	770.987
106.074	13.922	1015.995	770.195
107.089	13.893	1014.992	769.230
108.103	13.768	1014.494	768.206
109.118	13.924	1013.446	768.065
110.133	13.958	1011.948	767.019
111.147	13.974	1011.385	766.600
112.162	13.863	1010.627	765.444
113.176	14.002	1009.999	765.544
114.191	14.018	1009.022	764.807
115.206	14.116	1008.275	764.623
116.220	13.902	1007.864	763.261
117.235	13.948	1006.468	762.348
118.249	14.009	1005.867	762.103
119.264	14.133	1004.533	761.593
120.279	13.959	1003.793	760.170
121.293	14.020	1003.434	760.109
122.308	13.871	1002.650	758.769
123.322	13.886	1001.744	758.085
124.337	13.894	1000.438	757.063
125.352	14.021	999.431	756.815
126.366	14.006	998.123	755.689
127.381	13.918	997.606	754.832
128.395	13.908	996.487	753.872
129.410	14.056	995.177	753.485
130.424	14.126	994.150	752.957
131.439	14.033	993.963	752.330
132.454	14.062	992.886	751.577
133.468	13.917	992.435	750.516
134.483	14.110	991.105	750.313
135.497	13.987	990.390	749.151
136.512	14.012	989.371	748.426
137.527	14.129	988.460	748.197
138.541	14.048	987.858	747.309
139.556	14.010	986.910	746.358
140.570	14.113	986.333	746.316
141.585	14.120	985.624	745.745
142.600	14.250	984.598	745.484
143.614	14.125	984.077	744.466
144.629	14.099	983.067	743.521
145.643	14.194	982.309	743.305
146.658	14.135	980.938	741.938
147.673	14.124	980.090	741.182
148.687	14.240	979.014	740.820
149.702	14.163	978.689	740.168
150.716	14.021	977.862	738.843
151.731	14.068	977.469	738.688
152.746	14.193	976.659	738.566
153.760	14.065	976.370	737.715
154.775	14.311	975.192	737.850
155.789	14.324	974.421	737.261
156.804	14.150	973.969	736.082
157.819	14.208	973.148	735.653
158.833	14.342	972.532	735.714
159.848	14.416	971.546	735.228
160.862	14.311	970.924	734.230
161.877	14.179	970.291	733.105
162.892	14.266	968.920	732.386
163.906	14.208	967.757	731.188
164.921	14.264	967.290	731.018
165.935	14.306	966.277	730.371
166.950	14.360	964.716	729.362
167.964	14.251	964.522	728.676
168.979	14.245	963.730	727.988
169.994	14.305	962.719	727.418
171.008	14.277	961.915	726.628
172.023	14.444	961.201	726.751
173.037	14.452	960.304	726.041
174.052	14.344	959.851	725.167
175.067	14.258	959.060	724.128
176.081	14.231	958.951	723.866
177.096	14.405	957.831	723.712
178.110	14.555	957.240	723.855
179.125	14.512	956.805	723.275
180.140	14.463	956.027	722.407
181.154	14.513	955.717	722.330
182.169	14.520	954.946	721.711
183.183	14.501	954.397	721.151
184.198	14.645	953.519	721.047
185.213	14.506	953.104	720.069
186.227	14.578	952.233	719.657
187.242	14.529	951.762	719.024
188.256	14.636	950.971	718.823
189.271	14.609	950.284	718.126
190.286	14.554	949.581	717.296
191.300	14.428	949.085	716.316
192.315	14.529	947.880	715.775
193.329	14.520	947.773	715.593
194.344	14.647	946.748	715.301
195.359	14.496	946.630	714.502
196.373	14.544	945.792	714.010
197.388	14.699	945.126	714.108
198.402	14.605	945.148	713.658
199.417	14.850	944.017	713.790
200.432	14.753	943.309	712.774
201.446	14.675	943.168	712.274
202.461	14.802	942.461	712.218
203.475	14.790	942.012	711.765
204.490	14.862	940.996	711.239
205.504	14.862	940.067	710.475
206.519	14.909	939.323	710.048
207.534	14.884	939.122	709.727
208.548	14.774	938.217	708.515
209.563	14.794	937.356	707.885
210.577	14.943	936.669	707.937
211.592	14.984	936.012	707.551
212.607	14.926	935.320	706.721
213.621	14.966	934.924	706.528
214.636	15.045	933.983	706.085
215.650	14.983	933.251	705.209
216.665	15.103	932.068	704.760
217.680	15.008	931.901	704.168
218.694	15.005	931.001	703.416
219.709	14.884	930.863	702.741
220.723	14.983	929.917	702.378
221.738	15.119	929.034	702.219
222.753	15.164	928.471	701.921
223.767	15.112	928.367	701.563
224.782	15.075	927.710	700.849
225.796	15.256	926.959	700.976
226.811	15.235	925.928	700.045
227.826	15.156	925.541	699.361
228.840	15.188	924.794	698.868
229.855	15.200	923.740	698.061
230.869	15.053	923.112	696.913
231.884	15.064	922.492	696.429
232.899	15.197	921.365	696.070
233.913	15.146	920.774	695.351
234.928	15.211	920.087	695.038
235.942	15.256	919.821	694.963
236.957	15.160	919.184	694.022
237.972	15.255	918.211	693.621
238.986	15.163	918.094	693.089
240.001	15.154	917.204	692.319
241.015	15.199	916.543	691.942
242.030	15.163	916.095	691.395
243.045	15.264	915.441	691.259
244.059	15.138	915.248	690.533
245.074	15.232	914.231	690.092
246.088	15.282	913.591	689.750
247.103	15.361	912.826	689.437
248.117	15.341	912.026	688.690
249.132	15.450	911.662	688.804
250.147	15.428	910.973	688.131
251.161	15.528	910.114	687.830
252.176	15.445	909.803	687.195
253.190	15.541	908.924	686.865
254.205	15.531	908.129	686.162
255.220	15.504	907.643	685.620
256.234	15.590	906.610	685.133
257.249	15.685	905.778	684.830
258.263	15.682	905.136	684.272
259.278	15.805	904.138	683.955
260.293	15.679	904.177	683.411
261.307	15.813	903.702	683.538
262.322	15.660	903.051	682.365
263.336	15.922	901.871	682.475
264.351	15.945	901.220	682.015
265.366	15.857	900.521	681.068
266.380	15.915	900.288	681.068
267.395	15.832	899.837	680.331
268.409	15.829	898.487	679.236
269.424	15.783	897.758	678.440
270.439	15.858	896.926	678.055
271.453	15.917	896.358	677.800
272.468	15.855	896.256	677.417
273.482	15.735	895.823	676.545
274.497	15.920	894.777	676.437
275.512	15.913	894.217	675.928
276.526	16.001	893.871	675.960
277.541	15.880	893.261	674.952
278.555	15.877	892.841	674.564
279.570	16.036	892.093	674.575
280.585	16.130	890.961	674.036
281.599	15.989	890.494	673.059
282.614	16.092	889.922	672.980
283.628	16.122	889.508	672.726
284.643	16.106	888.581	671.901
285.657	16.119	887.809	671.308
286.672	16.168	887.390	671.127
287.687	16.135	886.941	670.598
288.701	16.096	886.296	669.897
289.716	16.168	885.563	669.571
290.730	16.184	885.108	669.230
291.745	16.166	884.404	668.567
292.760	16.297	883.831	668.593
293.774	16.225	883.153	667.735
294.789	16.179	882.851	667.265
295.803	16.256	881.834	666.741
296.818	16.214	881.071	665.940
297.833	16.309	880.160	665.568
298.847	16.299	879.806	665.204
299.862	16.335	878.968	664.651
300.876	16.441	878.384	664.567
301.891	16.463	878.230	664.480
302.906	16.456	877.168	663.591
303.920	16.656	876.791	664.032
304.935	16.495	876.429	663.065
305.949	16.382	875.853	662.130
306.964	16.610	874.843	662.200
307.979	16.482	874.593	661.451
308.993	16.533	874.009	661.151
310.008	16.541	873.422	660.677
311.022	16.562	872.688	660.148
312.037	16.613	871.948	659.728
313.052	16.516	871.476	658.935
314.066	16.419	871.188	658.280
315.081	16.393	870.537	657.627
316.095	16.552	869.794	657.629
317.110	16.622	869.017	657.255
318.125	16.572	868.435	656.561
319.139	16.562	868.110	656.217
320.154	16.614	867.496	655.898
321.168	16.651	867.148	655.722
322.183	16.714	866.241	655.221
323.197	16.624	865.999	654.632
324.212	16.669	865.229	654.164
325.227	16.600	864.850	653.555
326.241	16.596	864.499	653.217
327.256	16.693	863.725	652.946
328.270	16.691	863.402	652.638
329.285	16.691	862.282	651.733
330.300	16.772	861.987	651.763
331.314	16.759	861.035	650.938
332.329	16.723	861.018	650.729
333.343	16.667	860.898	650.362
334.358	16.895	860.050	650.543
335.373	16.856	859.616	650.007
336.387	16.872	859.190	649.686
337.402	16.890	859.126	649.652
338.416	16.866	858.853	649.293
339.431	16.964	858.310	649.204
340.446	17.060	857.581	648.961
341.460	17.073	856.973	648.492
342.475	17.017	856.781	648.075
343.489	17.014	856.509	647.801
344.504	16.981	855.886	647.145
345.519	17.134	855.293	647.225
346.533	17.201	854.883	647.110
347.548	17.101	854.189	646.149
348.562	17.118	853.736	645.812
349.577	16.951	853.348	644.829
350.592	17.067	852.530	644.593
351.606	16.958	851.923	643.665
352.621	17.195	850.885	643.720
353.635	17.044	850.667	642.926
354.650	17.079	850.198	642.646
355.665	17.133	849.434	642.216
356.679	17.118	848.689	641.541
357.694	17.155	847.833	640.975
358.708	17.155	847.253	640.483
359.723	17.190	847.046	640.398
360.738	17.284	846.208	640.065
361.752	17.338	845.350	639.563
362.767	17.380	845.236	639.578
363.781	17.302	844.716	638.834
364.796	17.408	844.124	638.727
365.810	17.365	843.500	638.038
366.825	17.373	842.932	637.583
367.840	17.429	842.795	637.631
368.854	17.446	842.515	637.427
369.869	17.296	841.990	636.412
370.883	17.483	841.227	636.477
371.898	17.633	840.898	636.732
372.913	17.573	840.699	636.302
373.927	17.580	840.031	635.766
374.942	17.453	839.801	635.062
375.956	17.585	839.038	634.920
376.971	17.630	838.762	634.823
377.986	17.621	838.305	634.389
379.000	17.696	837.850	634.267
380.015	17.753	837.240	633.960
381.029	17.748	836.635	633.429
382.044	17.669	836.367	632.875
383.059	17.793	835.469	632.600
384.073	17.719	834.683	631.675
385.088	17.613	834.625	631.180
386.102	17.684	833.712	630.697
387.117	17.685	833.129	630.204
388.132	17.637	832.860	629.770
389.146	17.717	832.198	629.508
390.161	17.784	831.678	629.307
391.175	17.954	831.005	629.368
392.190	17.895	830.528	628.732
393.205	17.924	830.210	628.541
394.219	17.809	830.183	628.044
395.234	17.802	829.449	627.407
396.248	17.692	828.997	626.606
397.263	17.860	828.535	626.820
398.278	17.903	827.896	626.438
399.292	17.810	827.740	625.923
400.307	17.728	827.275	625.214
401.321	17.844	826.757	625.191
402.336	17.897	826.170	624.887
403.350	18.007	825.693	624.873
404.365	17.820	825.587	624.054
405.380	18.028	824.724	624.107
406.394	18.082	824.233	623.878
407.409	18.147	823.753	623.694
408.423	18.134	823.431	623.350
409.438	18.149	823.120	623.114
410.453	18.116	822.661	622.592
411.467	18.021	822.437	622.020
412.482	18.155	821.812	621.981
413.496	18.231	821.459	621.933
414.511	18.168	821.277	621.510
415.526	18.157	820.514	620.841
416.540	18.165	820.128	620.521
417.555	18.198	819.284	619.948
418.569	18.437	818.923	620.485
419.584	18.298	818.693	619.753
420.599	18.341	818.320	619.572
421.613	107.689	1288.096	1453.880
422.628	93.173	1356.543	1453.962
