DTS Sentinel unit serial number:	SN413079Multiplexer serial number:	ORYXHardware model number:	OX4-SRSoftware version number:	ORYX F/W v4.00 Oryx Data Collector v3.7.2.0data status	okinstallation	princeton_trtdifferential loss correction	single-endedforward channel	channel 1reverse channel	N/Adate	2019/09/18time	23:18:35forward acquisition time	60.00reverse acquisition time	0.00gamma	496.2192k internal	0.2341k external	0.2341temperature offset calibration	1.0019default loss term (dB/km)	0.3790temperature slope calibration	1.0000multiplexer offset coefficient	1.0000multiplexer slope coefficient	1.0000fibre end	0.00T internal ref (°C)	23.87T ext. ref 1 (°C)	0.77T ext. ref 2 (°C)	17.09length (m)	temperature (°C)	Stokes	anti-Stokes-747.200	-42.127	0.177	0.091
-746.185	146.990	-0.111	0.149
-745.171	-200.000	0.005	-0.126
-744.156	19.567	-0.230	-0.185
-743.142	-104.440	0.160	-0.037
-742.127	800.000	-0.046	-0.175
-741.112	800.000	0.024	0.074
-740.098	66.426	-0.228	-0.232
-739.083	-32.808	-0.124	0.069
-738.069	79.940	0.340	0.366
-737.054	-112.646	0.117	-0.023
-736.039	-131.718	-0.493	0.065
-735.025	-27.883	0.204	0.118
-734.010	-200.000	0.012	-0.068
-732.996	2.014	-0.151	-0.109
-731.981	85.443	-0.207	0.228
-730.966	326.681	0.058	0.110
-729.952	-200.000	0.010	0.237
-728.937	17.644	-0.266	0.212
-727.923	788.175	0.022	0.062
-726.908	800.000	0.038	0.143
-725.894	597.614	0.048	-0.120
-724.879	52.664	-0.238	-0.228
-723.864	206.720	-0.047	0.073
-722.850	800.000	0.060	0.209
-721.835	-42.067	-0.187	-0.096
-720.821	-95.803	0.142	0.038
-719.806	-121.875	-0.177	-0.029
-718.791	36.456	0.338	-0.298
-717.777	121.964	-0.294	-0.367
-716.762	-154.127	-0.173	0.012
-715.748	-86.062	0.314	-0.097
-714.733	234.657	-0.212	0.349
-713.718	-68.585	-0.139	-0.054
-712.704	-53.367	0.291	0.133
-711.689	-117.313	-0.108	-0.020
-710.675	-101.115	-0.179	0.044
-709.660	800.000	-0.132	-0.401
-708.645	12.995	-0.172	-0.133
-707.631	440.308	-0.155	-0.338
-706.616	-32.297	0.079	0.044
-705.602	-200.000	-0.037	-0.163
-704.587	800.000	-0.102	-0.415
-703.572	11.485	0.137	0.105
-702.558	294.456	-0.107	0.196
-701.543	800.000	-0.016	-0.056
-700.529	800.000	-0.049	0.176
-699.514	-92.055	-0.201	-0.057
-698.499	-164.486	0.261	-0.012
-697.485	98.803	-0.101	0.116
-696.470	-188.895	0.207	0.003
-695.456	-65.538	0.221	-0.089
-694.441	-88.331	0.102	0.031
-693.426	-130.499	-0.229	-0.031
-692.412	-155.353	-0.087	0.006
-691.397	-200.000	0.009	0.204
-690.383	27.939	0.275	0.232
-689.368	605.441	0.031	-0.077
-688.354	161.958	-0.100	0.140
-687.339	6.095	0.198	-0.147
-686.324	-157.604	0.209	-0.012
-685.310	96.126	0.235	-0.269
-684.295	-200.000	-0.060	-0.434
-683.281	-36.588	-0.152	-0.082
-682.266	-200.000	0.004	0.132
-681.251	-200.000	0.033	-0.375
-680.237	631.449	-0.078	0.196
-679.222	-74.894	0.206	-0.074
-678.208	-168.254	0.207	0.008
-677.193	121.863	-0.095	0.119
-676.178	800.000	-0.099	0.369
-675.164	-200.000	0.116	-0.509
-674.149	-200.000	0.019	0.253
-673.135	-200.000	-0.008	0.186
-672.120	493.396	-0.044	-0.102
-671.105	492.324	-0.105	-0.240
-670.091	-200.000	-0.020	-0.127
-669.076	800.000	-0.072	0.224
-668.062	465.020	0.206	-0.461
-667.047	-179.111	-0.324	0.007
-666.032	-56.898	-0.382	-0.168
-665.018	50.190	0.062	-0.059
-664.003	-200.000	0.028	-0.141
-662.989	-127.963	0.180	0.026
-661.974	-69.175	-0.161	0.062
-660.959	800.000	0.039	-0.135
-659.945	-137.319	0.094	-0.011
-658.930	-130.024	0.197	-0.027
-657.916	-30.710	-0.374	-0.212
-656.901	-200.000	-0.064	-0.451
-655.886	108.405	-0.161	0.191
-654.872	608.451	0.056	-0.140
-653.857	-200.000	0.011	0.080
-652.843	44.701	-0.135	0.124
-651.828	-128.676	0.177	-0.025
-650.814	-117.450	-0.149	-0.027
-649.799	-200.000	-0.000	0.087
-648.784	238.584	0.134	0.222
-647.770	249.306	-0.044	-0.074
-646.755	-103.782	-0.206	0.048
-645.741	45.219	-0.018	0.016
-644.726	283.109	0.252	-0.452
-643.711	800.000	0.099	0.370
-642.697	800.000	0.100	0.298
-641.682	407.666	0.129	0.272
-640.668	79.987	-0.105	0.113
-639.653	-200.000	0.001	-0.170
-638.638	43.777	-0.235	-0.215
-637.624	142.114	-0.253	-0.335
-636.609	-44.433	0.194	-0.097
-635.595	385.014	-0.177	0.364
-634.580	0.953	0.147	0.105
-633.565	-200.000	0.030	-0.178
-632.551	414.935	0.135	-0.288
-631.536	-200.000	-0.038	-0.273
-630.522	-25.705	0.017	0.010
-629.507	11.525	0.184	0.140
-628.492	-11.297	0.306	0.201
-627.478	-200.000	0.037	0.412
-626.463	-47.340	0.028	-0.013
-625.449	-1.825	0.303	-0.213
-624.434	-134.363	-0.136	0.017
-623.419	-200.000	-0.016	0.114
-622.405	58.028	-0.082	-0.080
-621.390	800.000	0.078	0.336
-620.376	-103.119	0.178	-0.042
-619.361	74.097	0.138	-0.144
-618.346	94.402	-0.137	-0.155
-617.332	-200.000	0.036	0.204
-616.317	-200.000	0.013	0.097
-615.303	-200.000	0.066	-0.302
-614.288	-61.221	0.137	-0.058
-613.273	-120.772	-0.245	-0.041
-612.259	-168.929	-0.315	-0.012
-611.244	-14.062	-0.222	0.143
-610.230	19.798	-0.085	0.068
-609.215	800.000	-0.114	0.393
-608.201	-200.000	-0.019	0.264
-607.186	44.450	-0.113	-0.103
-606.171	121.565	-0.281	-0.349
-605.157	217.344	-0.100	-0.158
-604.142	-200.000	0.064	-0.316
-603.128	-87.860	0.323	-0.097
-602.113	283.942	0.142	-0.254
-601.098	171.181	-0.086	0.123
-600.084	799.946	0.079	-0.217
-599.069	-200.000	-0.005	-0.282
-598.055	383.718	-0.106	0.217
-597.040	-200.000	0.006	-0.317
-596.025	329.991	-0.088	-0.169
-595.011	-8.251	-0.230	-0.154
-593.996	-37.862	-0.063	-0.033
-592.982	-200.000	-0.034	-0.233
-591.967	-64.838	-0.147	0.059
-590.952	-52.138	0.159	0.073
-589.938	-31.476	0.304	-0.170
-588.923	-73.821	-0.147	0.053
-587.909	90.956	0.094	0.105
-586.894	108.981	0.298	0.355
-585.879	-67.725	-0.286	0.111
-584.865	693.259	0.044	0.116
-583.850	181.106	0.086	-0.126
-582.836	-200.000	-0.003	-0.274
-581.821	800.000	0.057	0.219
-580.806	-15.498	0.183	0.116
-579.792	681.595	-0.055	0.142
-578.777	-144.454	-0.047	0.004
-577.763	-4.175	-0.230	0.158
-576.748	-21.947	0.113	-0.068
-575.733	-105.718	0.277	0.062
-574.719	-27.658	0.190	-0.110
-573.704	206.458	-0.171	0.265
-572.690	-141.505	0.233	0.023
-571.675	-200.000	0.038	-0.356
-570.661	-200.000	0.007	-0.213
-569.646	406.290	0.065	-0.137
-568.631	-149.560	-0.355	0.028
-567.617	-200.000	-0.012	0.314
-566.602	-47.642	-0.176	0.085
-565.588	-200.000	-0.005	0.129
-564.573	-124.036	0.536	-0.084
-563.558	288.456	-0.227	-0.408
-562.544	800.000	0.071	0.212
-561.529	-134.123	-0.088	-0.011
-560.515	258.566	0.199	0.341
-559.500	-114.672	0.287	0.055
-558.485	-10.449	0.195	-0.129
-557.471	-200.000	0.021	-0.280
-556.456	-15.956	0.243	-0.154
-555.442	187.518	-0.219	0.325
-554.427	10.290	-0.271	-0.205
-553.412	-128.749	0.420	0.059
-552.398	340.939	0.207	-0.403
-551.383	400.273	0.125	-0.262
-550.369	176.646	-0.036	-0.051
-549.354	152.851	0.145	0.198
-548.339	-101.802	-0.184	-0.044
-547.325	-66.059	0.120	0.048
-546.310	-104.511	-0.275	-0.063
-545.296	-200.000	-0.008	0.081
-544.281	359.424	-0.020	-0.041
-543.266	-200.000	0.031	0.359
-542.252	483.230	-0.107	0.242
-541.237	-166.523	0.262	-0.011
-540.223	230.800	-0.143	0.233
-539.208	-200.000	-0.012	0.065
-538.193	-101.713	0.066	0.016
-537.179	-37.887	0.244	-0.129
-536.164	59.672	-0.142	0.139
-535.150	72.997	-0.058	-0.060
-534.135	-36.102	-0.148	0.079
-533.121	85.268	-0.319	-0.348
-532.106	17.242	-0.244	0.192
-531.091	784.997	-0.058	-0.157
-530.077	-172.445	0.310	0.010
-529.062	-200.000	-0.015	-0.192
-528.048	-200.000	-0.007	0.138
-527.033	-45.931	-0.127	0.062
-526.018	137.872	0.026	-0.034
-525.004	-200.000	0.032	-0.230
-523.989	140.817	0.206	0.270
-522.975	80.293	-0.127	-0.135
-521.960	15.476	0.234	0.183
-520.945	-180.865	-0.245	-0.005
-519.931	201.241	-0.068	0.104
-518.916	-61.955	0.134	0.056
-517.902	2.543	-0.336	-0.242
-516.887	-57.137	0.090	-0.039
-515.872	-110.125	0.264	-0.055
-514.858	-200.000	-0.028	0.125
-513.843	665.352	0.058	0.149
-512.829	5.443	-0.114	-0.084
-511.814	-11.450	-0.282	0.184
-510.799	-176.139	0.038	0.001
-509.785	-68.968	-0.223	0.085
-508.770	0.851	0.213	0.152
-507.756	-180.098	-0.134	0.003
-506.741	-200.000	0.006	-0.081
-505.726	516.698	0.092	0.213
-504.712	-200.000	-0.009	0.208
-503.697	157.421	-0.109	-0.150
-502.683	-200.000	-0.015	-0.204
-501.668	-200.000	-0.014	-0.070
-500.653	81.471	0.149	-0.159
-499.639	-51.347	-0.276	0.128
-498.624	30.660	0.224	0.190
-497.610	800.000	-0.066	0.244
-496.595	-200.000	0.012	0.274
-495.581	610.652	-0.036	-0.089
-494.566	90.746	0.132	0.147
-493.551	-131.763	-0.063	0.008
-492.537	800.000	-0.040	0.141
-491.522	17.558	-0.170	-0.134
-490.508	-23.494	0.316	-0.188
-489.493	-200.000	0.025	0.355
-488.478	-33.081	-0.021	0.012
-487.464	28.391	-0.255	-0.214
-486.449	-200.000	0.019	0.237
-485.435	-137.677	-0.131	-0.015
-484.420	-200.000	-0.002	0.378
-483.405	800.000	0.063	0.207
-482.391	-200.000	0.024	-0.181
-481.376	-99.062	-0.124	0.031
-480.362	-200.000	0.018	-0.134
-479.347	532.872	0.108	0.254
-478.332	-78.705	-0.253	0.086
-477.318	-200.000	-0.022	0.197
-476.303	-28.547	-0.053	-0.030
-475.289	-104.150	0.122	0.028
-474.274	34.752	-0.148	0.128
-473.259	-200.000	0.041	-0.293
-472.245	73.252	-0.160	-0.166
-471.230	80.158	0.171	-0.182
-470.216	-12.474	0.311	-0.202
-469.201	-123.996	-0.104	-0.016
-468.186	10.948	-0.164	0.124
-467.172	-118.835	-0.062	0.011
-466.157	41.121	-0.215	0.193
-465.143	32.165	0.146	0.125
-464.128	-200.000	-0.007	0.221
-463.113	-72.612	-0.095	0.035
-462.099	404.805	-0.084	0.176
-461.084	84.492	-0.147	0.159
-460.070	-102.204	-0.244	0.058
-459.055	-27.360	-0.198	-0.114
-458.040	800.000	-0.048	-0.192
-457.026	555.601	0.048	-0.114
-456.011	-200.000	-0.035	-0.220
-454.997	-49.252	-0.323	-0.153
-453.982	-130.108	0.156	-0.021
-452.968	-38.553	-0.398	0.208
-451.953	-121.341	-0.111	0.018
-450.938	-71.001	-0.220	0.082
-449.924	-109.525	-0.306	0.064
-448.909	112.329	-0.022	0.027
-447.895	292.743	-0.143	-0.258
-446.880	22.322	0.312	-0.253
-445.865	-200.000	0.036	0.278
-444.851	-200.000	-0.036	-0.231
-443.836	174.407	-0.295	-0.422
-442.822	-60.578	0.222	0.093
-441.807	126.782	-0.210	-0.263
-440.792	-200.000	0.021	0.126
-439.778	96.931	-0.026	-0.030
-438.763	-158.480	0.042	-0.002
-437.749	-135.408	0.135	-0.016
-436.734	-200.000	-0.000	-0.043
-435.719	-100.716	0.093	0.023
-434.705	-8.358	0.039	0.026
-433.690	800.000	0.025	-0.084
-432.676	70.124	-0.328	-0.335
-431.661	-157.209	-0.106	0.006
-430.646	50.907	-0.183	0.172
-429.632	-160.386	-0.150	0.008
-428.617	486.990	0.138	-0.312
-427.603	303.992	-0.244	0.449
-426.588	-19.103	-0.301	-0.185
-425.573	220.442	-0.204	-0.324
-424.559	38.375	0.213	-0.188
-423.544	-200.000	0.000	-0.185
-422.530	30.513	-0.153	-0.129
-421.515	800.000	0.036	-0.124
-420.500	-125.540	0.115	0.017
-419.486	800.000	-0.081	-0.302
-418.471	35.029	-0.208	-0.180
-417.457	-33.548	-0.020	0.011
-416.442	266.790	0.149	0.257
-415.428	130.073	0.145	-0.184
-414.413	23.790	0.141	-0.115
-413.398	53.288	0.070	-0.067
-412.384	-200.000	-0.043	-0.261
-411.369	-47.575	0.065	0.031
-410.355	-133.301	-0.242	-0.030
-409.340	-200.000	0.024	0.143
-408.325	-200.000	-0.023	-0.451
-407.311	-66.779	0.182	0.071
-406.296	87.174	0.230	-0.251
-405.282	-133.754	-0.077	-0.010
-404.267	-54.859	0.145	0.065
-403.252	89.002	0.202	-0.223
-402.238	-134.143	0.077	0.009
-401.223	-105.742	0.344	-0.077
-400.209	218.000	0.043	0.068
-399.194	800.000	0.056	0.200
-398.179	59.218	-0.052	-0.050
-397.165	-110.503	0.239	0.049
-396.150	-200.000	-0.001	0.055
-395.136	48.372	0.164	0.151
-394.121	-200.000	-0.002	-0.088
-393.106	-65.867	-0.032	-0.013
-392.092	177.129	0.119	-0.171
-391.077	10.480	0.284	0.214
-390.063	17.015	0.113	-0.089
-389.048	800.000	-0.025	-0.086
-388.033	-56.513	-0.250	-0.110
-387.019	-122.806	-0.055	0.009
-386.004	800.000	-0.159	-0.484
-384.990	-67.960	0.161	0.062
-383.975	69.701	-0.047	-0.047
-382.960	-33.944	-0.151	0.082
-381.946	-168.982	0.168	0.006
-380.931	-48.179	-0.424	0.202
-379.917	103.927	0.103	0.119
-378.902	232.041	0.191	-0.310
-377.888	79.642	-0.125	-0.132
-376.873	23.107	-0.306	0.248
-375.858	133.841	-0.143	0.183
-374.844	-200.000	0.079	-0.356
-373.829	71.630	0.184	-0.189
-372.815	-37.577	0.094	-0.049
-371.800	-139.882	0.175	-0.018
-370.785	316.733	-0.127	0.237
-369.771	224.895	-0.172	0.275
-368.756	-117.773	-0.115	-0.020
-367.742	524.785	0.063	0.147
-366.727	-8.872	-0.111	0.074
-365.712	-200.000	-0.030	0.250
-364.698	123.525	-0.034	0.042
-363.683	-200.000	-0.011	0.158
-362.669	-82.873	0.269	-0.086
-361.654	71.024	-0.139	0.142
-360.639	-42.428	0.288	-0.145
-359.625	224.494	-0.123	-0.197
-358.610	-47.230	0.341	0.164
-357.596	800.000	-0.067	0.205
-356.581	48.146	-0.090	0.083
-355.566	-119.339	-0.045	0.008
-354.552	-60.101	0.151	-0.064
-353.537	-27.012	0.088	0.051
-352.523	627.142	-0.086	-0.213
-351.508	-70.900	0.032	-0.012
-350.493	133.677	0.089	-0.114
-349.479	83.951	0.135	-0.145
-348.464	-200.000	0.007	-0.157
-347.450	-129.251	0.071	-0.010
-346.435	800.000	0.041	0.173
-345.420	800.000	0.069	-0.188
-344.406	-48.871	-0.338	-0.160
-343.391	98.822	0.187	-0.213
-342.377	-132.975	0.091	-0.011
-341.362	-78.969	0.045	0.015
-340.348	-130.130	0.055	0.007
-339.333	-122.277	0.123	-0.020
-338.318	-174.944	-0.122	0.003
-337.304	-150.152	0.223	-0.017
-336.289	-32.717	-0.069	0.038
-335.275	439.205	0.150	0.322
-334.260	33.985	0.244	0.210
-333.245	-79.580	0.308	0.102
-332.231	-190.076	0.091	0.001
-331.216	-200.000	0.026	-0.296
-330.202	800.000	-0.046	-0.138
-329.187	-66.769	-0.088	0.034
-328.172	9.879	0.077	0.057
-327.158	51.945	-0.096	0.090
-326.143	-23.544	0.062	-0.037
-325.129	-119.945	0.266	0.045
-324.114	322.554	-0.064	0.120
-323.099	138.201	0.161	0.208
-322.085	-90.041	-0.215	0.062
-321.070	-200.000	0.003	0.186
-320.056	-20.704	-0.105	0.063
-319.041	482.477	-0.044	0.098
-318.026	-200.000	0.055	0.421
-317.012	251.400	0.095	0.160
-315.997	437.333	0.134	0.287
-314.983	684.943	-0.010	-0.025
-313.968	-64.890	-0.145	-0.058
-312.953	-117.976	-0.161	-0.028
-311.939	-172.059	-0.010	-0.000
-310.924	-200.000	0.008	0.101
-309.910	11.224	-0.033	-0.025
-308.895	150.111	0.299	0.400
-307.880	-169.091	0.278	0.010
-306.866	-200.000	-0.011	-0.060
-305.851	-200.000	-0.069	0.297
-304.837	-147.289	-0.401	0.034
-303.822	124.608	-0.038	0.047
-302.807	-29.329	0.296	0.167
-301.793	800.000	-0.032	-0.108
-300.778	-35.319	0.130	-0.070
-299.764	-200.000	-0.042	0.424
-298.749	-89.573	0.126	-0.036
-297.735	-200.000	-0.071	-0.469
-296.720	-91.826	0.113	0.032
-295.705	142.542	-0.086	0.112
-294.691	-51.537	-0.339	-0.156
-293.676	-200.000	-0.011	-0.189
-292.662	-200.000	-0.021	0.179
-291.647	25.690	-0.250	-0.205
-290.632	14.654	0.148	0.114
-289.618	86.879	-0.132	0.144
-288.603	-200.000	0.008	-0.054
-287.589	141.167	0.086	0.112
-286.574	-183.678	-0.193	0.003
-285.559	-56.616	0.148	-0.064
-284.545	-13.274	0.134	-0.086
-283.530	-66.349	-0.220	0.086
-282.516	56.149	-0.178	-0.170
-281.501	70.931	0.121	0.123
-280.486	-200.000	-0.020	0.217
-279.472	-129.357	-0.269	-0.037
-278.457	-71.635	0.359	-0.132
-277.443	38.562	-0.238	-0.208
-276.428	21.715	0.065	-0.052
-275.413	-200.000	0.040	0.225
-274.399	-118.235	0.069	0.012
-273.384	450.095	0.101	0.219
-272.370	796.161	0.038	0.103
-271.355	159.637	-0.259	-0.355
-270.340	9.737	0.070	-0.053
-269.326	34.984	-0.113	-0.098
-268.311	-18.257	-0.280	-0.172
-267.297	-200.000	0.010	-0.050
-266.282	-36.258	0.132	-0.070
-265.267	8.940	-0.101	-0.075
-264.253	800.000	-0.064	0.185
-263.238	-141.978	0.126	-0.012
-262.224	-200.000	-0.027	-0.350
-261.209	-146.718	-0.068	-0.006
-260.195	-115.223	0.081	0.015
-259.180	49.148	0.218	-0.201
-258.165	331.734	-0.100	0.190
-257.151	14.512	-0.088	0.067
-256.136	393.980	-0.044	0.091
-255.122	-94.319	0.235	0.063
-254.107	415.213	-0.061	0.129
-253.092	139.491	-0.102	-0.132
-252.078	17.780	0.161	0.126
-251.063	-60.613	-0.072	0.030
-250.049	-63.838	-0.127	0.051
-249.034	800.000	0.120	-0.424
-248.019	557.325	-0.173	-0.409
-247.005	-200.000	0.012	-0.110
-245.990	-87.262	-0.035	0.010
-244.976	69.661	0.046	0.047
-243.961	800.000	-0.059	0.184
-242.946	800.000	0.068	0.239
-241.932	71.989	-0.203	-0.208
-240.917	-85.129	0.138	-0.042
-239.903	-200.000	0.017	-0.263
-238.888	2.625	0.266	-0.189
-237.873	735.916	-0.068	0.180
-236.859	-200.000	-0.009	0.171
-235.844	56.896	0.089	0.085
-234.830	-56.296	0.210	-0.092
-233.815	64.109	-0.245	-0.242
-232.800	159.255	-0.066	0.090
-231.786	187.178	-0.210	0.307
-230.771	-133.573	0.442	-0.054
-229.757	-6.160	-0.234	0.157
-228.742	198.918	-0.126	0.189
-227.727	-37.316	-0.226	0.119
-226.713	-200.000	-0.073	-0.402
-225.698	-107.389	0.201	-0.043
-224.684	-156.909	0.100	0.006
-223.669	301.756	0.047	0.085
-222.655	515.628	0.127	0.292
-221.640	-1.729	0.456	0.315
-220.625	793.265	0.090	0.244
-219.611	-119.689	0.212	0.036
-218.596	-200.000	-0.009	-0.039
-217.582	25.926	-0.099	-0.081
-216.567	-200.000	-0.010	-0.286
-215.552	-200.000	0.012	-0.343
-214.538	102.770	-0.112	0.129
-213.523	-19.324	-0.240	0.146
-212.509	-200.000	-0.007	0.172
-211.494	-155.490	0.239	-0.015
-210.479	317.086	-0.125	0.231
-209.465	63.664	-0.127	0.125
-208.450	-12.886	0.161	0.103
-207.436	-200.000	0.042	0.187
-206.421	207.700	-0.095	0.146
-205.406	-100.340	0.182	-0.044
-204.392	-23.787	-0.043	0.025
-203.377	84.683	0.159	-0.170
-202.363	-91.845	0.281	0.078
-201.348	800.000	-0.090	-0.258
-200.333	800.000	-0.105	-0.416
-199.319	-69.434	-0.176	-0.066
-198.304	135.832	0.120	0.153
-197.290	-200.000	-0.001	0.200
-196.275	194.214	0.093	0.139
-195.260	-73.871	-0.173	0.062
-194.246	131.559	0.211	0.266
-193.231	800.000	0.025	-0.073
-192.217	-119.877	0.139	-0.023
-191.202	9.089	0.089	0.066
-190.187	-89.506	0.092	0.026
-189.173	28.899	-0.025	-0.021
-188.158	-104.330	0.183	0.042
-187.144	-123.901	0.256	0.040
-186.129	-52.404	-0.247	0.112
-185.114	-200.000	0.001	-0.294
-184.100	-200.000	0.010	-0.178
-183.085	-200.000	0.046	-0.286
-182.071	69.408	-0.362	-0.365
-181.056	-200.000	0.013	0.288
-180.042	-24.408	0.186	-0.108
-179.027	-54.043	0.007	0.003
-178.012	515.643	-0.030	-0.068
-176.998	-200.000	-0.022	0.122
-175.983	112.199	-0.290	0.344
-174.969	65.891	-0.053	-0.053
-173.954	120.725	-0.040	-0.048
-172.939	626.206	0.023	-0.056
-171.925	224.356	-0.112	0.177
-170.910	147.103	-0.159	-0.209
-169.896	26.220	-0.291	0.238
-168.881	-200.000	0.080	-0.371
-167.866	-28.011	0.097	-0.055
-166.852	-135.789	-0.200	-0.023
-165.837	13.745	-0.142	-0.108
-164.823	-200.000	0.014	0.105
-163.808	-200.000	-0.074	0.422
-162.793	144.502	0.132	0.173
-161.779	-113.087	-0.276	-0.053
-160.764	-108.475	0.186	0.039
-159.750	-75.810	0.044	0.015
-158.735	108.634	-0.168	-0.197
-157.720	800.000	0.056	-0.214
-156.706	-67.986	-0.049	-0.019
-155.691	-112.191	0.186	0.037
-154.677	-150.430	0.229	-0.017
-153.662	83.076	-0.138	-0.147
-152.647	-48.175	0.184	-0.087
-151.633	-70.101	-0.212	0.079
-150.618	-200.000	-0.023	0.292
-149.604	-200.000	-0.006	0.050
-148.589	-134.881	0.236	-0.028
-147.574	48.681	-0.237	-0.217
-146.560	-130.410	0.133	0.018
-145.545	-200.000	0.027	-0.365
-144.531	-67.974	0.326	-0.125
-143.516	-8.162	-0.296	0.195
-142.502	186.316	-0.033	0.048
-141.487	800.000	0.054	0.145
-140.472	-200.000	-0.014	0.243
-139.458	90.377	-0.209	-0.229
-138.443	-159.292	-0.184	0.010
-137.429	36.861	0.030	-0.026
-136.414	-30.555	-0.284	-0.158
-135.399	33.256	-0.196	0.166
-134.385	371.575	-0.122	-0.242
-133.370	800.000	-0.167	0.553
-132.356	-72.531	0.137	-0.049
-131.341	249.820	-0.098	0.163
-130.326	-168.791	-0.060	0.002
-129.312	189.732	-0.367	-0.538
-128.297	15.671	0.403	0.310
-127.283	-110.123	-0.116	0.024
-126.268	138.077	0.080	0.102
-125.253	-173.520	-0.115	0.003
-124.239	79.944	0.201	-0.211
-123.224	-78.792	0.084	0.028
-122.210	800.000	-0.136	0.443
-121.195	-200.000	0.067	0.348
-120.180	800.000	0.047	0.133
-119.166	-91.753	-0.375	-0.104
-118.151	-63.820	0.264	-0.106
-117.137	800.000	-0.135	0.479
-116.122	12.223	0.151	0.113
-115.107	800.000	0.104	-0.346
-114.093	-8.671	-0.411	0.270
-113.078	-30.937	0.198	-0.110
-112.064	-121.973	0.157	0.025
-111.049	-200.000	0.018	0.148
-110.034	-174.334	-0.247	0.007
-109.020	800.000	-0.045	-0.156
-108.005	800.000	0.032	0.087
-106.991	-200.000	-0.027	-0.117
-105.976	49.235	0.201	0.184
-104.962	59.376	0.081	0.078
-103.947	-131.626	-0.128	-0.016
-102.932	398.854	0.077	0.158
-101.918	800.000	-0.013	0.043
-100.903	360.690	-0.148	0.289
-99.889	151.168	-0.122	-0.163
-98.874	-163.870	-0.185	0.008
-97.859	188.551	-0.148	-0.217
-96.845	-200.000	-0.048	0.207
-95.830	-58.814	0.261	0.110
-94.816	134.623	-0.149	0.189
-93.801	-200.000	-0.052	0.255
-92.786	-200.000	-0.035	-0.171
-91.772	-143.803	-0.373	-0.034
-90.757	119.412	0.235	0.284
-89.743	40.782	-0.365	0.321
-88.728	-1.703	0.175	-0.120
-87.713	8.882	0.046	0.034
-86.699	450.140	-0.139	-0.299
-85.684	-200.000	-0.003	0.139
-84.670	-55.813	-0.313	-0.137
-83.655	62.377	-0.186	-0.182
-82.640	-52.660	-0.296	0.134
-81.626	-44.728	0.068	-0.033
-80.611	-127.355	-0.204	-0.029
-79.597	-170.505	0.043	0.001
-78.582	-14.108	0.092	-0.058
-77.567	800.000	-0.042	0.123
-76.553	-107.013	-0.103	-0.022
-75.538	-200.000	-0.046	0.323
-74.524	-159.083	-0.364	-0.020
-73.509	-24.231	0.173	0.101
-72.494	800.000	-0.166	-0.471
-71.480	-46.395	-0.297	-0.142
-70.465	40.595	-0.074	0.065
-69.451	-200.000	0.053	0.457
-68.436	134.269	-0.079	0.100
-67.422	-177.887	-0.203	0.005
-66.407	-200.000	-0.012	0.229
-65.392	-200.000	0.003	-0.054
-64.378	91.995	-0.186	0.205
-63.363	800.000	-0.089	0.308
-62.349	59.327	0.165	0.158
-61.334	90.114	-1.019	-1.111
-60.319	249.497	0.676	1.119
-59.305	800.000	-0.368	-1.034
-58.290	440.791	0.764	1.629
-57.276	617.426	0.662	1.620
-56.261	-200.000	123.874	664.341
-55.246	436.854	1551.981	3297.786
-54.232	146.050	2703.651	3537.610
-53.217	98.783	2145.269	2414.855
-52.203	35.404	1583.997	1355.595
-51.188	27.142	1329.083	1088.161
-50.173	24.613	1291.465	1042.586
-49.159	52.611	1360.780	1267.661
-48.144	49.670	1371.778	1260.249
-47.130	27.268	1320.212	1081.477
-46.115	24.042	1300.864	1046.649
-45.100	23.862	1295.801	1041.480
-44.086	23.721	1293.830	1039.029
-43.071	23.771	1291.414	1037.341
-42.057	23.738	1288.947	1035.126
-41.042	23.655	1288.013	1033.854
-40.027	23.739	1286.379	1032.986
-39.013	23.718	1284.280	1031.139
-37.998	23.704	1282.558	1029.634
-36.984	23.743	1281.168	1028.701
-35.969	23.794	1279.536	1027.648
-34.954	23.931	1277.729	1026.946
-33.940	23.790	1276.328	1024.967
-32.925	23.932	1275.065	1024.731
-31.911	24.006	1273.610	1023.946
-30.896	24.063	1272.347	1023.218
-29.881	24.033	1271.249	1022.120
-28.867	24.063	1269.502	1020.845
-27.852	24.015	1268.002	1019.329
-26.838	24.099	1267.048	1019.000
-25.823	24.086	1265.571	1017.698
-24.809	23.890	1264.736	1015.867
-23.794	24.005	1262.575	1014.748
-22.779	23.984	1261.929	1014.066
-21.765	23.991	1260.315	1012.768
-20.750	23.972	1259.094	1011.641
-19.736	23.905	1257.998	1010.336
-18.721	23.860	1257.173	1009.379
-17.706	23.825	1256.132	1008.304
-16.692	23.862	1254.779	1007.391
-15.677	23.783	1253.675	1006.016
-14.663	23.794	1252.400	1005.016
-13.648	23.766	1251.326	1003.954
-12.633	23.892	1250.092	1003.634
-11.619	23.758	1249.814	1002.620
-10.604	23.754	1249.082	1001.968
-9.590	23.785	1248.069	1001.292
-8.575	23.777	1246.949	1000.305
-7.560	23.713	1246.041	999.177
-6.546	23.827	1245.161	999.076
-5.531	23.858	1244.384	998.582
-4.517	23.868	1243.574	997.951
-3.502	23.765	1243.085	996.942
-2.487	23.854	1241.873	996.428
-1.473	23.620	1237.676	991.712
-0.458	22.083	1222.264	970.838
0.556	17.507	1206.863	933.215
1.571	13.764	1214.587	918.419
2.586	12.949	1229.634	925.143
3.600	12.929	1217.278	915.656
4.615	9.614	1146.636	845.082
5.629	3.625	1077.066	764.163
6.644	0.949	1059.720	738.744
7.659	0.683	1058.286	736.381
8.673	0.714	1057.343	735.813
9.688	0.745	1055.842	734.853
10.702	0.902	1053.607	733.995
11.717	4.519	1057.469	754.202
12.731	11.302	1066.299	793.537
13.746	16.186	1071.895	821.466
14.761	17.436	1073.230	828.506
15.775	16.586	1072.021	823.366
16.790	15.610	1070.091	817.069
17.804	15.027	1068.361	812.844
18.819	14.566	1067.498	809.876
19.834	14.394	1066.213	807.997
20.848	14.087	1065.712	806.056
21.863	13.885	1064.303	803.941
22.877	13.746	1064.038	803.000
23.892	13.739	1062.999	802.111
24.907	13.739	1062.377	801.571
25.921	13.687	1061.924	800.907
26.936	13.737	1061.101	800.454
27.950	13.721	1059.838	799.356
28.965	13.899	1058.738	799.311
29.980	14.010	1056.908	798.391
30.994	14.084	1055.946	797.950
32.009	13.969	1055.060	796.656
33.023	13.940	1054.085	795.713
34.038	13.879	1053.424	794.849
35.053	13.876	1052.464	794.044
36.067	13.888	1051.684	793.440
37.082	13.855	1050.722	792.489
38.096	13.890	1050.251	792.230
39.111	13.930	1049.156	791.523
40.126	13.787	1048.474	790.260
41.140	13.750	1047.027	788.922
42.155	13.748	1045.990	788.061
43.169	13.713	1044.834	786.955
44.184	13.722	1043.773	786.127
45.199	13.724	1042.994	785.483
46.213	13.875	1041.463	784.974
47.228	13.775	1040.452	783.671
48.242	13.819	1039.562	783.138
49.257	13.797	1038.357	782.056
50.271	13.913	1037.573	781.940
51.286	13.988	1036.815	781.657
52.301	13.806	1036.188	780.257
53.315	13.862	1034.949	779.519
54.330	13.840	1033.992	778.626
55.344	13.748	1033.282	777.589
56.359	13.760	1032.694	777.135
57.374	13.721	1032.295	776.583
58.388	13.696	1030.633	775.148
59.403	13.776	1030.019	774.992
60.417	13.691	1029.336	774.013
61.432	13.664	1028.278	773.021
62.447	13.788	1027.378	772.853
63.461	13.604	1027.211	771.803
64.476	13.729	1025.795	771.252
65.490	13.702	1024.826	770.330
66.505	13.640	1024.486	769.721
67.520	13.813	1023.572	769.769
68.534	13.768	1023.068	769.111
69.549	13.731	1022.243	768.253
70.563	13.756	1021.633	767.843
71.578	13.733	1020.548	766.852
72.593	13.609	1020.430	766.119
73.607	13.698	1018.920	765.332
74.622	13.606	1018.802	764.749
75.636	13.572	1018.147	764.035
76.651	13.602	1017.188	763.387
77.666	13.654	1016.883	763.329
78.680	13.578	1016.244	762.430
79.695	13.562	1015.370	761.632
80.709	13.692	1014.471	761.488
81.724	13.758	1013.798	761.221
82.739	13.850	1012.778	760.810
83.753	13.834	1012.225	760.254
84.768	13.870	1011.636	759.908
85.782	13.907	1010.218	758.946
86.797	13.899	1009.386	758.213
87.812	13.761	1008.502	756.853
88.826	13.768	1007.577	756.125
89.841	13.899	1006.491	755.839
90.855	13.913	1005.797	755.316
91.870	13.926	1005.103	754.786
92.884	13.787	1004.352	753.527
93.899	13.804	1003.384	752.807
94.914	13.888	1002.696	752.609
95.928	14.001	1001.383	752.067
96.943	13.868	1001.143	751.218
97.957	13.711	1000.923	750.277
98.972	13.978	999.200	750.123
99.987	13.967	998.049	749.143
101.001	13.772	997.541	747.816
102.016	13.883	996.293	747.313
103.030	13.982	995.781	747.311
104.045	13.823	994.973	745.921
105.060	13.898	993.935	745.415
106.074	13.847	993.330	744.668
107.089	13.798	992.327	743.630
108.103	13.848	991.450	743.129
109.118	13.935	990.166	742.490
110.133	13.788	989.629	741.365
111.147	13.807	988.635	740.641
112.162	13.832	988.416	740.524
113.176	13.905	987.227	739.892
114.191	13.975	986.502	739.593
115.206	13.879	985.834	738.604
116.220	13.922	984.927	738.047
117.235	13.830	984.123	736.972
118.249	13.935	982.855	736.423
119.264	13.921	982.220	735.818
120.279	13.909	981.523	735.180
121.293	13.851	980.538	734.117
122.308	13.862	979.837	733.579
123.322	13.776	979.095	732.579
124.337	13.847	977.725	731.800
125.352	13.915	976.668	731.245
126.366	13.960	975.253	730.319
127.381	13.782	974.935	729.235
128.395	13.864	973.930	728.778
129.410	13.884	972.996	728.100
130.424	13.844	972.447	727.451
131.439	13.841	971.726	726.834
132.454	13.890	970.563	726.115
133.468	13.880	969.417	725.151
134.483	13.948	968.511	724.703
135.497	13.805	968.109	723.714
136.512	13.942	967.448	723.754
137.527	13.855	965.973	722.206
138.541	13.939	965.385	722.070
139.556	13.864	964.792	721.238
140.570	13.948	964.371	721.224
141.585	14.132	962.678	720.689
142.600	14.057	962.135	719.894
143.614	14.010	961.613	719.236
144.629	14.146	960.961	719.273
145.643	14.008	959.804	717.749
146.658	14.001	959.015	717.065
147.673	13.939	958.244	716.158
148.687	13.868	957.847	715.492
149.702	13.997	956.673	715.105
150.716	14.047	955.720	714.545
151.731	13.959	955.069	713.617
152.746	14.109	953.800	713.252
153.760	14.062	953.301	712.611
154.775	14.048	952.870	712.166
155.789	14.132	952.416	712.124
156.804	14.195	951.513	711.657
157.819	14.167	951.238	711.268
158.833	14.236	950.225	710.743
159.848	14.146	949.494	709.747
160.862	14.070	948.830	708.867
161.877	14.176	947.701	708.411
162.892	14.138	946.566	707.336
163.906	14.171	945.825	706.861
164.921	14.172	945.171	706.317
165.935	14.079	944.565	705.405
166.950	14.184	943.409	704.923
167.964	14.268	942.517	704.552
168.979	14.318	941.608	704.020
169.994	14.346	940.621	703.339
171.008	14.423	940.048	703.171
172.023	14.407	939.420	702.572
173.037	14.353	938.787	701.811
174.052	14.408	938.141	701.498
175.067	14.116	938.069	700.152
176.081	14.172	937.326	699.772
177.096	14.068	936.633	698.752
178.110	14.254	936.077	699.060
179.125	14.208	935.667	698.499
180.140	14.370	934.918	698.557
181.154	14.490	933.899	698.233
182.169	14.382	933.682	697.558
183.183	14.389	933.374	697.298
184.198	14.460	932.095	696.577
185.213	14.415	931.540	695.910
186.227	14.429	930.750	695.317
187.242	14.419	930.173	694.782
188.256	14.594	929.507	694.954
189.271	14.513	928.507	693.806
190.286	14.454	927.988	693.112
191.300	14.294	927.589	692.089
192.315	14.453	926.383	691.785
193.329	14.426	926.116	691.417
194.344	14.421	925.459	690.842
195.359	14.473	924.810	690.512
196.373	14.517	924.387	690.318
197.388	14.671	923.601	690.308
198.402	14.674	923.108	689.889
199.417	14.696	922.520	689.480
200.432	14.700	922.119	689.137
201.446	14.773	921.492	688.905
202.461	14.748	920.990	688.366
203.475	14.770	920.384	687.942
204.490	14.648	920.059	687.139
205.504	14.871	918.643	686.938
206.519	14.700	918.420	686.006
207.534	14.680	917.818	685.413
208.548	14.737	916.932	684.927
209.563	14.804	916.199	684.590
210.577	14.829	915.803	684.336
211.592	14.745	915.037	683.359
212.607	14.927	914.073	683.326
213.621	14.799	913.641	682.420
214.636	14.964	912.647	682.290
215.650	14.939	912.057	681.685
216.665	15.009	911.009	681.125
217.680	14.928	910.869	680.631
218.694	14.984	910.142	680.258
219.709	15.071	909.199	679.844
220.723	14.945	909.265	679.323
221.738	14.805	908.410	678.056
222.753	14.932	907.602	677.905
223.767	15.052	906.691	677.653
224.782	15.037	906.175	677.148
225.796	15.035	905.740	676.751
226.811	14.947	905.258	675.978
227.826	15.086	904.511	675.921
228.840	14.992	903.727	674.896
229.855	15.012	902.837	674.252
230.869	15.083	902.320	674.092
231.884	15.124	901.528	673.607
232.899	15.030	900.698	672.550
233.913	14.878	900.592	671.797
234.928	14.978	899.642	671.432
235.942	15.207	898.765	671.637
236.957	15.201	898.294	671.199
237.972	15.119	897.689	670.363
238.986	15.106	897.084	669.797
240.001	15.089	896.372	669.139
241.015	15.146	895.730	668.830
242.030	15.052	895.297	668.071
243.045	15.165	894.227	667.665
244.059	15.292	893.840	667.822
245.074	15.219	893.344	667.101
246.088	15.111	893.300	666.581
247.103	15.294	892.362	666.547
248.117	15.288	891.770	666.024
249.132	15.373	891.179	665.861
250.147	15.331	890.410	665.062
251.161	15.359	889.858	664.702
252.176	15.443	888.919	664.273
253.190	15.667	887.959	664.382
254.205	15.519	887.809	663.626
255.220	15.490	887.269	663.050
256.234	15.572	886.243	662.548
257.249	15.447	886.131	661.910
258.263	15.521	884.852	661.189
259.278	15.532	884.274	660.744
260.293	15.643	883.844	660.801
261.307	15.561	883.394	660.082
262.322	15.775	882.178	659.953
263.336	15.769	881.673	659.496
264.351	15.696	881.284	658.857
265.366	15.757	880.818	658.691
266.380	15.860	880.015	658.437
267.395	15.815	879.413	657.750
268.409	15.776	878.494	656.855
269.424	15.748	878.353	656.580
270.439	15.761	877.045	655.593
271.453	15.748	876.427	655.025
272.468	15.785	875.971	654.769
273.482	15.816	875.929	654.802
274.497	15.888	874.682	654.092
275.512	15.805	874.451	653.537
276.526	15.852	874.106	653.403
277.541	15.866	873.458	652.917
278.555	15.923	872.600	652.437
279.570	15.935	872.380	652.261
280.585	15.812	871.608	651.153
281.599	16.061	870.491	651.221
282.614	15.808	870.109	649.900
283.628	15.871	869.806	649.861
284.643	16.014	868.971	649.730
285.657	15.992	868.366	649.137
286.672	16.001	867.392	648.387
287.687	16.054	866.933	648.190
288.701	16.053	866.464	647.778
289.716	15.983	866.039	647.131
290.730	15.964	865.487	646.590
291.745	16.134	864.432	646.395
292.760	16.269	863.814	646.396
293.774	16.210	863.387	645.792
294.789	16.185	862.961	645.320
295.803	16.151	861.849	644.301
296.818	16.170	861.288	643.898
297.833	16.152	860.754	643.371
298.847	16.205	860.453	643.294
299.862	16.111	859.899	642.462
300.876	16.306	859.314	642.713
301.891	16.394	858.279	642.216
302.906	16.209	858.006	641.252
303.920	16.488	857.317	641.738
304.935	16.329	856.985	640.830
305.949	16.327	856.350	640.292
306.964	16.389	855.629	639.929
307.979	16.443	854.969	639.587
308.993	16.445	854.198	638.957
310.008	16.379	853.878	638.414
311.022	16.429	853.195	638.034
312.037	16.482	852.698	637.807
313.052	16.415	852.007	636.981
314.066	16.389	851.713	636.608
315.081	16.342	851.378	636.124
316.095	16.443	850.396	635.714
317.110	16.399	849.539	634.852
318.125	16.371	849.692	634.805
319.139	16.423	848.983	634.411
320.154	16.662	848.118	634.608
321.168	16.560	847.854	633.970
322.183	16.570	847.137	633.415
323.197	16.498	846.988	632.978
324.212	16.640	846.107	632.796
325.227	16.506	845.690	631.926
326.241	16.587	844.944	631.616
327.256	16.626	844.708	631.529
328.270	16.489	843.905	630.362
329.285	16.636	843.108	630.260
330.300	16.619	842.799	629.910
331.314	16.623	842.571	629.699
332.329	16.620	841.978	629.187
333.343	16.714	841.041	628.782
334.358	16.602	840.993	628.273
335.373	16.763	840.190	628.217
336.387	16.717	840.395	628.140
337.402	16.746	839.942	627.857
338.416	16.827	839.111	627.477
339.431	16.739	839.257	627.205
340.446	16.923	838.528	627.288
341.460	16.842	838.370	626.812
342.475	16.768	837.671	625.963
343.489	16.915	837.349	626.211
344.504	16.985	837.001	626.150
345.519	16.998	836.555	625.812
346.533	16.992	835.711	625.101
347.548	17.077	835.075	624.885
348.562	16.833	834.867	623.773
349.577	16.874	834.231	623.396
350.592	17.030	833.448	623.330
351.606	17.057	832.579	622.722
352.621	17.008	832.194	622.198
353.635	16.891	831.885	621.484
354.650	17.048	831.204	621.494
355.665	17.070	830.505	620.997
356.679	17.194	829.613	620.729
357.694	17.169	828.606	619.830
358.708	17.229	828.226	619.708
359.723	17.106	828.157	619.156
360.738	17.160	827.412	618.740
361.752	17.192	826.866	618.395
362.767	17.166	826.583	618.033
363.781	17.177	825.925	617.525
364.796	17.199	825.265	617.059
365.810	17.286	824.819	616.985
366.825	17.404	824.452	617.084
367.840	17.352	823.938	616.456
368.854	17.344	823.838	616.300
369.869	17.480	822.940	616.064
370.883	17.383	822.823	615.571
371.898	17.359	822.639	615.291
372.913	17.446	821.888	614.990
373.927	17.598	821.091	614.889
374.942	17.478	820.972	614.312
375.956	17.576	820.383	614.168
376.971	17.636	820.081	614.107
377.986	17.507	819.877	613.435
379.000	17.619	819.339	613.381
380.015	17.582	818.542	612.596
381.029	17.642	818.186	612.489
382.044	17.627	817.633	611.970
383.059	17.573	816.640	610.979
384.073	17.518	816.380	610.531
385.088	17.438	816.508	610.285
386.102	17.601	815.386	609.977
387.117	17.530	814.877	609.288
388.132	17.718	814.348	609.510
389.146	17.693	813.644	608.843
390.161	17.650	813.451	608.488
391.175	17.659	812.834	608.007
392.190	17.746	812.230	607.810
393.205	17.671	811.974	607.298
394.219	17.656	811.538	606.864
395.234	17.700	811.132	606.663
396.248	17.587	810.896	606.032
397.263	17.696	810.215	605.856
398.278	17.682	810.084	605.655
399.292	17.695	809.697	605.360
400.307	17.840	808.913	605.232
401.321	17.785	808.504	604.678
402.336	17.689	808.229	604.078
403.350	17.742	807.715	603.828
404.365	18.008	806.822	604.050
405.380	17.923	806.435	603.405
406.394	17.994	806.097	603.349
407.409	17.810	806.047	602.611
408.423	18.000	805.392	602.737
409.438	18.169	804.601	602.688
410.453	18.105	804.395	602.254
411.467	18.131	803.963	601.968
412.482	17.935	803.636	600.980
413.496	17.974	803.547	601.000
414.511	18.234	802.605	601.154
415.526	18.184	802.402	600.774
416.540	18.220	801.763	600.370
417.555	18.280	801.468	600.303
418.569	18.301	800.994	599.971
419.584	18.171	800.754	599.281
420.599	18.161	800.419	598.944
421.613	115.860	1298.517	1490.289
422.628	100.001	1371.041	1490.358
