DTS Sentinel unit serial number:	SN413079Multiplexer serial number:	ORYXHardware model number:	OX4-SRSoftware version number:	ORYX F/W v4.00 Oryx Data Collector v3.7.2.0data status	okinstallation	princeton_trtdifferential loss correction	single-endedforward channel	channel 1reverse channel	N/Adate	2019/09/18time	03:22:35forward acquisition time	60.00reverse acquisition time	0.00gamma	496.2192k internal	0.2340k external	0.2340temperature offset calibration	0.9977default loss term (dB/km)	0.3790temperature slope calibration	1.0000multiplexer offset coefficient	1.0000multiplexer slope coefficient	1.0000fibre end	0.00T internal ref (°C)	22.75T ext. ref 1 (°C)	0.17T ext. ref 2 (°C)	17.04length (m)	temperature (°C)	Stokes	anti-Stokes-747.200	391.605	0.084	0.176
-746.185	-152.988	0.386	-0.027
-745.171	-200.000	0.006	0.240
-744.156	-8.292	-0.221	-0.149
-743.142	-75.348	0.091	-0.032
-742.127	340.081	-0.276	0.540
-741.112	338.666	0.136	0.266
-740.098	-95.744	-0.207	0.055
-739.083	-14.887	0.138	-0.089
-738.069	-200.000	-0.012	0.103
-737.054	-42.865	-0.206	0.105
-736.039	800.000	0.115	0.409
-735.025	-114.118	0.209	0.041
-734.010	68.559	-0.430	0.442
-732.996	-113.402	-0.270	0.053
-731.981	-138.883	0.310	-0.034
-730.966	800.000	-0.097	-0.339
-729.952	800.000	-0.140	-0.459
-728.937	-196.406	-0.278	-0.002
-727.923	2.472	-0.322	-0.234
-726.908	-146.796	0.278	-0.024
-725.894	-139.943	-0.042	-0.004
-724.879	-115.139	-0.165	0.031
-723.864	-115.475	-0.333	0.063
-722.850	28.009	-0.111	-0.094
-721.835	115.708	-0.231	-0.283
-720.821	148.390	-0.455	0.616
-719.806	-23.524	0.134	-0.080
-718.791	-9.018	-0.260	-0.174
-717.777	-36.909	0.348	-0.187
-716.762	-200.000	0.043	-0.222
-715.748	21.850	-0.342	-0.279
-714.733	799.261	-0.085	-0.235
-713.718	-154.370	-0.428	0.029
-712.704	104.856	-0.110	-0.130
-711.689	-97.716	0.191	0.049
-710.675	-182.385	-0.466	0.009
-709.660	-125.049	-0.238	0.037
-708.645	-84.135	-0.264	0.084
-707.631	-16.019	0.319	0.203
-706.616	-8.511	-0.302	0.203
-705.602	236.974	-0.153	0.253
-704.587	-109.274	0.103	-0.022
-703.572	77.651	0.101	0.108
-702.558	-200.000	-0.006	-0.236
-701.543	766.696	0.083	-0.226
-700.529	-160.057	-0.239	-0.013
-699.514	188.152	-0.195	-0.291
-698.499	800.000	0.030	-0.111
-697.485	800.000	0.059	-0.168
-696.470	-46.246	-0.061	-0.030
-695.456	657.759	0.054	0.139
-694.441	256.638	-0.070	0.121
-693.426	73.286	0.105	0.110
-692.412	-200.000	0.016	0.121
-691.397	33.392	-0.277	-0.241
-690.383	157.808	0.136	-0.188
-689.368	800.000	-0.042	-0.180
-688.354	125.715	0.026	0.033
-687.339	480.571	0.057	0.129
-686.324	236.455	-0.093	0.154
-685.310	234.970	-0.156	-0.257
-684.295	-200.000	-0.004	-0.513
-683.281	-168.237	0.057	0.002
-682.266	-54.950	-0.262	-0.118
-681.251	24.203	0.337	-0.278
-680.237	-182.062	-0.132	-0.002
-679.222	-200.000	0.042	0.269
-678.208	-200.000	-0.012	-0.175
-677.193	762.516	0.024	-0.066
-676.178	-200.000	-0.055	-0.348
-675.164	-127.581	-0.055	0.008
-674.149	117.659	0.154	-0.190
-673.135	480.776	0.018	-0.042
-672.120	800.000	-0.028	-0.080
-671.105	115.705	-0.041	0.050
-670.091	800.000	0.115	-0.395
-669.076	600.849	-0.126	-0.314
-668.062	-10.123	0.106	-0.070
-667.047	-75.592	-0.383	-0.136
-666.032	800.000	-0.083	-0.332
-665.018	-39.561	0.083	-0.043
-664.003	13.043	-0.188	0.146
-662.989	-92.625	0.115	0.032
-661.974	800.000	-0.045	0.155
-660.959	1.378	0.206	-0.148
-659.945	-130.726	-0.283	0.038
-658.930	-93.303	-0.363	0.101
-657.916	152.959	0.039	0.054
-656.901	68.159	-0.135	-0.138
-655.886	-55.043	0.381	0.171
-654.872	162.490	-0.101	0.142
-653.857	-102.479	-0.045	0.011
-652.843	198.552	-0.177	-0.271
-651.828	112.901	-0.035	-0.043
-650.814	-200.000	0.005	0.067
-649.799	111.028	0.058	-0.069
-648.784	-129.942	0.540	0.074
-647.770	157.480	-0.271	0.374
-646.755	-200.000	-0.032	-0.240
-645.741	97.840	0.184	-0.212
-644.726	-139.723	0.314	0.033
-643.711	-7.142	0.011	0.007
-642.697	-24.584	-0.201	-0.119
-641.682	-26.153	0.310	0.182
-640.668	800.000	-0.059	-0.204
-639.653	177.064	-0.061	-0.088
-638.638	0.969	-0.259	0.185
-637.624	-85.541	-0.053	-0.017
-636.609	-20.462	0.117	0.072
-635.595	504.536	-0.098	-0.227
-634.580	-46.491	-0.206	-0.101
-633.565	-64.399	-0.243	-0.099
-632.551	-63.838	-0.252	-0.103
-631.536	567.260	-0.038	-0.092
-630.522	364.354	-0.124	-0.250
-629.507	-200.000	-0.007	0.092
-628.492	-133.746	-0.115	-0.014
-627.478	372.969	0.178	-0.361
-626.463	25.624	-0.048	0.039
-625.449	121.693	-0.066	0.082
-624.434	4.893	-0.078	0.057
-623.419	800.000	-0.055	0.221
-622.405	-142.475	-0.183	0.018
-621.390	74.936	0.111	0.117
-620.376	800.000	-0.116	-0.398
-619.361	-150.048	-0.201	0.016
-618.346	-86.855	-0.187	0.057
-617.332	-67.935	-0.471	0.183
-616.317	-149.451	-0.118	0.009
-615.303	234.192	-0.181	0.298
-614.288	229.137	-0.163	-0.266
-613.273	-200.000	0.032	-0.204
-612.259	749.091	-0.039	-0.106
-611.244	-143.595	-0.093	0.009
-610.230	265.965	-0.128	-0.222
-609.215	230.555	0.112	0.182
-608.201	800.000	0.086	-0.268
-607.186	-71.559	-0.268	0.100
-606.171	-200.000	0.006	0.103
-605.157	138.088	-0.225	0.294
-604.142	-200.000	0.007	-0.246
-603.128	-105.025	0.073	-0.017
-602.113	-200.000	-0.006	-0.156
-601.098	-200.000	0.005	0.144
-600.084	-3.354	-0.176	0.122
-599.069	-142.651	-0.095	0.009
-598.055	9.780	0.058	-0.044
-597.040	68.935	-0.240	-0.246
-596.025	1.618	0.136	-0.098
-595.011	-39.196	-0.377	0.197
-593.996	-29.018	-0.185	-0.106
-592.982	665.378	-0.116	0.299
-591.967	11.037	0.164	-0.125
-590.952	61.395	-0.099	-0.098
-589.938	-78.389	-0.311	0.106
-588.923	-84.673	0.093	0.029
-587.909	-117.295	0.102	-0.018
-586.894	-128.053	-0.341	-0.049
-585.879	-200.000	0.033	-0.186
-584.865	89.911	0.173	0.193
-583.850	800.000	-0.099	0.312
-582.836	-200.000	0.050	-0.433
-581.821	800.000	0.039	-0.159
-580.806	-52.606	0.142	-0.065
-579.792	395.462	-0.144	-0.299
-578.777	-200.000	-0.003	-0.240
-577.763	-110.185	-0.330	-0.069
-576.748	206.932	0.156	0.241
-575.733	-143.539	0.167	0.016
-574.719	-47.335	-0.353	-0.171
-573.704	-60.509	0.518	-0.219
-572.690	-92.855	0.146	0.041
-571.675	800.000	0.051	0.147
-570.661	-7.082	-0.224	0.151
-569.646	89.788	-0.199	-0.221
-568.631	70.270	0.316	0.325
-567.617	-200.000	0.102	-0.487
-566.602	-200.000	0.002	-0.134
-565.588	800.000	0.074	0.282
-564.573	39.680	-0.197	-0.176
-563.558	-6.884	-0.117	0.079
-562.544	-66.648	0.147	-0.058
-561.529	17.069	0.155	0.122
-560.515	198.782	-0.122	0.186
-559.500	734.631	0.050	-0.132
-558.485	-10.972	-0.178	0.117
-557.471	191.525	0.155	0.232
-556.456	271.340	0.051	0.090
-555.442	70.292	0.210	0.216
-554.427	-200.000	0.029	-0.172
-553.412	-200.000	0.000	0.076
-552.398	-8.905	0.145	-0.097
-551.383	29.862	-0.261	-0.222
-550.369	-38.275	-0.092	-0.049
-549.354	-127.842	0.287	-0.041
-548.339	-200.000	-0.020	-0.163
-547.325	-9.453	-0.301	-0.200
-546.310	70.108	0.136	-0.139
-545.296	39.669	-0.200	-0.178
-544.281	10.648	0.151	-0.114
-543.266	-128.683	0.335	-0.047
-542.252	265.557	0.052	0.089
-541.237	427.754	0.216	0.464
-540.223	-173.028	0.270	-0.008
-539.208	-200.000	0.013	-0.145
-538.193	800.000	-0.013	-0.052
-537.179	-200.000	0.030	-0.218
-536.164	-144.586	-0.454	0.042
-535.150	800.000	-0.069	-0.223
-534.135	201.945	-0.053	0.081
-533.121	274.039	0.192	0.337
-532.106	83.966	-0.118	-0.128
-531.091	-141.625	0.277	-0.028
-530.077	-85.436	-0.209	0.065
-529.062	-104.669	0.292	-0.067
-528.048	-160.169	0.608	-0.033
-527.033	-200.000	0.011	0.134
-526.018	-200.000	0.043	-0.195
-525.004	34.105	-0.227	0.196
-523.989	10.324	-0.239	0.181
-522.975	244.261	-0.245	-0.409
-521.960	502.373	-0.070	-0.162
-520.945	800.000	-0.079	-0.237
-519.931	275.306	0.069	-0.122
-518.916	724.872	-0.069	0.182
-517.902	27.078	0.072	0.060
-516.887	-19.231	-0.071	0.044
-515.872	-33.257	0.392	-0.216
-514.858	-165.124	-0.310	-0.014
-513.843	64.896	-0.106	0.107
-512.829	73.987	-0.146	0.153
-511.814	370.937	0.146	-0.295
-510.799	352.515	0.057	-0.113
-509.785	-200.000	0.062	-0.276
-508.770	800.000	0.027	0.094
-507.756	-200.000	-0.011	0.173
-506.741	-5.454	-0.301	0.205
-505.726	-200.000	0.032	0.167
-504.712	-200.000	-0.004	-0.314
-503.697	-116.690	-0.251	-0.046
-502.683	103.353	0.151	0.176
-501.668	-36.055	-0.173	-0.093
-500.653	-29.679	-0.154	0.087
-499.639	-99.432	0.081	-0.020
-498.624	-200.000	-0.050	-0.342
-497.610	336.044	0.020	0.039
-496.595	-169.672	-0.268	0.010
-495.581	-144.463	0.302	0.028
-494.566	-200.000	-0.042	0.636
-493.551	-200.000	-0.035	-0.189
-492.537	-93.724	0.209	0.057
-491.522	733.695	-0.005	-0.014
-490.508	179.262	-0.216	0.314
-489.493	33.994	-0.171	-0.148
-488.478	800.000	-0.090	-0.362
-487.464	58.592	0.375	-0.365
-486.449	180.317	-0.218	0.318
-485.435	48.310	0.182	-0.169
-484.420	800.000	0.043	-0.152
-483.405	95.954	0.045	0.050
-482.391	-200.000	0.027	0.188
-481.376	-11.297	0.147	-0.096
-480.362	-94.503	0.262	0.071
-479.347	484.619	0.101	0.228
-478.332	800.000	-0.025	-0.104
-477.318	39.539	-0.156	-0.138
-476.303	7.412	-0.122	-0.091
-475.289	64.421	0.090	-0.090
-474.274	433.931	-0.163	-0.351
-473.259	-84.378	-0.213	-0.067
-472.245	10.010	-0.084	-0.064
-471.230	-200.000	0.018	-0.107
-470.216	1.586	-0.085	-0.060
-469.201	109.441	-0.007	0.008
-468.186	269.012	0.057	-0.099
-467.172	-200.000	0.030	-0.303
-466.157	-120.212	0.230	-0.039
-465.143	800.000	-0.015	-0.063
-464.128	-89.895	-0.594	0.172
-463.113	-83.860	-0.270	0.085
-462.099	-200.000	0.072	-0.000
-461.084	-200.000	-0.011	0.151
-460.070	9.930	-0.099	0.075
-459.055	96.378	-0.102	-0.115
-458.040	-77.872	-0.143	0.049
-457.026	374.844	-0.030	-0.060
-456.011	-200.000	-0.033	-0.405
-454.997	-101.358	-0.258	0.062
-453.982	41.420	-0.206	-0.185
-452.968	-200.000	0.014	-0.085
-451.953	195.044	0.077	0.116
-450.938	800.000	0.071	-0.200
-449.924	-200.000	-0.086	-0.539
-448.909	139.894	0.067	-0.088
-447.895	347.837	0.176	-0.344
-446.880	-114.574	0.324	0.061
-445.865	180.916	0.106	0.154
-444.851	3.108	-0.219	0.157
-443.836	-139.335	0.420	-0.045
-442.822	-53.382	-0.191	-0.087
-441.807	-200.000	0.030	0.131
-440.792	-118.672	0.279	0.049
-439.778	5.292	-0.283	0.207
-438.763	54.239	-0.198	-0.189
-437.749	69.518	-0.308	0.314
-436.734	225.806	0.186	0.299
-435.719	579.470	-0.149	-0.360
-434.705	800.000	-0.161	0.497
-433.690	-85.780	0.141	-0.043
-432.676	-124.040	0.139	0.022
-431.661	-200.000	0.034	-0.169
-430.646	-50.351	-0.332	-0.155
-429.632	-105.878	0.291	-0.065
-428.617	278.149	-0.009	0.015
-427.603	800.000	0.088	0.323
-426.588	-73.284	0.173	-0.063
-425.573	123.813	0.196	0.244
-424.559	86.290	0.081	-0.089
-423.544	53.335	-0.198	0.188
-422.530	66.485	-0.181	-0.182
-421.515	227.755	0.170	0.274
-420.500	-104.701	-0.133	-0.030
-419.486	-200.000	0.004	0.042
-418.471	-61.102	0.194	-0.081
-417.457	-115.252	0.092	-0.017
-416.442	18.084	0.201	0.158
-415.428	8.372	0.282	0.210
-414.413	37.356	0.228	0.200
-413.398	-200.000	0.025	0.136
-412.384	-117.048	-0.285	0.052
-411.369	-200.000	0.031	-0.150
-410.355	-200.000	-0.010	0.289
-409.340	800.000	-0.036	0.143
-408.325	212.696	-0.093	0.145
-407.311	3.701	0.175	0.126
-406.296	-200.000	-0.004	-0.034
-405.282	-200.000	0.011	0.287
-404.267	302.836	-0.157	-0.288
-403.252	-119.639	0.138	-0.024
-402.238	118.680	-0.029	-0.036
-401.223	-54.179	0.245	-0.110
-400.209	109.091	-0.024	-0.029
-399.194	512.289	0.089	-0.205
-398.179	-58.160	-0.246	0.106
-397.165	-125.782	0.220	0.033
-396.150	-112.762	-0.108	0.021
-395.136	28.429	0.070	-0.059
-394.121	166.848	0.176	-0.246
-393.106	-160.288	-0.194	0.010
-392.092	328.700	0.169	-0.322
-391.077	-61.820	-0.129	-0.054
-390.063	-181.738	0.251	0.005
-389.048	-25.477	0.214	-0.125
-388.033	-178.020	-0.491	-0.012
-387.019	-200.000	-0.006	-0.089
-386.004	110.597	-0.073	0.087
-384.990	800.000	0.061	-0.237
-383.975	-105.727	0.210	0.047
-382.960	290.954	0.081	0.146
-381.946	270.178	0.087	0.151
-380.931	-91.499	0.178	0.050
-379.917	732.134	-0.051	0.136
-378.902	-97.230	-0.520	0.134
-377.888	13.933	-0.296	0.228
-376.873	-99.980	-0.214	0.053
-375.858	394.334	-0.119	0.245
-374.844	-149.724	-0.290	0.023
-373.829	-200.000	0.084	0.510
-372.815	800.000	0.100	0.423
-371.800	-94.724	-0.277	0.074
-370.785	-40.430	0.396	-0.203
-369.771	800.000	-0.016	-0.063
-368.756	-200.000	-0.006	-0.054
-367.742	800.000	0.055	-0.157
-366.727	327.032	-0.079	0.149
-365.712	800.000	-0.082	0.260
-364.698	-47.734	0.381	0.183
-363.683	800.000	-0.060	0.224
-362.669	569.693	-0.083	-0.199
-361.654	-200.000	-0.020	0.144
-360.639	599.451	0.062	-0.153
-359.625	0.860	-0.097	-0.069
-358.610	-149.603	-0.118	-0.009
-357.596	-53.464	0.190	0.086
-356.581	-65.780	0.071	0.028
-355.566	135.834	0.248	0.318
-354.552	800.000	-0.039	0.113
-353.537	-200.000	0.049	0.355
-352.523	-92.765	0.335	0.093
-351.508	800.000	0.083	-0.233
-350.493	-200.000	0.005	-0.091
-349.479	-120.281	-0.042	-0.007
-348.464	-66.296	-0.144	0.056
-347.450	-33.897	0.210	-0.114
-346.435	-50.821	-0.301	-0.140
-345.420	-136.707	-0.126	-0.014
-344.406	249.942	-0.133	0.223
-343.391	800.000	0.035	0.113
-342.377	-69.832	0.290	0.109
-341.362	-52.293	0.251	0.115
-340.348	800.000	0.081	0.259
-339.333	-34.999	-0.228	0.123
-338.318	-3.004	0.214	0.147
-337.304	800.000	-0.061	-0.256
-336.289	-12.925	0.107	-0.068
-335.275	800.000	0.052	-0.156
-334.260	-82.488	-0.174	-0.056
-333.245	-41.153	-0.199	-0.101
-332.231	-200.000	0.011	0.049
-331.216	148.131	0.217	0.289
-330.202	-200.000	-0.059	-0.308
-329.187	354.775	0.034	0.067
-328.172	-200.000	0.012	-0.126
-327.158	22.775	-0.218	-0.176
-326.143	237.934	-0.013	0.021
-325.129	-14.726	-0.063	0.040
-324.114	88.776	0.092	0.101
-323.099	349.724	-0.119	0.233
-322.085	-99.642	0.210	0.052
-321.070	105.358	0.109	0.127
-320.056	-2.354	-0.115	0.080
-319.041	-26.385	0.180	-0.104
-318.026	-200.000	0.007	0.040
-317.012	34.550	-0.200	-0.172
-315.997	-47.710	0.152	-0.073
-314.983	2.628	-0.153	-0.110
-313.968	-44.201	-0.098	0.049
-312.953	-119.793	-0.047	0.008
-311.939	8.644	0.182	0.135
-310.924	-113.375	-0.109	0.021
-309.910	-115.243	0.345	0.064
-308.895	-94.423	0.379	-0.102
-307.880	10.357	-0.187	0.140
-306.866	342.147	-0.085	-0.163
-305.851	-140.759	-0.242	-0.025
-304.837	-200.000	-0.008	0.081
-303.822	168.995	-0.035	-0.049
-302.807	185.696	-0.100	0.147
-301.793	-55.795	-0.139	-0.061
-300.778	-200.000	-0.020	-0.228
-299.764	2.539	0.267	-0.191
-298.749	-20.069	-0.337	-0.205
-297.735	-104.936	0.213	0.048
-296.720	-97.886	-0.350	0.089
-295.705	142.450	0.189	0.248
-294.691	29.931	-0.147	0.123
-293.676	300.288	0.073	-0.132
-292.662	3.669	0.244	0.176
-291.647	728.900	-0.097	0.255
-290.632	324.121	-0.193	0.363
-289.618	188.588	-0.076	-0.112
-288.603	109.002	0.107	0.126
-287.589	-18.952	0.285	-0.174
-286.574	95.775	-0.119	-0.134
-285.559	-200.000	0.032	-0.271
-284.545	656.430	-0.054	0.136
-283.530	526.099	-0.055	0.128
-282.516	-39.783	0.174	0.090
-281.501	56.359	0.210	-0.201
-280.486	487.300	0.127	0.285
-279.472	800.000	-0.140	-0.392
-278.457	800.000	0.102	-0.285
-277.443	-200.000	-0.010	0.092
-276.428	-141.778	0.269	0.027
-275.413	-118.368	0.206	0.036
-274.399	44.258	-0.136	0.123
-273.384	729.093	0.061	-0.161
-272.370	709.303	0.058	-0.151
-271.355	800.000	-0.008	-0.027
-270.340	436.170	0.280	-0.600
-269.326	114.656	-0.202	-0.242
-268.311	-14.351	-0.029	0.018
-267.297	19.248	-0.176	-0.139
-266.282	137.686	-0.084	-0.109
-265.267	-31.043	0.193	0.107
-264.253	800.000	-0.040	-0.137
-263.238	-60.034	-0.254	-0.107
-262.224	-126.998	0.169	-0.024
-261.209	-76.670	0.044	-0.015
-260.195	24.077	-0.078	-0.063
-259.180	196.322	0.130	-0.195
-258.165	369.545	0.059	-0.118
-257.151	800.000	-0.046	-0.161
-256.136	13.267	-0.097	0.074
-255.122	24.934	0.154	0.125
-254.107	459.829	-0.066	-0.144
-253.092	-167.231	0.306	0.012
-252.078	25.705	0.160	0.131
-251.063	800.000	-0.093	0.298
-250.049	166.614	-0.008	0.011
-249.034	333.634	-0.118	-0.225
-248.019	50.997	-0.063	0.059
-247.005	-128.857	-0.347	-0.048
-245.990	128.153	0.095	-0.119
-244.976	-200.000	0.017	-0.096
-243.961	-94.558	-0.061	0.016
-242.946	138.973	-0.080	-0.103
-241.932	95.295	0.159	0.178
-240.917	250.033	0.200	0.334
-239.903	-200.000	0.032	-0.245
-238.888	-23.663	-0.070	-0.041
-237.873	-57.107	0.274	-0.119
-236.859	-75.618	0.082	-0.029
-235.844	-138.654	0.289	0.031
-234.830	-140.990	0.302	0.030
-233.815	-200.000	-0.085	0.379
-232.800	-157.538	0.375	0.022
-231.786	-14.977	0.071	0.045
-230.771	-178.608	0.196	0.004
-229.757	14.906	0.301	-0.232
-228.742	47.671	-0.200	-0.183
-227.727	-200.000	-0.010	0.337
-226.713	-113.967	-0.053	-0.010
-225.698	-7.187	0.103	-0.069
-224.684	669.608	0.075	0.190
-223.669	-32.420	0.331	-0.181
-222.655	643.379	0.112	0.280
-221.640	800.000	-0.021	-0.077
-220.625	-31.754	-0.335	-0.184
-219.611	387.860	-0.084	-0.171
-218.596	14.226	-0.098	-0.075
-217.582	-44.704	0.348	-0.171
-216.567	-93.236	-0.238	0.065
-215.552	26.780	0.221	-0.182
-214.538	38.642	0.174	0.152
-213.523	-200.000	-0.035	0.192
-212.509	48.318	-0.127	0.117
-211.494	-100.489	-0.117	0.029
-210.479	418.487	0.184	0.385
-209.465	66.965	0.105	0.105
-208.450	-132.184	0.133	-0.017
-207.436	495.296	0.094	-0.212
-206.421	-20.336	0.055	0.034
-205.406	133.055	0.180	-0.228
-204.392	-200.000	0.010	-0.173
-203.377	-200.000	0.034	-0.180
-202.363	-117.742	0.274	-0.048
-201.348	-113.459	-0.062	0.012
-200.333	17.502	-0.067	-0.052
-199.319	-77.377	-0.250	0.085
-198.304	-131.821	-0.099	0.013
-197.290	800.000	-0.086	0.351
-196.275	363.392	0.121	0.239
-195.260	-43.184	0.158	-0.079
-194.246	-200.000	-0.340	0.000
-193.231	97.000	0.235	0.264
-192.217	-200.000	-0.057	0.320
-191.202	-200.000	-0.048	0.374
-190.187	-154.103	-0.248	-0.016
-189.173	-32.962	0.192	-0.105
-188.158	-200.000	-0.067	-0.330
-187.144	-200.000	-0.001	0.128
-186.129	-32.423	-0.447	0.245
-185.114	218.090	-0.064	-0.099
-184.100	-132.325	0.049	-0.006
-183.085	500.186	0.039	0.088
-182.071	129.099	-0.187	0.234
-181.056	7.537	-0.310	-0.228
-180.042	-89.374	0.415	-0.120
-179.027	-138.640	0.162	0.017
-178.012	80.748	-0.088	0.093
-176.998	-88.121	-0.210	0.062
-175.983	800.000	-0.068	0.269
-174.969	30.720	-0.031	0.026
-173.954	19.997	0.198	0.157
-172.939	25.703	0.030	-0.025
-171.925	-200.000	-0.015	0.177
-170.910	-68.169	0.073	-0.028
-169.896	800.000	-0.070	0.272
-168.881	-141.410	0.227	-0.023
-167.866	800.000	0.049	0.181
-166.852	466.499	-0.109	-0.240
-165.837	800.000	0.054	0.220
-164.823	389.585	-0.076	-0.154
-163.808	-78.299	0.205	0.069
-162.793	549.881	-0.113	0.266
-161.779	145.314	0.149	0.196
-160.764	-86.987	0.185	-0.055
-159.750	-119.807	-0.334	-0.056
-158.735	-31.504	0.163	0.090
-157.720	252.561	-0.128	0.214
-156.706	-7.364	0.162	-0.108
-155.691	-56.052	0.015	0.007
-154.677	-200.000	0.040	0.477
-153.662	111.413	-0.103	0.122
-152.647	-200.000	0.043	-0.387
-151.633	-117.189	-0.110	-0.020
-150.618	-167.639	-0.222	0.009
-149.604	-124.212	-0.150	-0.023
-148.589	-132.290	0.202	-0.026
-147.574	155.957	-0.099	-0.133
-146.560	-23.421	0.279	-0.164
-145.545	-106.170	0.159	0.035
-144.531	16.048	-0.135	-0.104
-143.516	259.305	-0.115	-0.194
-142.502	-109.683	0.202	-0.042
-141.487	-111.099	0.173	-0.035
-140.472	800.000	0.093	0.346
-139.458	-90.999	-0.167	0.047
-138.443	573.068	0.079	0.188
-137.429	206.915	-0.247	0.377
-136.414	36.225	-0.143	0.124
-135.399	98.074	0.145	0.163
-134.385	-200.000	0.095	-0.446
-133.370	-100.971	0.431	-0.104
-132.356	-200.000	0.032	0.169
-131.341	89.586	0.189	0.206
-130.326	800.000	-0.062	0.259
-129.312	93.337	-0.043	0.047
-128.297	-96.008	0.235	-0.061
-127.283	-17.202	0.261	-0.161
-126.268	-161.006	-0.095	-0.005
-125.253	32.776	0.173	0.147
-124.239	-149.288	0.279	-0.022
-123.224	64.644	-0.126	0.124
-122.210	95.422	0.099	0.110
-121.195	139.309	0.171	-0.220
-120.180	110.081	0.145	0.170
-119.166	143.356	-0.185	0.241
-118.151	49.227	-0.083	-0.077
-117.137	225.285	-0.203	0.321
-116.122	265.304	-0.085	0.145
-115.107	-163.982	-0.062	-0.003
-114.093	98.090	0.066	-0.074
-113.078	800.000	0.108	0.313
-112.064	774.685	-0.043	0.114
-111.049	102.395	-0.163	-0.186
-110.034	-200.000	-0.026	0.269
-109.020	76.874	-0.143	0.148
-108.005	41.964	0.301	0.267
-106.991	-139.023	0.136	-0.014
-105.976	-51.547	-0.230	0.105
-104.962	-31.257	0.059	-0.032
-103.947	-40.311	-0.119	-0.060
-102.932	-200.000	-0.007	-0.224
-101.918	-151.123	0.448	-0.033
-100.903	227.182	0.089	-0.141
-99.889	567.133	-0.251	-0.595
-98.874	-200.000	0.030	-0.153
-97.859	-200.000	0.029	-0.124
-96.845	-99.482	-0.197	0.048
-95.830	775.510	0.052	-0.138
-94.816	-78.371	0.165	-0.055
-93.801	105.896	0.030	0.035
-92.786	9.432	0.326	0.241
-91.772	-101.716	-0.253	0.060
-90.757	87.633	0.276	-0.299
-89.743	445.461	-0.085	0.183
-88.728	-49.634	0.250	-0.116
-87.713	800.000	0.007	-0.028
-86.699	146.263	0.059	0.077
-85.684	-200.000	0.021	0.187
-84.670	-62.925	-0.339	0.137
-83.655	8.119	0.178	0.131
-82.640	800.000	-0.030	0.099
-81.626	-104.013	-0.210	0.048
-80.611	15.708	-0.263	0.202
-79.597	262.239	-0.048	0.082
-78.582	42.704	-0.039	0.035
-77.567	-3.379	-0.036	0.024
-76.553	800.000	0.038	0.119
-75.538	295.188	-0.162	0.289
-74.524	-94.682	0.220	-0.058
-73.509	-29.244	-0.210	-0.118
-72.494	145.784	0.064	-0.084
-71.480	-200.000	0.035	0.419
-70.465	119.750	-0.071	0.085
-69.451	-200.000	0.014	0.171
-68.436	-200.000	0.000	0.114
-67.422	-200.000	-0.056	0.358
-66.407	-143.135	-0.227	0.021
-65.392	800.000	-0.097	0.277
-64.378	6.852	0.222	-0.162
-63.363	-158.234	-0.276	0.016
-62.349	-200.000	-0.005	0.091
-61.334	125.114	-1.164	-1.433
-60.319	69.044	0.745	0.747
-59.305	672.063	-0.689	-1.744
-58.290	449.047	0.516	1.109
-57.276	262.437	0.957	1.620
-56.261	-200.000	127.618	667.328
-55.246	404.439	1609.370	3308.887
-54.232	137.631	2768.701	3537.605
-53.217	95.535	2167.182	2412.183
-52.203	34.362	1594.828	1358.100
-51.188	25.941	1338.219	1088.921
-50.173	23.547	1300.227	1043.900
-49.159	51.799	1370.602	1272.575
-48.144	48.227	1382.119	1261.625
-47.130	26.220	1329.155	1083.051
-46.115	22.856	1310.272	1047.696
-45.100	22.725	1305.025	1042.683
-44.086	22.692	1302.038	1040.062
-43.071	22.567	1300.147	1037.777
-42.057	22.526	1298.672	1036.314
-41.042	22.609	1296.622	1035.128
-40.027	22.630	1295.229	1034.094
-39.013	22.643	1293.191	1032.503
-37.998	22.785	1290.938	1031.493
-36.984	22.743	1289.221	1029.837
-35.969	22.717	1287.815	1028.522
-34.954	22.832	1285.889	1027.610
-33.940	22.804	1285.156	1026.821
-32.925	22.792	1283.801	1025.628
-31.911	22.851	1281.902	1024.412
-30.896	22.776	1281.062	1023.269
-29.881	22.874	1279.665	1022.679
-28.867	22.869	1278.184	1021.423
-27.852	22.872	1276.481	1020.042
-26.838	22.882	1275.751	1019.476
-25.823	22.887	1274.065	1018.117
-24.809	22.862	1272.747	1016.877
-23.794	22.880	1271.174	1015.688
-22.779	22.778	1270.387	1014.431
-21.765	22.875	1268.982	1013.824
-20.750	22.811	1267.750	1012.430
-19.736	22.734	1266.462	1010.922
-18.721	22.739	1265.104	1009.828
-17.706	22.681	1263.887	1008.485
-16.692	22.699	1262.795	1007.676
-15.677	22.579	1261.721	1006.093
-14.663	22.722	1260.385	1005.802
-13.648	22.654	1259.473	1004.649
-12.633	22.594	1259.061	1003.940
-11.619	22.682	1258.550	1003.991
-10.604	22.714	1256.675	1002.636
-9.590	22.735	1255.678	1001.923
-8.575	22.590	1255.437	1000.865
-7.560	22.662	1254.214	1000.261
-6.546	22.690	1253.255	999.613
-5.531	22.715	1252.490	999.106
-4.517	22.688	1252.080	998.588
-3.502	22.794	1250.697	998.045
-2.487	22.629	1250.338	996.783
-1.473	22.698	1245.531	993.301
-0.458	21.149	1231.110	973.132
0.556	16.340	1216.356	938.472
1.571	13.042	1224.200	925.968
2.586	12.442	1239.691	934.196
3.600	12.561	1227.640	925.704
4.615	9.133	1156.286	853.624
5.629	3.167	1085.218	771.252
6.644	0.400	1068.295	745.490
7.659	0.139	1066.764	743.071
8.673	0.082	1065.958	742.160
9.688	0.040	1064.609	740.951
10.702	0.397	1061.944	740.783
11.717	3.901	1066.606	761.236
12.731	10.760	1075.922	801.770
13.746	15.568	1081.256	829.469
14.761	16.737	1082.373	836.028
15.775	16.097	1080.877	831.640
16.790	15.082	1078.796	824.965
17.804	14.393	1077.238	820.312
18.819	13.943	1076.050	817.119
19.834	13.838	1075.295	815.962
20.848	13.574	1074.342	813.867
21.863	13.380	1073.748	812.395
22.877	13.096	1073.048	810.396
23.892	13.044	1071.820	809.144
24.907	13.128	1071.664	809.364
25.921	13.112	1070.718	808.502
26.936	13.058	1069.630	807.345
27.950	13.263	1068.509	807.427
28.965	13.353	1067.479	807.018
29.980	13.369	1066.083	805.971
30.994	13.283	1065.210	804.819
32.009	13.317	1064.104	804.076
33.023	13.227	1063.230	802.910
34.038	13.284	1062.407	802.492
35.053	13.253	1061.772	801.790
36.067	13.123	1061.317	800.749
37.082	13.174	1060.100	800.006
38.096	13.321	1058.969	799.790
39.111	13.272	1058.438	799.085
40.126	13.274	1056.820	797.803
41.140	13.180	1055.944	796.614
42.155	13.159	1054.733	795.532
43.169	13.097	1053.746	794.418
44.184	13.096	1053.093	793.852
45.199	13.124	1052.199	793.240
46.213	13.144	1050.758	792.177
47.228	13.273	1049.887	792.069
48.242	13.207	1048.714	790.799
49.257	13.212	1048.106	790.296
50.271	13.256	1046.873	789.505
51.286	13.288	1045.863	788.827
52.301	13.159	1045.222	787.659
53.315	13.170	1044.352	786.987
54.330	13.146	1042.758	785.601
55.344	13.231	1042.066	785.416
56.359	13.184	1041.156	784.436
57.374	13.098	1040.567	783.515
58.388	13.080	1039.869	782.832
59.403	13.194	1038.661	782.395
60.417	13.119	1037.767	781.298
61.432	13.029	1037.324	780.470
62.447	13.116	1036.530	780.215
63.461	13.049	1035.355	778.944
64.476	13.083	1034.556	778.433
65.490	12.951	1033.925	777.271
66.505	13.099	1032.997	777.201
67.520	13.010	1032.453	776.304
68.534	13.156	1031.166	775.951
69.549	13.162	1030.572	775.466
70.563	13.090	1029.680	774.390
71.578	13.027	1028.570	773.190
72.593	13.056	1028.198	772.978
73.607	12.970	1027.782	772.193
74.622	13.028	1026.553	771.475
75.636	13.083	1026.528	771.645
76.651	13.025	1025.658	770.651
77.666	12.992	1024.819	769.796
78.680	12.949	1024.272	769.118
79.695	13.060	1023.449	768.947
80.709	13.129	1022.674	768.619
81.724	13.099	1022.121	767.996
82.739	13.173	1021.136	767.531
83.753	13.179	1020.779	767.223
84.768	13.159	1019.857	766.368
85.782	13.258	1018.786	765.956
86.797	13.207	1017.805	764.914
87.812	13.091	1017.044	763.739
88.826	13.222	1015.920	763.431
89.841	13.233	1014.988	762.714
90.855	13.238	1014.145	762.036
91.870	13.302	1013.060	761.450
92.884	13.287	1011.918	760.455
93.899	13.358	1011.577	760.458
94.914	13.522	1010.509	760.340
95.928	13.380	1010.189	759.380
96.943	13.185	1009.274	757.732
97.957	13.351	1008.007	757.475
98.972	13.341	1006.783	756.443
99.987	13.363	1005.988	755.877
101.001	13.388	1005.315	755.418
102.016	13.346	1004.570	754.598
103.030	13.324	1003.451	753.594
104.045	13.347	1003.084	753.355
105.060	13.284	1002.062	752.233
106.074	13.194	1001.230	751.135
107.089	13.025	1000.401	749.677
108.103	13.102	999.450	749.247
109.118	13.133	998.260	748.432
110.133	13.254	997.125	748.061
111.147	13.131	996.860	747.239
112.162	13.215	995.576	746.591
113.176	13.329	994.821	746.473
114.191	13.339	994.140	745.942
115.206	13.232	993.274	744.742
116.220	13.249	992.520	744.190
117.235	13.275	991.453	743.441
118.249	13.237	990.416	742.427
119.264	13.273	989.393	741.752
120.279	13.151	989.010	740.853
121.293	13.411	987.825	741.064
122.308	13.146	987.823	739.812
123.322	13.233	986.760	739.339
124.337	13.168	985.654	738.154
125.352	13.297	984.175	737.559
126.366	13.242	983.386	736.658
127.381	13.222	982.693	735.981
128.395	13.176	981.547	734.855
129.410	13.227	980.284	734.069
130.424	13.266	979.625	733.684
131.439	13.258	978.776	732.950
132.454	13.196	978.044	732.064
133.468	13.243	977.128	731.520
134.483	13.307	976.899	731.565
135.497	13.352	975.343	730.537
136.512	13.457	974.444	730.260
137.527	13.407	973.628	729.364
138.541	13.228	973.247	728.224
139.556	13.285	972.744	728.034
140.570	13.398	971.740	727.716
141.585	13.449	970.608	727.029
142.600	13.507	969.729	726.561
143.614	13.450	969.454	726.041
144.629	13.405	968.638	725.166
145.643	13.432	967.701	724.518
146.658	13.401	966.357	723.313
147.673	13.344	965.603	722.438
148.687	13.475	964.643	722.227
149.702	13.304	964.010	720.944
150.716	13.379	963.175	720.579
151.731	13.444	962.227	720.090
152.746	13.406	961.434	719.267
153.760	13.312	961.553	718.885
154.775	13.490	960.716	718.967
155.789	13.500	959.877	718.322
156.804	13.617	958.978	718.093
157.819	13.561	958.707	717.583
158.833	13.654	957.849	717.281
159.848	13.630	957.092	716.545
160.862	13.505	956.080	715.185
161.877	13.593	954.847	714.580
162.892	13.443	954.229	713.408
163.906	13.538	953.113	712.919
164.921	13.433	952.647	712.054
165.935	13.447	951.762	711.388
166.950	13.680	950.796	711.607
167.964	13.570	949.885	710.388
168.979	13.486	948.888	709.219
169.994	13.638	948.100	709.218
171.008	13.650	947.287	708.599
172.023	13.672	946.435	707.994
173.037	13.672	946.149	707.717
174.052	13.667	945.448	707.108
175.067	13.704	944.728	706.665
176.081	13.596	944.312	705.832
177.096	13.649	943.442	705.346
178.110	13.735	942.769	705.145
179.125	13.722	942.214	704.614
180.140	13.671	941.840	704.052
181.154	13.698	941.586	703.916
182.169	13.818	940.442	703.507
183.183	13.758	940.847	703.495
184.198	13.878	939.034	702.583
185.213	13.793	938.691	701.903
186.227	13.947	937.675	701.734
187.242	13.887	937.630	701.386
188.256	13.908	936.923	700.882
189.271	13.906	936.200	700.269
190.286	13.787	935.431	699.131
191.300	13.784	934.606	698.440
192.315	13.624	933.949	697.215
193.329	13.819	933.233	697.439
194.344	13.802	932.539	696.785
195.359	13.873	931.872	696.525
196.373	13.937	931.488	696.443
197.388	13.847	931.039	695.668
198.402	14.152	930.114	696.195
199.417	14.043	929.838	695.470
200.432	14.145	928.847	695.094
201.446	14.054	928.827	694.636
202.461	14.204	928.227	694.752
203.475	14.104	927.580	693.790
204.490	14.068	926.964	693.118
205.504	14.137	925.894	692.544
206.519	14.079	925.324	691.816
207.534	14.119	924.247	691.115
208.548	14.038	923.761	690.352
209.563	14.069	923.361	690.121
210.577	14.147	922.968	690.092
211.592	14.292	921.865	689.806
212.607	14.226	920.808	688.679
213.621	14.283	920.429	688.574
214.636	14.249	919.874	687.956
215.650	14.267	919.295	687.534
216.665	14.198	918.444	686.552
217.680	14.339	917.697	686.514
218.694	14.278	917.380	685.966
219.709	14.308	916.320	685.239
220.723	14.425	915.688	685.183
221.738	14.297	915.322	684.325
222.753	14.303	914.579	683.734
223.767	14.355	913.856	683.346
224.782	14.485	912.915	683.115
225.796	14.430	912.774	682.721
226.811	14.321	912.391	681.928
227.826	14.366	911.521	681.401
228.840	14.352	910.860	680.792
229.855	14.497	909.741	680.485
230.869	14.462	909.049	679.768
231.884	14.518	908.243	679.331
232.899	14.432	907.696	678.513
233.913	14.490	907.032	678.192
234.928	14.404	906.726	677.551
235.942	14.494	905.458	676.908
236.957	14.371	905.025	676.028
237.972	14.439	904.468	675.828
238.986	14.484	904.100	675.677
240.001	14.607	903.080	675.351
241.015	14.649	902.368	674.931
242.030	14.551	901.890	674.116
243.045	14.489	901.665	673.639
244.059	14.526	901.006	673.234
245.074	14.620	900.336	673.055
246.088	14.701	899.110	672.402
247.103	14.675	898.841	672.037
248.117	14.664	898.445	671.638
249.132	14.744	897.896	671.492
250.147	14.715	897.291	670.864
251.161	14.797	896.325	670.408
252.176	14.831	895.768	670.071
253.190	14.987	894.806	669.916
254.205	15.041	894.064	669.517
255.220	14.871	893.725	668.525
256.234	14.879	893.321	668.196
257.249	14.961	892.432	667.797
258.263	15.026	891.382	667.211
259.278	14.974	890.796	666.506
260.293	14.972	890.528	666.242
261.307	15.026	889.400	665.553
262.322	15.011	889.066	665.183
263.336	15.205	888.151	665.211
264.351	15.066	887.351	664.003
265.366	15.075	886.842	663.599
266.380	15.051	886.647	663.297
267.395	15.174	885.632	662.965
268.409	15.239	884.444	662.274
269.424	15.218	883.783	661.638
270.439	15.099	883.830	661.145
271.453	15.204	882.505	660.508
272.468	15.118	882.543	660.140
273.482	15.139	881.671	659.512
274.497	15.156	880.926	658.963
275.512	15.169	880.728	658.810
276.526	15.194	880.244	658.484
277.541	15.156	879.841	657.977
278.555	15.345	878.789	657.873
279.570	15.332	878.225	657.344
280.585	15.363	877.473	656.844
281.599	15.356	876.524	656.049
282.614	15.267	876.220	655.414
283.628	15.297	875.914	655.243
284.643	15.370	874.892	654.707
285.657	15.294	874.282	653.894
286.672	15.448	873.400	653.777
287.687	15.502	872.601	653.330
288.701	15.423	872.580	652.951
289.716	15.478	871.959	652.644
290.730	15.517	871.250	652.206
291.745	15.537	870.740	651.843
292.760	15.464	870.108	651.028
293.774	15.573	869.602	651.015
294.789	15.469	868.878	650.012
295.803	15.571	867.933	649.645
296.818	15.445	867.608	648.856
297.833	15.630	866.548	648.719
298.847	15.719	866.034	648.621
299.862	15.547	865.781	647.711
300.876	15.629	864.851	647.273
301.891	15.577	864.614	646.839
302.906	15.702	863.973	646.783
303.920	15.791	863.309	646.570
304.935	15.726	862.779	645.867
305.949	15.786	862.170	645.584
306.964	15.789	861.664	645.160
307.979	15.871	860.711	644.703
308.993	15.942	860.571	644.813
310.008	15.671	860.054	643.329
311.022	15.703	859.298	642.832
312.037	15.817	858.658	642.733
313.052	15.955	857.791	642.554
314.066	15.843	857.607	641.931
315.081	15.819	857.026	641.347
316.095	15.818	856.191	640.662
317.110	15.819	855.513	640.103
318.125	15.885	855.031	639.935
319.139	15.963	854.589	639.844
320.154	15.802	854.406	639.038
321.168	15.819	853.854	638.634
322.183	15.857	853.264	638.279
323.197	16.112	852.685	638.756
324.212	15.881	852.424	637.628
325.227	15.793	851.697	636.698
326.241	15.903	850.877	636.444
327.256	15.975	850.643	636.485
328.270	15.808	850.037	635.343
329.285	15.899	849.359	635.124
330.300	16.036	849.066	635.366
331.314	16.152	848.075	635.004
332.329	16.096	847.702	634.459
333.343	16.024	847.408	633.910
334.358	16.016	847.181	633.655
335.373	16.002	846.581	633.097
336.387	16.230	846.229	633.635
337.402	16.148	846.060	633.145
338.416	16.115	845.741	632.724
339.431	16.284	845.213	632.906
340.446	16.354	844.456	632.548
341.460	16.375	843.793	632.072
342.475	16.320	844.098	632.040
343.489	16.231	843.611	631.287
344.504	16.261	843.161	631.006
345.519	16.390	842.585	631.000
346.533	16.440	842.020	630.710
347.548	16.334	841.385	629.780
348.562	16.304	841.109	629.408
349.577	16.302	840.361	628.786
350.592	16.268	839.861	628.228
351.606	16.342	839.166	627.930
352.621	16.419	838.261	627.480
353.635	16.449	837.653	627.082
354.650	16.544	837.061	626.935
355.665	16.451	836.759	626.309
356.679	16.378	836.014	625.427
357.694	16.494	835.266	625.239
358.708	16.481	834.638	624.667
359.723	16.588	833.846	624.415
360.738	16.575	832.869	623.578
361.752	16.614	832.658	623.509
362.767	16.739	831.789	623.266
363.781	16.722	831.554	622.972
364.796	16.755	831.208	622.777
365.810	16.757	831.099	622.649
366.825	16.820	830.629	622.471
367.840	16.740	830.307	621.881
368.854	16.678	829.889	621.287
369.869	16.644	829.178	620.573
370.883	16.622	828.933	620.255
371.898	16.848	828.433	620.654
372.913	16.834	828.291	620.441
373.927	16.737	827.623	619.531
374.942	17.041	826.931	620.069
375.956	16.809	826.664	618.966
376.971	16.949	826.400	619.224
377.986	16.865	825.870	618.467
379.000	16.889	825.490	618.215
380.015	16.951	824.562	617.690
381.029	16.865	824.032	616.927
382.044	17.057	823.578	617.232
383.059	17.099	822.678	616.654
384.073	17.057	822.265	616.135
385.088	17.059	821.890	615.809
386.102	16.949	821.270	614.890
387.117	17.073	820.612	614.791
388.132	16.975	820.021	613.940
389.146	17.077	819.620	613.955
390.161	17.157	819.109	613.808
391.175	17.135	818.782	613.430
392.190	17.017	818.343	612.620
393.205	17.012	817.911	612.223
394.219	16.982	817.397	611.677
395.234	17.039	816.938	611.486
396.248	17.014	816.271	610.841
397.263	16.993	816.249	610.696
398.278	17.134	815.564	610.634
399.292	17.155	815.415	610.546
400.307	17.167	815.010	610.230
401.321	17.136	814.131	609.408
402.336	17.068	813.680	608.771
403.350	17.053	813.313	608.390
404.365	17.210	812.919	608.605
405.380	17.224	812.564	608.334
406.394	17.440	811.660	608.377
407.409	17.229	811.594	607.519
408.423	17.365	811.386	607.797
409.438	17.337	810.701	607.128
410.453	17.361	810.605	607.090
411.467	17.416	809.875	606.685
412.482	17.500	809.471	606.628
413.496	17.530	808.696	606.099
414.511	17.459	808.772	605.850
415.526	17.447	808.431	605.497
416.540	17.545	807.905	605.399
417.555	17.488	807.042	604.496
418.569	17.704	806.809	605.034
419.584	17.639	806.494	604.516
420.599	17.629	806.329	604.303
421.613	114.377	1298.819	1490.321
422.628	98.808	1370.516	1490.389
