DTS Sentinel unit serial number:	SN413079Multiplexer serial number:	ORYXHardware model number:	OX4-SRSoftware version number:	ORYX F/W v4.00 Oryx Data Collector v3.7.2.0data status	okinstallation	princeton_trtdifferential loss correction	single-endedforward channel	channel 1reverse channel	N/Adate	2019/09/13time	14:34:35forward acquisition time	60.00reverse acquisition time	0.00gamma	496.2192k internal	0.2302k external	0.2302temperature offset calibration	1.0157default loss term (dB/km)	0.3790temperature slope calibration	1.0000multiplexer offset coefficient	1.0000multiplexer slope coefficient	1.0000fibre end	0.00T internal ref (°C)	35.30T ext. ref 1 (°C)	4.64T ext. ref 2 (°C)	32.19length (m)	temperature (°C)	Stokes	anti-Stokes-747.200	-66.545	0.162	0.065
-746.185	800.000	-0.117	0.391
-745.171	-147.191	0.371	0.032
-744.156	198.905	0.074	0.116
-743.142	800.000	0.014	-0.052
-742.127	120.630	-0.177	0.225
-741.112	-82.475	-0.199	-0.066
-740.098	-200.000	0.053	0.250
-739.083	-200.000	-0.006	0.144
-738.069	250.167	-0.129	-0.223
-737.054	93.947	-0.157	-0.182
-736.039	419.493	-0.128	0.279
-735.025	-134.625	0.273	-0.034
-734.010	272.498	-0.124	-0.222
-732.996	-78.439	-0.323	-0.113
-731.981	-88.904	-0.528	0.159
-730.966	-56.907	0.252	0.114
-729.952	55.089	-0.155	0.152
-728.937	719.543	-0.079	-0.213
-727.923	-200.000	0.022	-0.352
-726.908	586.876	-0.069	-0.173
-725.894	-200.000	-0.051	-0.234
-724.879	-78.344	0.233	-0.081
-723.864	-86.260	-0.227	-0.071
-722.850	800.000	-0.043	0.142
-721.835	-110.188	0.191	0.041
-720.821	24.014	0.232	0.195
-719.806	115.958	-0.061	0.076
-718.791	-77.547	0.048	0.017
-717.777	91.014	-0.049	0.056
-716.762	-98.832	0.142	0.037
-715.748	-65.060	-0.018	-0.008
-714.733	-200.000	-0.004	-0.020
-713.718	304.425	-0.159	-0.300
-712.704	-196.238	0.324	0.002
-711.689	-94.135	-0.246	0.069
-710.675	-16.340	0.084	-0.055
-709.660	-200.000	0.062	-0.288
-708.645	183.871	0.130	0.196
-707.631	595.273	-0.007	-0.019
-706.616	56.622	0.151	0.149
-705.602	800.000	0.035	0.146
-704.587	-13.945	0.280	0.184
-703.572	-200.000	-0.020	-0.130
-702.558	334.289	0.088	0.174
-701.543	-200.000	0.304	-0.000
-700.529	-137.519	-0.211	0.024
-699.514	90.454	-0.020	0.023
-698.499	-158.016	-0.516	0.031
-697.485	-200.000	-0.010	0.054
-696.470	117.923	0.211	-0.264
-695.456	-99.478	-0.169	0.043
-694.441	-36.782	-0.269	-0.147
-693.426	-80.302	0.175	-0.059
-692.412	-70.197	-0.354	-0.137
-691.397	-21.419	-0.346	-0.215
-690.383	800.000	-0.057	-0.191
-689.368	375.572	-0.119	0.246
-688.354	800.000	0.012	0.034
-687.339	260.734	0.055	0.097
-686.324	-200.000	0.013	-0.328
-685.310	417.653	0.125	-0.271
-684.295	33.092	-0.158	-0.139
-683.281	800.000	-0.137	-0.476
-682.266	80.274	0.207	-0.227
-681.251	-29.289	-0.125	-0.073
-680.237	406.514	-0.119	-0.256
-679.222	-200.000	0.026	0.251
-678.208	-200.000	-0.021	-0.105
-677.193	-93.108	0.066	0.019
-676.178	6.020	-0.206	-0.155
-675.164	-200.000	0.077	-0.379
-674.149	-140.910	0.137	0.014
-673.135	-150.937	-0.242	0.019
-672.120	267.812	0.022	-0.039
-671.105	54.387	-0.312	0.305
-670.091	226.889	-0.232	-0.383
-669.076	30.614	0.119	-0.103
-668.062	-200.000	0.007	-0.149
-667.047	-154.780	-0.407	-0.027
-666.032	-34.196	-0.515	-0.287
-665.018	-161.964	0.268	-0.014
-664.003	-124.863	-0.197	-0.031
-662.989	144.226	-0.079	-0.108
-661.974	15.537	-0.202	-0.161
-660.959	35.775	0.145	0.129
-659.945	800.000	0.158	-0.641
-658.930	-81.021	0.405	-0.136
-657.916	-109.326	0.177	-0.038
-656.901	-85.663	0.263	0.083
-655.886	19.035	-0.050	0.041
-654.872	99.619	-0.067	0.079
-653.857	-200.000	0.004	0.146
-652.843	216.878	0.097	0.157
-651.828	90.767	-0.185	-0.210
-650.814	-0.871	0.091	-0.065
-649.799	-14.873	-0.116	0.076
-648.784	105.405	0.205	-0.246
-647.770	148.451	0.160	0.219
-646.755	83.225	-0.199	-0.220
-645.741	115.708	-0.158	-0.196
-644.726	185.196	-0.085	0.128
-643.711	-93.475	0.346	-0.097
-642.697	214.673	-0.116	-0.187
-641.682	650.883	0.092	0.239
-640.668	-200.000	0.006	0.279
-639.653	-13.923	-0.338	-0.222
-638.638	-200.000	0.017	-0.336
-637.624	-176.616	-0.247	0.006
-636.609	-31.540	0.104	0.060
-635.595	107.217	0.148	-0.179
-634.580	-179.925	-0.231	-0.005
-633.565	189.681	0.057	-0.086
-632.551	242.767	-0.227	-0.385
-631.536	-109.453	0.304	-0.065
-630.522	105.431	0.244	0.292
-629.507	-117.765	0.261	0.048
-628.492	-40.899	-0.086	-0.045
-627.478	800.000	-0.039	-0.130
-626.463	232.865	-0.105	-0.175
-625.449	-1.385	-0.185	0.132
-624.434	5.145	-0.136	0.102
-623.419	64.179	0.079	0.081
-622.405	636.622	-0.061	0.157
-621.390	-200.000	-0.012	0.092
-620.376	172.185	0.143	0.208
-619.361	463.117	-0.031	-0.071
-618.346	-200.000	-0.052	-0.426
-617.332	69.007	0.138	0.144
-616.317	-84.684	-0.081	0.026
-615.303	-28.133	-0.245	-0.144
-614.288	60.712	0.137	0.138
-613.273	747.548	0.179	0.490
-612.259	-200.000	-0.029	-0.149
-611.244	-200.000	-0.006	-0.216
-610.230	51.430	-0.130	0.125
-609.215	-200.000	0.029	-0.236
-608.201	90.771	-0.241	-0.274
-607.186	-50.679	-0.271	-0.130
-606.171	-20.793	-0.214	-0.133
-605.157	130.775	-0.162	-0.211
-604.142	-118.906	0.241	-0.043
-603.128	-200.000	-0.020	0.212
-602.113	239.981	-0.087	-0.147
-601.098	512.155	-0.022	0.051
-600.084	413.396	-0.042	0.091
-599.069	90.633	-0.203	-0.230
-598.055	-200.000	-0.041	-0.211
-597.040	-46.180	0.307	-0.153
-596.025	800.000	0.005	0.016
-595.011	-163.384	0.217	-0.010
-593.996	800.000	-0.050	0.190
-592.982	262.047	0.157	0.276
-591.967	-117.998	0.212	-0.038
-590.952	5.798	0.062	-0.047
-589.938	800.000	0.107	-0.432
-588.923	117.276	-0.080	0.100
-587.909	-10.524	0.112	0.075
-586.894	76.675	0.085	-0.091
-585.879	323.975	0.154	-0.298
-584.865	-200.000	0.048	-0.215
-583.850	-96.088	0.042	-0.011
-582.836	454.325	-0.089	0.200
-581.821	338.076	-0.107	-0.212
-580.806	-113.897	-0.198	-0.039
-579.792	212.749	-0.169	-0.270
-578.777	120.272	-0.101	0.127
-577.763	58.106	0.284	0.282
-576.748	800.000	-0.071	-0.291
-575.733	800.000	0.032	-0.140
-574.719	-67.386	0.296	0.118
-573.704	-92.855	-0.182	0.051
-572.690	53.908	-0.232	-0.225
-571.675	800.000	-0.067	-0.232
-570.661	-200.000	0.012	-0.327
-569.646	-3.568	-0.173	0.122
-568.631	138.892	0.200	0.267
-567.617	57.301	0.244	-0.242
-566.602	-130.104	-0.227	0.031
-565.588	379.510	0.091	0.190
-564.573	-78.438	0.142	-0.049
-563.558	-191.162	0.245	0.003
-562.544	48.901	-0.119	-0.113
-561.529	-55.305	-0.287	0.131
-560.515	-26.760	-0.023	-0.014
-559.500	396.282	0.021	-0.044
-558.485	-200.000	0.020	0.159
-557.471	-61.107	-0.163	0.069
-556.456	403.507	0.099	0.210
-555.442	-200.000	0.006	-0.349
-554.427	103.067	-0.262	0.311
-553.412	-29.211	-0.217	-0.126
-552.398	14.033	-0.115	-0.090
-551.383	1.590	-0.117	0.085
-550.369	14.847	0.020	0.016
-549.354	-200.000	0.040	-0.336
-548.339	-200.000	-0.002	-0.207
-547.325	114.827	0.146	-0.181
-546.310	39.210	-0.190	0.172
-545.296	800.000	-0.024	0.098
-544.281	-141.801	-0.281	-0.028
-543.266	93.054	-0.236	0.270
-542.252	454.640	0.039	0.088
-541.237	-102.119	-0.417	-0.102
-540.223	-9.730	0.078	0.052
-539.208	107.666	0.129	0.155
-538.193	112.809	0.233	0.286
-537.179	-136.186	-0.293	0.035
-536.164	800.000	0.083	-0.348
-535.150	-99.726	-0.150	-0.038
-534.135	-97.670	0.110	-0.029
-533.121	-64.572	-0.322	0.132
-532.106	-135.792	-0.151	-0.018
-531.091	119.472	0.065	0.082
-530.077	-121.315	-0.443	0.075
-529.062	-24.566	-0.045	0.027
-528.048	26.792	0.105	-0.089
-527.033	800.000	-0.045	-0.147
-526.018	-94.323	-0.089	-0.025
-525.004	-87.078	-0.036	0.011
-523.989	-0.748	-0.143	0.102
-522.975	-111.089	-0.056	0.012
-521.960	258.206	0.081	0.141
-520.945	61.756	0.056	-0.056
-519.931	-176.784	0.060	0.002
-518.916	500.552	0.088	-0.205
-517.902	800.000	-0.043	0.188
-516.887	53.786	-0.076	0.074
-515.872	-200.000	-0.003	0.039
-514.858	-69.647	-0.236	-0.091
-513.843	800.000	0.052	-0.185
-512.829	-116.309	0.166	-0.031
-511.814	-200.000	-0.045	-0.228
-510.799	-135.975	0.428	-0.051
-509.785	800.000	-0.071	-0.268
-508.770	-108.054	0.015	0.003
-507.756	-110.020	0.132	-0.028
-506.741	8.219	0.116	-0.088
-505.726	289.268	0.052	-0.094
-504.712	717.928	-0.197	-0.527
-503.697	19.783	0.180	-0.146
-502.683	-200.000	0.010	-0.119
-501.668	-200.000	0.017	0.309
-500.653	159.265	0.206	0.289
-499.639	-200.000	-0.012	0.132
-498.624	-75.982	0.017	0.006
-497.610	800.000	-0.083	0.260
-496.595	-78.171	0.385	0.134
-495.581	501.774	0.102	-0.238
-494.566	146.484	-0.014	0.020
-493.551	559.001	-0.154	0.375
-492.537	96.090	-0.162	0.187
-491.522	-200.000	0.016	0.150
-490.508	8.625	0.337	-0.256
-489.493	21.146	0.114	0.093
-488.478	87.643	0.202	-0.226
-487.464	503.762	-0.136	0.319
-486.449	100.094	0.048	-0.056
-485.435	136.691	0.210	-0.276
-484.420	334.528	0.089	0.174
-483.405	13.349	0.121	0.095
-482.391	106.313	0.190	0.227
-481.376	84.205	-0.040	-0.044
-480.362	-200.000	-0.004	0.105
-479.347	85.285	0.085	-0.094
-478.332	545.709	-0.130	-0.315
-477.318	501.702	0.040	-0.094
-476.303	-200.000	0.064	-0.318
-475.289	-200.000	-0.005	-0.038
-474.274	-164.676	-0.089	0.004
-473.259	204.725	-0.124	0.195
-472.245	-200.000	0.042	0.375
-471.230	202.308	-0.054	-0.084
-470.216	-150.200	0.284	0.022
-469.201	-63.858	0.338	-0.139
-468.186	-37.986	-0.067	-0.036
-467.172	319.195	-0.190	-0.363
-466.157	-200.000	0.006	0.038
-465.143	-200.000	0.020	0.320
-464.128	-157.702	0.260	0.016
-463.113	-79.514	0.183	-0.062
-462.099	-2.406	-0.194	-0.137
-461.084	-200.000	-0.010	0.094
-460.070	800.000	-0.034	-0.110
-459.055	-34.292	-0.411	-0.227
-458.040	85.576	0.020	0.023
-457.026	-0.950	0.150	-0.107
-456.011	155.290	0.206	0.285
-454.997	2.885	0.058	-0.043
-453.982	-186.434	-0.136	0.002
-452.968	-144.962	0.122	-0.011
-451.953	-200.000	-0.034	0.219
-450.938	44.767	-0.103	0.095
-449.924	-51.927	0.068	0.032
-448.909	-200.000	0.016	0.222
-447.895	800.000	-0.030	0.095
-446.880	-200.000	-0.013	-0.152
-445.865	162.128	0.097	-0.138
-444.851	-200.000	0.004	-0.114
-443.836	330.596	0.056	0.110
-442.822	800.000	-0.061	-0.172
-441.807	157.828	-0.141	-0.196
-440.792	114.603	0.054	-0.067
-439.778	54.307	0.234	-0.227
-438.763	91.450	0.280	-0.317
-437.749	54.793	0.180	0.175
-436.734	-200.000	-0.057	0.516
-435.719	52.362	-0.179	0.172
-434.705	-150.171	-0.193	0.015
-433.690	-15.190	-0.223	-0.144
-432.676	-1.166	0.043	0.030
-431.661	-46.854	-0.175	-0.086
-430.646	-200.000	-0.012	-0.275
-429.632	612.827	-0.014	-0.036
-428.617	-76.015	-0.171	0.061
-427.603	-51.099	-0.362	0.171
-426.588	76.037	-0.174	0.186
-425.573	-81.800	-0.214	-0.071
-424.559	25.196	-0.291	-0.244
-423.544	290.530	0.124	0.226
-422.530	40.148	0.085	0.077
-421.515	139.616	-0.130	-0.172
-420.500	50.744	0.154	0.147
-419.486	8.342	-0.309	-0.234
-418.471	372.741	-0.134	-0.275
-417.457	-102.653	0.260	-0.062
-416.442	-172.358	0.114	-0.004
-415.428	-195.002	-0.188	-0.001
-414.413	-200.000	-0.021	-0.101
-413.398	-99.954	0.204	-0.051
-412.384	82.844	-0.181	0.198
-411.369	800.000	-0.017	-0.074
-410.355	-68.639	-0.347	0.135
-409.340	-115.398	0.291	-0.055
-408.325	800.000	-0.032	-0.113
-407.311	800.000	0.125	-0.357
-406.296	-200.000	-0.034	0.340
-405.282	-200.000	0.011	-0.247
-404.267	286.609	0.026	-0.046
-403.252	800.000	-0.117	0.430
-402.238	-27.821	-0.172	-0.100
-401.223	29.578	-0.256	0.219
-400.209	-7.664	0.127	-0.086
-399.194	-108.920	-0.204	-0.044
-398.179	-127.880	-0.312	0.045
-397.165	166.623	0.136	0.193
-396.150	800.000	-0.111	0.312
-395.136	-172.322	0.276	-0.009
-394.121	-20.525	0.088	0.055
-393.106	800.000	-0.076	0.255
-392.092	-100.581	0.152	-0.038
-391.077	800.000	-0.059	0.201
-390.063	-200.000	-0.012	0.211
-389.048	-110.618	-0.314	-0.065
-388.033	594.088	0.154	-0.382
-387.019	-200.000	0.008	0.059
-386.004	-200.000	-0.005	0.315
-384.990	188.786	0.125	0.188
-383.975	63.213	-0.160	-0.161
-382.960	-135.964	0.100	-0.012
-381.946	-164.340	-0.159	0.007
-380.931	131.079	0.184	-0.237
-379.917	197.848	0.052	-0.080
-378.902	-161.098	-0.099	0.005
-377.888	116.678	0.166	0.205
-376.873	-69.871	0.194	-0.074
-375.858	249.363	-0.062	-0.106
-374.844	359.628	-0.042	-0.085
-373.829	-30.081	0.197	-0.113
-372.815	-200.000	0.039	-0.212
-371.800	111.861	-0.105	-0.127
-370.785	-162.702	-0.187	0.009
-369.771	183.163	-0.105	-0.156
-368.756	-51.096	-0.251	0.118
-367.742	104.789	-0.274	0.324
-366.727	188.115	0.016	-0.024
-365.712	-170.822	0.252	-0.009
-364.698	68.668	-0.299	-0.308
-363.683	-200.000	-0.014	0.191
-362.669	47.314	-0.221	0.207
-361.654	-128.215	0.134	0.019
-360.639	-60.190	-0.155	0.066
-359.625	-39.881	0.139	0.073
-358.610	-72.644	-0.134	0.050
-357.596	15.457	0.166	0.131
-356.581	-148.583	0.326	0.027
-355.566	544.190	0.083	-0.199
-354.552	7.418	0.078	0.058
-353.537	-115.080	-0.179	0.034
-352.523	-67.980	0.259	0.101
-351.508	-200.000	-0.051	0.303
-350.493	13.992	-0.148	-0.116
-349.479	-4.829	-0.192	-0.133
-348.464	-200.000	-0.033	-0.151
-347.450	-92.378	0.344	0.097
-346.435	800.000	0.098	0.359
-345.420	608.207	0.037	0.092
-344.406	800.000	-0.103	-0.329
-343.391	-142.412	-0.337	0.033
-342.377	-200.000	-0.040	0.240
-341.362	-200.000	0.026	-0.117
-340.348	232.172	-0.105	-0.172
-339.333	-26.950	-0.154	0.090
-338.318	-200.000	0.014	0.145
-337.304	109.978	0.369	-0.444
-336.289	-200.000	0.002	0.252
-335.275	-78.127	-0.286	0.099
-334.260	-41.431	-0.031	0.016
-333.245	-200.000	0.022	-0.145
-332.231	-200.000	-0.007	0.133
-331.216	800.000	0.025	0.081
-330.202	300.157	-0.015	0.027
-329.187	-92.416	-0.198	-0.056
-328.172	-34.584	-0.059	0.032
-327.158	14.979	-0.135	-0.106
-326.143	-125.255	0.020	-0.003
-325.129	-67.841	0.176	-0.069
-324.114	-100.759	-0.119	0.029
-323.099	-43.193	-0.139	-0.070
-322.085	-52.648	-0.387	-0.179
-321.070	-81.658	0.212	0.070
-320.056	-3.299	0.202	-0.141
-319.041	-55.352	0.283	0.127
-318.026	509.246	-0.077	0.180
-317.012	-200.000	0.002	-0.255
-315.997	-200.000	-0.002	-0.130
-314.983	761.991	-0.129	-0.351
-313.968	-32.095	-0.196	0.110
-312.953	-200.000	0.016	0.090
-311.939	119.512	0.071	0.088
-310.924	-55.730	-0.362	-0.162
-309.910	73.165	-0.057	-0.059
-308.895	-40.886	0.041	-0.021
-307.880	-96.487	-0.072	0.019
-306.866	128.684	-0.100	0.128
-305.851	-200.000	-0.037	0.236
-304.837	-130.256	0.130	-0.018
-303.822	51.437	-0.104	-0.099
-302.807	7.582	-0.228	-0.171
-301.793	-15.705	-0.328	0.210
-300.778	51.108	0.115	-0.109
-299.764	-34.132	-0.100	0.055
-298.749	153.892	-0.033	-0.045
-297.735	-126.295	0.227	0.034
-296.720	-62.499	-0.500	-0.208
-295.705	279.333	0.123	0.221
-294.691	-31.991	0.314	0.176
-293.676	800.000	0.033	0.104
-292.662	-200.000	0.039	0.360
-291.647	-200.000	-0.018	0.117
-290.632	-57.009	-0.132	-0.058
-289.618	-56.255	0.408	0.182
-288.603	125.477	-0.099	0.126
-287.589	-200.000	-0.045	0.322
-286.574	-200.000	-0.314	-0.001
-285.559	0.128	0.185	0.132
-284.545	-14.735	0.220	-0.141
-283.530	-63.956	-0.197	0.081
-282.516	-33.828	0.445	0.246
-281.501	-151.016	0.226	-0.017
-280.486	-63.994	0.122	-0.050
-279.472	5.868	0.106	0.079
-278.457	146.107	-0.039	-0.053
-277.443	41.139	-0.152	-0.137
-276.428	800.000	-0.061	-0.178
-275.413	746.995	-0.093	0.252
-274.399	-18.071	0.203	0.128
-273.384	83.244	0.259	-0.282
-272.370	-108.904	-0.084	0.018
-271.355	800.000	0.062	0.224
-270.340	800.000	0.052	-0.219
-269.326	418.751	0.047	-0.100
-268.311	-10.188	-0.138	-0.091
-267.297	-172.192	-0.073	-0.002
-266.282	-98.615	0.212	-0.054
-265.267	60.200	-0.212	0.209
-264.253	-183.449	-0.234	0.004
-263.238	-200.000	0.006	-0.038
-262.224	-59.282	0.292	-0.126
-261.209	-200.000	-0.032	-0.204
-260.195	-185.157	-0.197	-0.003
-259.180	-64.749	0.329	-0.133
-258.165	55.961	0.268	0.260
-257.151	92.138	-0.184	0.207
-256.136	-127.438	-0.186	-0.027
-255.122	-200.000	0.028	0.153
-254.107	-85.314	-0.235	-0.073
-253.092	800.000	-0.017	-0.064
-252.078	-159.989	-0.115	0.006
-251.063	-200.000	0.013	0.169
-250.049	-123.253	-0.145	0.023
-249.034	-200.000	0.036	0.219
-248.019	66.179	-0.125	0.127
-247.005	-155.688	0.304	0.019
-245.990	-71.355	0.151	0.057
-244.976	-152.774	0.103	0.007
-243.961	282.110	0.033	-0.060
-242.946	-34.188	0.197	0.108
-241.932	800.000	-0.046	0.173
-240.917	-92.093	0.184	0.052
-239.903	-30.240	-0.331	-0.188
-238.888	154.880	-0.095	0.131
-237.873	346.300	-0.176	-0.345
-236.859	26.262	-0.047	0.039
-235.844	-14.504	-0.199	-0.128
-234.830	286.348	0.147	0.265
-233.815	-120.618	0.107	0.018
-232.800	474.368	-0.068	-0.152
-231.786	-200.000	0.003	-0.378
-230.771	-5.675	0.278	-0.190
-229.757	-200.000	0.006	0.089
-228.742	4.256	-0.222	-0.162
-227.727	800.000	0.165	-0.506
-226.713	-200.000	-0.020	-0.268
-225.698	-23.268	0.229	-0.138
-224.684	83.676	0.152	0.166
-223.669	398.002	-0.201	0.419
-222.655	185.239	0.121	0.180
-221.640	43.416	0.135	0.124
-220.625	-200.000	0.001	0.127
-219.611	-200.000	-0.041	-0.208
-218.596	-87.260	0.161	-0.049
-217.582	-27.785	0.336	0.194
-216.567	293.940	0.102	0.185
-215.552	-14.475	-0.096	-0.061
-214.538	256.738	-0.040	0.069
-213.523	535.310	-0.143	0.340
-212.509	-63.072	-0.315	0.130
-211.494	-156.300	-0.307	-0.019
-210.479	14.972	0.355	0.277
-209.465	-152.720	0.342	-0.024
-208.450	-87.136	0.281	0.085
-207.436	49.622	-0.172	0.162
-206.421	201.538	0.058	-0.089
-205.406	4.585	-0.455	0.333
-204.392	-102.738	0.353	0.084
-203.377	162.896	0.185	0.260
-202.363	229.491	0.137	-0.224
-201.348	800.000	0.048	-0.207
-200.333	-72.037	0.350	0.130
-199.319	-181.105	-0.077	0.002
-198.304	-200.000	0.024	0.205
-197.290	484.267	0.109	-0.248
-196.275	345.833	0.031	-0.061
-195.260	-52.304	-0.251	0.116
-194.246	29.680	0.035	-0.030
-193.231	16.839	0.139	0.110
-192.217	-200.000	0.070	0.346
-191.202	-49.721	0.293	-0.139
-190.187	-200.000	-0.071	-0.371
-189.173	-63.760	0.509	0.208
-188.158	-200.000	-0.003	0.161
-187.144	-158.523	0.123	-0.007
-186.129	-17.720	0.229	0.144
-185.114	-33.993	0.184	0.101
-184.100	-159.020	-0.082	0.005
-183.085	-200.000	0.054	0.501
-182.071	-200.000	0.021	-0.205
-181.056	-5.660	-0.137	0.093
-180.042	102.681	-0.107	-0.125
-179.027	-117.380	0.245	-0.044
-178.012	194.859	0.087	-0.131
-176.998	83.997	-0.133	0.145
-175.983	800.000	0.021	-0.066
-174.969	15.374	0.212	0.166
-173.954	-68.509	0.125	-0.048
-172.939	-8.744	0.399	-0.267
-171.925	-200.000	-0.032	-0.193
-170.910	72.004	0.181	0.188
-169.896	23.342	0.142	0.116
-168.881	367.678	-0.030	0.060
-167.866	587.417	-0.132	-0.323
-166.852	109.366	0.135	-0.161
-165.837	62.247	-0.153	-0.152
-164.823	800.000	-0.041	0.122
-163.808	-189.419	-0.074	-0.001
-162.793	-133.890	0.104	-0.013
-161.779	-128.137	-0.326	0.046
-160.764	603.211	0.054	0.134
-159.750	-0.163	-0.141	0.100
-158.735	-34.138	0.199	-0.109
-157.720	-200.000	0.000	-0.174
-156.706	240.496	-0.188	0.311
-155.691	686.326	0.059	0.153
-154.677	108.708	0.326	-0.388
-153.662	-105.050	-0.166	-0.038
-152.647	-200.000	0.020	-0.121
-151.633	800.000	-0.059	0.253
-150.618	-83.180	-0.293	0.094
-149.604	-37.958	-0.137	0.073
-148.589	-87.293	-0.229	-0.069
-147.574	213.916	0.076	0.120
-146.560	-59.706	0.327	-0.139
-145.545	316.102	0.075	0.140
-144.531	-129.714	0.368	-0.051
-143.516	-198.212	0.159	0.001
-142.502	800.000	-0.064	-0.209
-141.487	-170.990	-0.404	0.014
-140.472	-96.164	0.053	-0.014
-139.458	-25.895	0.193	-0.113
-138.443	144.257	0.035	0.047
-137.429	-33.828	0.170	0.093
-136.414	63.627	0.167	0.167
-135.399	31.597	-0.151	-0.129
-134.385	800.000	0.069	0.262
-133.370	113.496	-0.067	0.081
-132.356	679.192	0.016	-0.042
-131.341	-200.000	-0.005	0.173
-130.326	-16.970	0.425	0.267
-129.312	-200.000	0.023	0.180
-128.297	-14.263	-0.171	-0.110
-127.283	83.990	-0.144	0.156
-126.268	-200.000	0.006	-0.034
-125.253	20.093	0.193	-0.155
-124.239	-117.607	-0.382	-0.068
-123.224	3.921	0.151	-0.110
-122.210	238.072	-0.100	0.165
-121.195	42.295	-0.111	-0.100
-120.180	-108.956	0.069	0.015
-119.166	-200.000	0.049	0.325
-118.151	800.000	-0.024	0.094
-117.137	-10.147	-0.046	-0.031
-116.122	-24.454	0.303	-0.180
-115.107	-136.817	-0.336	-0.038
-114.093	-106.342	0.253	0.056
-113.078	31.504	-0.104	-0.089
-112.064	688.092	0.085	-0.221
-111.049	-200.000	-0.035	-0.277
-110.034	195.007	0.159	0.240
-109.020	-60.315	0.130	0.055
-108.005	800.000	-0.055	-0.170
-106.991	-200.000	0.011	0.116
-105.976	103.410	-0.220	0.257
-104.962	189.866	0.139	0.208
-103.947	-124.692	0.222	0.034
-102.932	-13.673	0.020	0.013
-101.918	-200.000	0.001	0.240
-100.903	-200.000	-0.115	0.508
-99.889	-131.405	0.338	0.044
-98.874	475.076	0.133	-0.299
-97.859	-162.963	-0.235	0.011
-96.845	756.365	-0.049	0.133
-95.830	-55.074	-0.291	-0.130
-94.816	58.054	0.101	0.098
-93.801	-200.000	-0.007	-0.058
-92.786	-29.840	0.353	-0.200
-91.772	673.659	0.057	0.148
-90.757	575.561	-0.032	-0.078
-89.743	-39.208	0.114	0.059
-88.728	-200.000	0.013	-0.090
-87.713	-134.966	0.306	0.037
-86.699	800.000	-0.072	-0.229
-85.684	379.900	0.039	-0.079
-84.670	60.881	-0.094	0.092
-83.655	-1.116	-0.323	-0.227
-82.640	800.000	0.083	-0.303
-81.626	224.027	0.042	0.067
-80.611	178.791	0.162	0.235
-79.597	-46.284	-0.230	0.112
-78.582	-161.654	0.255	0.013
-77.567	-200.000	0.027	-0.208
-76.553	-68.608	0.083	-0.032
-75.538	-165.257	0.245	0.011
-74.524	-200.000	0.019	0.098
-73.509	-13.572	0.306	-0.197
-72.494	-30.338	0.253	-0.143
-71.480	-45.313	0.045	0.022
-70.465	189.529	0.095	0.141
-69.451	779.447	0.084	-0.228
-68.436	234.137	-0.089	0.145
-67.422	-200.000	0.008	0.472
-66.407	702.057	-0.024	-0.062
-65.392	213.832	0.164	0.257
-64.378	-122.939	0.120	0.019
-63.363	347.083	-0.094	0.185
-62.349	71.863	-0.197	0.204
-61.334	53.701	-0.805	-0.767
-60.319	-200.000	-0.035	0.657
-59.305	-200.000	-0.161	-1.064
-58.290	61.915	0.691	0.683
-57.276	597.888	0.641	1.576
-56.261	-200.000	93.939	554.122
-55.246	614.161	1384.808	3441.423
-54.232	185.900	2600.944	3835.990
-53.217	122.049	2195.604	2719.157
-52.203	47.188	1645.866	1519.923
-51.188	38.815	1380.652	1223.036
-50.173	35.444	1337.669	1164.502
-49.159	55.899	1385.692	1333.069
-48.144	60.215	1403.138	1376.411
-47.130	39.148	1358.502	1205.267
-46.115	35.496	1340.527	1167.120
-45.100	35.209	1336.055	1161.443
-44.086	35.192	1333.052	1158.681
-43.071	35.094	1331.025	1156.280
-42.057	35.024	1329.391	1154.395
-41.042	35.126	1327.386	1153.222
-40.027	35.099	1325.600	1151.461
-39.013	35.228	1323.339	1150.227
-37.998	35.249	1321.663	1148.851
-36.984	35.315	1319.746	1147.531
-35.969	35.280	1318.400	1146.106
-34.954	35.356	1315.999	1144.431
-33.940	35.297	1315.150	1143.294
-32.925	35.409	1313.502	1142.480
-31.911	35.424	1311.806	1141.054
-30.896	35.396	1310.751	1139.923
-29.881	35.357	1309.410	1138.481
-28.867	35.446	1307.787	1137.549
-27.852	35.399	1306.475	1136.084
-26.838	35.470	1304.769	1134.978
-25.823	35.429	1303.820	1133.861
-24.809	35.479	1301.870	1132.420
-23.794	35.344	1300.639	1130.505
-22.779	35.345	1299.477	1129.456
-21.765	35.390	1298.301	1128.653
-20.750	35.352	1297.205	1127.434
-19.736	35.251	1295.791	1125.566
-18.721	35.192	1294.492	1124.049
-17.706	35.292	1292.943	1123.245
-16.692	35.266	1291.951	1122.187
-15.677	35.205	1290.794	1120.783
-14.663	35.235	1289.908	1120.144
-13.648	35.215	1288.361	1118.634
-12.633	35.303	1287.220	1118.116
-11.619	35.215	1286.889	1117.269
-10.604	35.190	1285.610	1115.969
-9.590	35.161	1285.113	1115.325
-8.575	35.211	1284.132	1114.722
-7.560	35.229	1283.486	1114.219
-6.546	35.250	1282.389	1113.345
-5.531	35.144	1281.301	1111.741
-4.517	35.140	1280.543	1111.014
-3.502	35.128	1279.792	1110.254
-2.487	35.216	1278.332	1109.448
-1.473	35.307	1274.084	1106.242
-0.458	34.193	1259.382	1087.079
0.556	32.370	1240.520	1045.686
1.571	28.077	1244.705	1025.119
2.586	26.519	1258.822	1027.810
3.600	24.488	1246.055	1005.869
4.615	18.396	1171.734	913.409
5.629	9.424	1094.149	807.986
6.644	5.042	1072.969	770.662
7.659	4.625	1070.320	766.633
8.673	4.386	1068.849	764.334
9.688	4.499	1067.480	763.845
10.702	5.168	1066.635	766.457
11.717	10.942	1075.049	800.941
12.731	19.240	1087.179	851.067
13.746	22.342	1089.770	868.349
14.761	21.789	1088.686	864.686
15.775	20.941	1086.444	858.651
16.790	19.855	1084.772	851.910
17.804	19.215	1083.400	847.607
18.819	18.939	1081.956	845.047
19.834	18.816	1081.249	843.818
20.848	18.542	1081.249	842.396
21.863	18.420	1080.376	841.044
22.877	18.360	1079.208	839.766
23.892	18.231	1078.538	838.534
24.907	18.310	1077.578	838.102
25.921	18.251	1076.565	836.950
26.936	18.263	1075.091	835.790
27.950	18.313	1073.941	835.067
28.965	18.416	1072.356	834.264
29.980	18.625	1071.006	834.156
30.994	18.637	1069.841	833.232
32.009	18.725	1068.694	832.689
33.023	18.701	1067.732	831.754
34.038	18.561	1066.730	830.221
35.053	18.428	1065.952	828.896
36.067	18.453	1064.847	828.086
37.082	18.450	1064.585	827.792
38.096	18.541	1063.466	827.289
39.111	18.516	1063.113	826.821
40.126	18.311	1061.836	824.766
41.140	18.147	1060.309	822.721
42.155	18.050	1058.906	821.095
43.169	17.856	1057.953	819.347
44.184	17.929	1056.841	818.768
45.199	17.979	1055.796	818.121
46.213	17.985	1055.339	817.725
47.228	18.233	1054.504	818.194
48.242	18.493	1053.284	818.414
49.257	18.369	1052.683	817.282
50.271	18.324	1051.770	816.289
51.286	18.479	1050.704	816.127
52.301	18.334	1050.113	814.904
53.315	18.303	1048.718	813.601
54.330	18.053	1048.048	811.824
55.344	18.190	1047.000	811.591
56.359	18.124	1045.993	810.426
57.374	18.071	1045.136	809.437
58.388	18.072	1044.122	808.586
59.403	17.949	1043.193	807.215
60.417	17.752	1042.583	805.740
61.432	17.866	1042.168	805.884
62.447	17.804	1041.398	804.925
63.461	17.762	1040.532	803.988
64.476	17.584	1039.835	802.540
65.490	17.651	1038.702	801.911
66.505	17.796	1037.786	801.814
67.520	17.876	1036.684	801.267
68.534	17.899	1035.922	800.714
69.549	17.788	1035.634	799.899
70.563	17.684	1034.868	798.752
71.578	17.713	1032.870	797.275
72.593	17.516	1033.054	796.426
73.607	17.505	1032.346	795.756
74.622	17.606	1031.965	795.863
75.636	17.654	1030.934	795.222
76.651	17.646	1030.084	794.457
77.666	17.668	1029.693	794.192
78.680	17.725	1028.967	793.826
79.695	17.851	1028.176	793.730
80.709	17.931	1027.373	793.411
81.724	18.019	1026.945	793.422
82.739	18.208	1026.250	793.691
83.753	18.410	1025.901	794.288
84.768	18.630	1025.015	794.550
85.782	18.685	1024.204	794.106
86.797	18.586	1023.727	793.207
87.812	18.435	1022.426	791.430
88.826	18.462	1021.467	790.743
89.841	18.571	1020.147	790.154
90.855	18.427	1020.158	789.430
91.870	18.572	1018.798	788.976
92.884	18.581	1017.992	788.322
93.899	18.618	1016.862	787.545
94.914	18.654	1016.357	787.253
95.928	18.633	1015.588	786.487
96.943	18.512	1014.375	784.927
97.957	18.479	1013.797	784.260
98.972	18.471	1013.022	783.551
99.987	18.656	1011.692	783.301
101.001	18.562	1010.983	782.251
102.016	18.501	1010.125	781.240
103.030	18.574	1009.492	781.015
104.045	18.527	1008.408	779.893
105.060	18.348	1007.679	778.446
106.074	18.131	1006.579	776.544
107.089	17.847	1005.448	774.312
108.103	17.840	1004.547	773.520
109.118	17.853	1003.610	772.788
110.133	17.671	1002.543	771.077
111.147	17.743	1001.421	770.471
112.162	17.888	1000.890	770.647
113.176	18.075	1000.183	770.878
114.191	18.193	999.077	770.487
115.206	18.108	998.694	769.745
116.220	17.976	997.696	768.309
117.235	17.988	996.913	767.694
118.249	17.932	995.902	766.595
119.264	17.847	995.051	765.491
120.279	17.907	994.381	765.177
121.293	17.912	993.373	764.356
122.308	17.765	992.727	763.134
123.322	17.699	991.618	761.921
124.337	17.801	990.229	761.239
125.352	17.802	989.299	760.465
126.366	17.860	988.063	759.702
127.381	17.878	987.199	759.053
128.395	17.853	986.423	758.277
129.410	17.793	985.928	757.562
130.424	17.930	984.894	757.311
131.439	18.059	983.987	757.117
132.454	17.973	983.459	756.263
133.468	18.138	982.694	756.337
134.483	18.155	981.584	755.490
135.497	18.117	981.059	754.852
136.512	18.137	980.021	754.075
137.527	18.169	979.440	753.701
138.541	17.956	978.691	752.121
139.556	18.247	977.631	752.520
140.570	18.411	976.987	752.678
141.585	18.532	976.198	752.536
142.600	18.544	975.452	751.946
143.614	18.672	974.570	751.762
144.629	18.647	974.160	751.266
145.643	18.649	972.642	750.040
146.658	18.369	972.062	748.305
147.673	18.326	970.585	746.911
148.687	18.181	970.020	745.779
149.702	18.057	969.207	744.546
150.716	18.074	968.464	743.986
151.731	18.198	967.560	743.764
152.746	18.216	966.927	743.288
153.760	18.251	966.562	743.095
154.775	18.314	966.450	743.217
155.789	18.494	965.002	742.819
156.804	18.469	964.223	742.045
157.819	18.523	964.005	742.046
158.833	18.549	963.343	741.581
159.848	18.515	963.106	741.187
160.862	18.547	961.410	739.957
161.877	18.285	960.725	738.234
162.892	18.108	959.273	736.288
163.906	18.108	958.031	735.272
164.921	18.159	957.329	734.887
165.935	18.272	956.747	734.857
166.950	18.373	955.328	734.137
167.964	18.242	954.507	732.879
168.979	18.212	953.830	732.165
169.994	18.248	952.584	731.300
171.008	18.402	952.025	731.463
172.023	18.500	951.729	731.592
173.037	18.598	951.128	731.480
174.052	18.557	950.081	730.435
175.067	18.316	949.343	728.781
176.081	18.123	948.305	727.095
177.096	18.192	947.937	727.042
178.110	18.314	947.334	727.034
179.125	18.268	946.919	726.458
180.140	18.353	946.374	726.336
181.154	18.510	945.903	726.575
182.169	18.650	945.239	726.592
183.183	18.826	944.768	726.914
184.198	18.604	944.004	725.321
185.213	18.683	943.331	725.074
186.227	18.677	942.667	724.475
187.242	18.777	942.076	724.376
188.256	18.860	941.706	724.376
189.271	18.923	940.620	723.744
190.286	18.529	940.029	721.565
191.300	18.090	938.929	718.815
192.315	18.036	938.194	717.959
193.329	18.243	937.820	718.478
194.344	18.361	937.238	718.466
195.359	18.509	936.455	718.421
196.373	18.579	935.931	718.248
197.388	18.749	935.952	718.913
198.402	18.829	935.685	718.978
199.417	18.980	934.816	718.880
200.432	19.131	934.610	719.289
201.446	19.172	933.727	718.715
202.461	19.196	933.689	718.725
203.475	19.003	933.123	717.418
204.490	18.794	932.144	715.733
205.504	18.743	931.025	714.597
206.519	18.659	929.952	713.364
207.534	18.763	929.233	713.181
208.548	18.692	929.139	712.748
209.563	18.756	928.405	712.390
210.577	18.899	927.606	712.305
211.592	19.072	926.832	712.365
212.607	19.125	925.900	711.802
213.621	19.032	925.354	710.935
214.636	19.061	924.620	710.429
215.650	19.225	923.828	710.437
216.665	19.166	923.058	709.535
217.680	19.239	922.556	709.390
218.694	19.207	922.342	709.030
219.709	19.214	921.789	708.569
220.723	19.105	921.004	707.456
221.738	19.079	919.788	706.351
222.753	19.137	919.552	706.349
223.767	19.158	918.994	705.942
224.782	19.441	918.213	706.438
225.796	19.432	917.954	706.141
226.811	19.223	917.381	704.783
227.826	19.201	916.503	703.956
228.840	19.109	915.617	702.837
229.855	19.138	914.805	702.269
230.869	18.985	914.120	701.059
231.884	19.100	913.061	700.650
232.899	18.959	912.703	699.740
233.913	18.850	911.935	698.650
234.928	18.794	911.463	697.996
235.942	18.830	910.546	697.379
236.957	18.898	910.071	697.229
237.972	18.886	909.662	696.805
238.986	18.961	908.441	696.114
240.001	18.998	908.156	695.982
241.015	19.087	907.521	695.794
242.030	19.179	906.937	695.654
243.045	19.141	906.305	694.957
244.059	19.191	905.574	694.538
245.074	19.239	905.376	694.515
246.088	19.348	904.487	694.212
247.103	19.461	904.191	694.376
248.117	19.512	903.944	694.332
249.132	19.773	903.431	694.924
250.147	20.030	902.929	695.508
251.161	19.986	902.149	694.672
252.176	19.916	901.476	693.811
253.190	20.112	901.019	694.181
254.205	20.126	900.413	693.711
255.220	19.909	899.753	692.271
256.234	19.877	899.354	691.778
257.249	20.022	898.269	691.460
258.263	19.939	897.294	690.317
259.278	19.886	896.957	689.785
260.293	20.037	896.616	690.062
261.307	20.143	896.029	689.972
262.322	20.072	895.350	689.105
263.336	20.268	894.656	689.289
264.351	20.202	893.550	688.117
265.366	20.239	893.076	687.834
266.380	20.092	892.763	686.951
267.395	20.111	891.532	686.017
268.409	19.958	891.024	684.960
269.424	20.135	890.367	685.094
270.439	20.059	889.177	683.818
271.453	20.066	888.480	683.249
272.468	19.812	888.188	681.962
273.482	19.807	887.976	681.723
274.497	19.852	886.993	681.085
275.512	19.850	886.801	680.866
276.526	19.966	886.022	680.667
277.541	20.073	885.150	680.357
278.555	20.188	884.996	680.630
279.570	20.360	884.472	680.839
280.585	20.330	883.782	680.133
281.599	20.239	882.708	678.889
282.614	19.937	882.345	677.369
283.628	20.075	881.656	677.320
284.643	20.057	881.105	676.765
285.657	20.162	879.996	676.263
286.672	20.139	879.739	675.915
287.687	20.250	878.702	675.491
288.701	20.281	878.285	675.232
289.716	20.267	877.930	674.843
290.730	20.115	877.467	673.839
291.745	20.286	876.843	673.962
292.760	20.298	876.308	673.541
293.774	20.440	875.773	673.618
294.789	20.274	874.830	672.189
295.803	20.143	874.137	671.092
296.818	20.009	873.788	670.246
297.833	20.153	872.662	669.881
298.847	20.416	872.372	670.615
299.862	20.238	871.672	669.328
300.876	20.444	871.241	669.733
301.891	20.525	870.538	669.445
302.906	20.586	870.375	669.496
303.920	20.738	870.024	669.750
304.935	20.629	869.729	669.044
305.949	20.598	868.751	668.115
306.964	20.418	868.157	666.909
307.979	20.518	867.659	666.851
308.993	20.537	867.174	666.489
310.008	20.649	866.262	666.160
311.022	20.562	865.728	665.358
312.037	20.446	865.226	664.469
313.052	20.223	864.472	662.980
314.066	20.314	863.656	662.641
315.081	20.363	862.750	662.077
316.095	20.318	862.582	661.715
317.110	20.174	861.752	660.471
318.125	20.141	861.744	660.284
319.139	20.207	861.216	660.069
320.154	20.350	860.499	660.006
321.168	20.366	859.897	659.548
322.183	20.394	859.561	659.339
323.197	20.390	858.988	658.826
324.212	20.494	858.452	658.750
325.227	20.466	857.774	658.062
326.241	20.164	857.577	656.711
327.256	20.267	856.557	656.263
328.270	20.272	855.839	655.674
329.285	20.302	855.352	655.354
330.300	20.506	854.752	655.606
331.314	20.492	854.280	655.132
332.329	20.579	853.938	655.141
333.343	20.523	853.648	654.650
334.358	20.724	853.021	654.867
335.373	20.550	852.830	654.009
336.387	20.719	852.765	654.536
337.402	20.807	852.259	654.422
338.416	20.865	852.392	654.682
339.431	20.920	851.832	654.401
340.446	20.902	851.769	654.229
341.460	21.071	851.052	654.252
342.475	21.293	850.675	654.737
343.489	21.144	850.542	654.019
344.504	21.147	849.812	653.412
345.519	21.364	849.320	653.786
346.533	21.178	848.577	652.461
347.548	21.001	847.989	651.291
348.562	20.922	847.096	650.254
349.577	20.684	846.757	649.048
350.592	20.794	845.694	648.583
351.606	20.766	845.048	647.927
352.621	20.676	844.552	647.155
353.635	20.941	843.773	647.486
354.650	20.861	843.120	646.631
355.665	20.992	842.650	646.698
356.679	21.095	842.026	646.544
357.694	21.120	841.279	646.005
358.708	21.054	840.665	645.231
359.723	21.034	840.182	644.733
360.738	20.997	839.762	644.215
361.752	21.011	839.247	643.813
362.767	21.060	839.096	643.824
363.781	21.468	838.019	644.441
364.796	21.549	837.559	644.331
365.810	21.500	837.911	644.365
366.825	21.678	837.330	644.514
367.840	21.561	836.409	643.318
368.854	21.266	836.273	642.075
369.869	21.301	835.670	641.682
370.883	21.201	835.591	641.196
371.898	21.642	834.925	642.248
372.913	21.639	834.512	641.861
373.927	21.509	833.790	640.772
374.942	21.481	833.413	640.323
375.956	21.382	833.354	639.860
376.971	21.643	832.804	640.337
377.986	21.865	832.139	640.578
379.000	21.756	831.871	639.916
380.015	21.682	831.227	639.096
381.029	21.782	830.363	638.739
382.044	21.773	829.748	638.178
383.059	21.847	829.179	637.953
384.073	21.736	828.573	637.026
385.088	21.570	827.696	635.693
386.102	21.361	827.433	634.675
387.117	21.369	826.859	634.208
388.132	21.431	826.130	633.818
389.146	21.536	825.755	633.856
390.161	21.645	825.505	634.001
391.175	21.836	824.697	634.015
392.190	21.628	824.326	632.920
393.205	21.618	823.426	632.139
394.219	21.536	823.269	631.667
395.234	21.427	822.849	630.894
396.248	21.430	822.161	630.321
397.263	21.329	821.778	629.609
398.278	21.205	821.895	629.197
399.292	21.306	820.900	628.742
400.307	21.303	820.590	628.440
401.321	21.368	820.048	628.202
402.336	21.488	819.811	628.395
403.350	21.393	819.579	627.820
404.365	21.578	819.109	628.067
405.380	21.789	818.677	628.438
406.394	21.968	818.043	628.537
407.409	21.976	817.563	628.140
408.423	22.049	817.711	628.460
409.438	22.079	817.411	628.280
410.453	22.078	816.863	627.800
411.467	22.027	816.252	627.093
412.482	22.233	815.766	627.401
413.496	22.219	815.834	627.346
414.511	22.249	815.182	626.896
415.526	22.182	814.714	626.242
416.540	22.168	813.893	625.508
417.555	22.279	813.349	625.427
418.569	22.140	813.431	624.943
419.584	22.104	812.874	624.330
420.599	22.178	812.338	624.127
421.613	158.561	1369.110	1788.388
422.628	138.023	1450.242	1788.509
