DTS Sentinel unit serial number:	SN413079Multiplexer serial number:	ORYXHardware model number:	OX4-SRSoftware version number:	ORYX F/W v4.00 Oryx Data Collector v3.7.2.0data status	okinstallation	princeton_trtdifferential loss correction	single-endedforward channel	channel 1reverse channel	N/Adate	2019/09/11time	21:20:11forward acquisition time	60.00reverse acquisition time	0.00gamma	496.2192k internal	0.2309k external	0.2309temperature offset calibration	1.0050default loss term (dB/km)	0.3790temperature slope calibration	1.0000multiplexer offset coefficient	1.0000multiplexer slope coefficient	1.0000fibre end	0.00T internal ref (°C)	36.23T ext. ref 1 (°C)	1.59T ext. ref 2 (°C)	30.09length (m)	temperature (°C)	Stokes	anti-Stokes-747.200	-83.293	0.157	-0.051
-746.185	800.000	-0.142	0.401
-745.171	800.000	0.057	0.218
-744.156	-118.185	-0.512	0.093
-743.142	-133.057	0.294	0.038
-742.127	-200.000	0.021	0.231
-741.112	200.732	0.143	-0.223
-740.098	614.675	-0.020	0.051
-739.083	-42.436	-0.280	0.145
-738.069	148.675	-0.162	0.223
-737.054	-133.891	0.172	0.022
-736.039	292.936	-0.078	0.145
-735.025	117.316	0.150	0.187
-734.010	208.548	-0.094	-0.150
-732.996	113.493	-0.156	0.192
-731.981	-200.000	-0.039	0.403
-730.966	-107.496	0.210	0.047
-729.952	-166.498	-0.176	-0.007
-728.937	-200.000	-0.005	-0.174
-727.923	-61.051	-0.226	0.097
-726.908	-200.000	-0.010	-0.283
-725.894	132.128	-0.054	-0.071
-724.879	-32.199	-0.244	-0.139
-723.864	58.588	-0.080	-0.079
-722.850	-200.000	-0.009	0.232
-721.835	-200.000	-0.033	-0.291
-720.821	-129.054	-0.186	0.026
-719.806	-10.378	-0.316	-0.213
-718.791	-26.809	0.151	0.089
-717.777	-200.000	-0.008	0.203
-716.762	615.537	-0.048	0.123
-715.748	378.464	0.028	0.059
-714.733	-183.245	-0.343	0.006
-713.718	-171.534	0.224	0.008
-712.704	-141.976	0.289	0.029
-711.689	61.535	-0.176	-0.177
-710.675	243.901	0.281	0.478
-709.660	-200.000	0.004	-0.226
-708.645	189.563	-0.105	-0.160
-707.631	800.000	-0.034	-0.116
-706.616	180.392	0.151	-0.225
-705.602	121.162	-0.103	0.131
-704.587	576.891	0.120	-0.298
-703.572	-200.000	-0.036	-0.166
-702.558	-81.252	0.112	-0.038
-701.543	459.501	0.208	-0.469
-700.529	130.245	-0.238	0.309
-699.514	103.165	-0.153	0.181
-698.499	800.000	-0.033	0.106
-697.485	25.982	-0.088	0.074
-696.470	-169.010	0.211	-0.008
-695.456	73.741	-0.019	0.020
-694.441	322.954	-0.055	0.107
-693.426	-23.787	0.139	0.085
-692.412	-31.672	0.039	0.022
-691.397	-200.000	-0.051	-0.411
-690.383	-86.053	-0.371	-0.116
-689.368	123.663	-0.012	-0.015
-688.354	-70.498	-0.199	0.077
-687.339	252.171	-0.170	0.293
-686.324	-73.320	0.126	-0.047
-685.310	52.831	-0.023	-0.022
-684.295	-52.142	0.264	-0.124
-683.281	800.000	-0.048	-0.178
-682.266	-200.000	-0.009	-0.236
-681.251	-50.703	-0.359	0.171
-680.237	266.619	-0.159	0.281
-679.222	303.063	-0.102	-0.192
-678.208	1.789	-0.069	0.051
-677.193	800.000	0.095	-0.420
-676.178	-128.962	-0.420	0.060
-675.164	-46.767	-0.261	0.129
-674.149	800.000	0.063	0.222
-673.135	-77.678	-0.168	0.059
-672.120	-200.000	-0.011	-0.114
-671.105	64.924	-0.284	0.290
-670.091	342.409	-0.046	-0.091
-669.076	136.390	0.160	-0.212
-668.062	-29.346	0.227	-0.132
-667.047	433.095	-0.055	-0.121
-666.032	-124.802	-0.189	-0.030
-665.018	-100.755	0.230	0.057
-664.003	-60.062	-0.296	0.128
-662.989	-200.000	0.005	0.218
-661.974	-200.000	0.056	0.301
-660.959	194.287	-0.133	-0.204
-659.945	202.675	0.047	0.074
-658.930	-200.000	-0.002	-0.247
-657.916	-187.794	0.300	-0.004
-656.901	-45.960	-0.228	-0.114
-655.886	97.208	-0.123	0.143
-654.872	125.284	0.141	0.181
-653.857	-75.769	0.316	-0.113
-652.843	800.000	-0.027	-0.086
-651.828	1.432	-0.276	-0.201
-650.814	363.961	-0.043	-0.088
-649.799	-28.708	0.196	-0.114
-648.784	197.039	-0.236	-0.365
-647.770	-200.000	0.011	0.242
-646.755	279.763	-0.168	0.304
-645.741	505.996	0.127	0.298
-644.726	-200.000	-0.059	-0.436
-643.711	19.909	0.131	-0.107
-642.697	516.908	-0.034	0.080
-641.682	25.973	0.295	-0.249
-640.668	454.751	0.068	-0.154
-639.653	299.785	0.152	-0.283
-638.638	77.162	-0.121	-0.130
-637.624	498.851	-0.025	0.059
-636.609	800.000	0.064	-0.236
-635.595	-57.971	-0.151	-0.067
-634.580	800.000	0.086	0.251
-633.565	-87.584	0.234	0.071
-632.551	166.654	0.053	0.076
-631.536	-200.000	0.036	0.219
-630.522	98.431	-0.171	0.199
-629.507	-155.665	-0.295	-0.019
-628.492	85.396	0.186	0.207
-627.478	-200.000	-0.025	-0.347
-626.463	-34.408	-0.169	0.094
-625.449	44.466	0.149	-0.138
-624.434	-33.537	0.132	0.074
-623.419	-43.852	-0.235	0.120
-622.405	717.521	-0.127	0.342
-621.390	-200.000	-0.054	0.465
-620.376	-70.927	-0.117	0.045
-619.361	-200.000	0.014	0.109
-618.346	83.392	-0.237	-0.261
-617.332	800.000	0.147	-0.477
-616.317	-47.600	-0.066	0.033
-615.303	800.000	-0.099	-0.386
-614.288	-135.019	0.063	0.008
-613.273	-4.450	-0.197	0.137
-612.259	-35.162	0.453	0.250
-611.244	246.781	0.185	0.316
-610.230	-18.170	-0.146	0.092
-609.215	-187.891	-0.082	0.001
-608.201	-51.391	-0.253	-0.120
-607.186	192.772	0.206	0.314
-606.171	800.000	-0.033	-0.124
-605.157	-9.962	0.155	0.104
-604.142	244.794	0.009	0.015
-603.128	-101.523	0.009	0.002
-602.113	-86.527	0.139	0.043
-601.098	-57.108	0.186	-0.083
-600.084	-106.453	-0.032	-0.007
-599.069	-1.084	0.283	0.202
-598.055	15.793	-0.153	-0.121
-597.040	97.468	0.263	-0.305
-596.025	224.684	-0.118	0.193
-595.011	312.515	0.126	0.240
-593.996	170.487	-0.215	-0.311
-592.982	800.000	0.130	-0.458
-591.967	141.053	-0.063	-0.084
-590.952	-200.000	0.097	-0.493
-589.938	176.362	0.054	0.079
-588.923	-151.114	-0.203	-0.015
-587.909	-197.439	-0.074	-0.000
-586.894	169.607	-0.160	-0.231
-585.879	-200.000	0.012	-0.070
-584.865	352.055	0.087	0.174
-583.850	-200.000	0.023	0.274
-582.836	-200.000	-0.003	0.223
-581.821	96.377	-0.234	0.270
-580.806	-200.000	0.010	-0.254
-579.792	-50.437	0.206	-0.098
-578.777	800.000	-0.022	0.067
-577.763	-200.000	-0.010	0.182
-576.748	-123.802	-0.213	0.034
-575.733	-200.000	-0.042	-0.287
-574.719	-185.001	-0.124	0.002
-573.704	120.833	-0.103	-0.130
-572.690	-97.870	-0.287	0.075
-571.675	108.428	0.253	-0.305
-570.661	193.244	-0.123	0.188
-569.646	-25.713	0.190	-0.113
-568.631	-169.598	-0.268	0.010
-567.617	237.164	0.106	-0.177
-566.602	800.000	0.058	0.217
-565.588	220.058	-0.151	0.244
-564.573	-41.779	0.275	-0.142
-563.558	800.000	-0.022	-0.085
-562.544	3.543	-0.250	-0.184
-561.529	130.455	-0.199	-0.257
-560.515	-80.218	-0.256	-0.086
-559.500	-200.000	-0.034	-0.335
-558.485	-55.303	0.029	0.013
-557.471	46.987	0.089	0.084
-556.456	147.953	0.233	-0.317
-555.442	124.696	0.086	0.110
-554.427	-34.395	-0.107	0.059
-553.412	87.057	-0.098	-0.109
-552.398	-95.426	0.116	-0.031
-551.383	320.634	-0.074	0.142
-550.369	55.746	0.394	-0.385
-549.354	-26.193	-0.242	-0.143
-548.339	-200.000	0.019	0.127
-547.325	219.124	-0.095	0.153
-546.310	-200.000	0.009	-0.078
-545.296	800.000	0.101	-0.309
-544.281	-177.951	-0.258	-0.006
-543.266	432.925	-0.175	-0.384
-542.252	-79.687	0.233	-0.079
-541.237	-104.944	0.047	0.011
-540.223	-179.397	-0.282	0.006
-539.208	-77.571	0.419	-0.146
-538.193	-200.000	0.002	-0.099
-537.179	182.878	0.270	-0.402
-536.164	159.107	-0.166	0.232
-535.150	206.791	0.151	0.237
-534.135	-155.245	-0.081	-0.005
-533.121	8.586	-0.081	-0.062
-532.106	-200.000	-0.037	-0.210
-531.091	-10.304	-0.189	0.127
-530.077	-44.095	-0.079	0.040
-529.062	-74.418	0.132	0.048
-528.048	-33.950	-0.108	-0.060
-527.033	129.135	0.129	0.166
-526.018	-38.648	-0.263	0.140
-525.004	-43.645	0.098	0.050
-523.989	250.432	0.060	-0.103
-522.975	250.315	0.037	-0.063
-521.960	-200.000	-0.002	-0.150
-520.945	-147.834	-0.125	0.011
-519.931	232.449	0.019	0.032
-518.916	-95.585	-0.289	0.078
-517.902	-39.406	-0.307	0.162
-516.887	664.466	-0.050	0.129
-515.872	-15.783	-0.121	-0.077
-514.858	-200.000	0.025	0.228
-513.843	800.000	-0.047	-0.137
-512.829	-135.510	-0.202	0.024
-511.814	-58.079	0.186	0.082
-510.799	8.748	0.309	-0.234
-509.785	-183.461	-0.313	-0.005
-508.770	-15.136	0.386	0.249
-507.756	-70.923	0.262	-0.099
-506.741	355.757	-0.130	-0.260
-505.726	694.505	0.039	-0.103
-504.712	46.933	0.165	0.155
-503.697	-32.859	-0.563	0.315
-502.683	-200.000	-0.042	0.214
-501.668	-154.210	0.459	0.031
-500.653	155.549	-0.081	-0.112
-499.639	-200.000	0.124	0.547
-498.624	-173.095	0.542	0.017
-497.610	800.000	-0.029	0.092
-496.595	-72.338	-0.239	-0.089
-495.581	-101.678	-0.176	-0.043
-494.566	-77.122	-0.161	-0.056
-493.551	159.285	-0.154	-0.216
-492.537	473.657	0.135	-0.307
-491.522	-139.355	-0.247	-0.027
-490.508	468.477	-0.074	0.168
-489.493	-200.000	-0.023	0.209
-488.478	530.027	-0.023	-0.056
-487.464	-157.125	0.032	0.002
-486.449	800.000	-0.062	0.187
-485.435	-100.952	-0.015	0.004
-484.420	208.875	0.213	-0.335
-483.405	167.226	-0.021	0.029
-482.391	34.899	0.101	0.089
-481.376	800.000	-0.040	-0.138
-480.362	70.236	-0.138	0.143
-479.347	-177.751	0.246	0.006
-478.332	-131.351	-0.096	0.013
-477.318	-7.504	0.172	0.117
-476.303	-63.975	-0.120	-0.049
-475.289	-200.000	0.019	0.168
-474.274	209.812	0.117	-0.184
-473.259	-64.882	-0.334	-0.136
-472.245	289.096	-0.161	-0.294
-471.230	800.000	-0.022	-0.085
-470.216	-200.000	-0.008	-0.245
-469.201	-63.912	0.129	0.053
-468.186	800.000	0.015	-0.052
-467.172	31.138	-0.116	-0.100
-466.157	-15.684	-0.256	0.164
-465.143	164.907	-0.136	-0.193
-464.128	-104.736	-0.198	0.046
-463.113	-92.459	0.340	0.096
-462.099	800.000	0.061	-0.231
-461.084	-137.921	0.176	0.020
-460.070	38.752	0.285	0.255
-459.055	-200.000	0.022	0.105
-458.040	-70.037	-0.302	0.116
-457.026	-18.299	0.246	0.154
-456.011	310.774	-0.221	-0.416
-454.997	449.806	0.120	-0.267
-453.982	-167.495	-0.288	0.012
-452.968	349.055	-0.055	-0.109
-451.953	-156.005	-0.234	-0.015
-450.938	-67.558	0.072	0.028
-449.924	-94.074	0.234	-0.064
-448.909	-200.000	0.047	-0.217
-447.895	191.775	-0.118	-0.179
-446.880	-34.324	-0.060	0.033
-445.865	-200.000	-0.052	-0.320
-444.851	204.886	0.252	-0.392
-443.836	69.354	-0.121	-0.125
-442.822	97.678	0.162	0.187
-441.807	-106.222	0.193	-0.044
-440.792	-200.000	0.009	-0.103
-439.778	-109.333	0.121	0.026
-438.763	73.975	-0.220	0.232
-437.749	-200.000	-0.044	-0.232
-436.734	-99.133	0.377	-0.096
-435.719	-186.555	0.178	-0.003
-434.705	-20.129	-0.244	0.151
-433.690	254.286	-0.262	-0.450
-432.676	377.496	0.030	0.062
-431.661	-121.342	-0.149	0.025
-430.646	800.000	-0.082	0.288
-429.632	99.766	0.034	0.039
-428.617	11.515	0.040	0.031
-427.603	800.000	0.011	0.032
-426.588	-21.986	-0.224	-0.137
-425.573	61.614	-0.112	0.111
-424.559	-59.761	-0.235	0.101
-423.544	800.000	0.037	0.148
-422.530	-105.875	-0.155	-0.035
-421.515	-200.000	-0.084	0.387
-420.500	-200.000	-0.055	0.352
-419.486	-200.000	-0.080	0.454
-418.471	601.632	-0.052	0.129
-417.457	272.278	-0.131	-0.231
-416.442	179.609	0.089	0.131
-415.428	167.067	-0.221	-0.314
-414.413	66.009	-0.246	0.251
-413.398	212.851	0.196	0.310
-412.384	-19.126	-0.190	-0.118
-411.369	8.820	0.342	-0.259
-410.355	-17.658	0.043	-0.027
-409.340	771.847	0.143	0.392
-408.325	67.761	0.228	0.233
-407.311	-84.726	0.225	0.071
-406.296	619.311	-0.116	0.293
-405.282	-35.289	0.122	0.066
-404.267	-183.150	0.258	-0.005
-403.252	-200.000	-0.019	0.206
-402.238	-200.000	-0.040	-0.319
-401.223	800.000	0.129	-0.375
-400.209	616.150	-0.073	0.184
-399.194	-18.327	0.109	-0.068
-398.179	800.000	-0.139	-0.447
-397.165	-107.013	0.331	-0.073
-396.150	197.758	-0.217	-0.333
-395.136	275.182	-0.084	0.149
-394.121	-8.618	0.258	-0.173
-393.106	-45.311	0.199	-0.099
-392.092	-200.000	-0.086	-0.427
-391.077	-105.445	-0.064	-0.015
-390.063	-35.939	-0.389	0.211
-389.048	-200.000	0.005	0.228
-388.033	188.971	-0.068	-0.102
-387.019	20.132	0.082	0.067
-386.004	-200.000	0.028	-0.170
-384.990	-95.928	0.173	0.046
-383.975	-148.954	-0.250	-0.020
-382.960	285.824	-0.048	-0.087
-381.946	-99.108	-0.182	0.046
-380.931	98.365	-0.187	0.215
-379.917	-12.648	0.224	-0.146
-378.902	-14.399	0.163	0.105
-377.888	-200.000	-0.005	0.154
-376.873	-101.542	-0.317	-0.077
-375.858	-200.000	0.025	0.244
-374.844	-163.498	0.253	0.012
-373.829	-63.694	-0.185	0.076
-372.815	-200.000	0.050	-0.413
-371.800	-10.380	-0.227	0.150
-370.785	-200.000	0.008	0.250
-369.771	-28.420	0.123	-0.071
-368.756	288.856	-0.050	0.091
-367.742	155.573	0.180	-0.249
-366.727	123.430	-0.058	-0.073
-365.712	-200.000	-0.011	-0.149
-364.698	-85.357	0.272	0.085
-363.683	-200.000	0.003	0.479
-362.669	18.153	-0.177	-0.142
-361.654	133.841	-0.149	-0.194
-360.639	-52.458	0.089	0.041
-359.625	-200.000	0.055	0.400
-358.610	-200.000	0.029	-0.355
-357.596	-161.430	0.331	0.017
-356.581	115.460	-0.105	0.128
-355.566	701.387	0.024	-0.062
-354.552	-183.179	0.234	0.004
-353.537	-59.244	-0.037	0.016
-352.523	-200.000	-0.032	0.154
-351.508	-67.329	-0.398	0.156
-350.493	-200.000	-0.028	0.180
-349.479	247.307	-0.155	-0.262
-348.464	-146.880	-0.431	0.037
-347.450	-115.292	0.128	-0.024
-346.435	56.846	-0.109	-0.106
-345.420	225.791	0.171	-0.277
-344.406	-151.554	0.207	-0.015
-343.391	-90.745	0.145	-0.042
-342.377	-0.669	-0.254	-0.180
-341.362	-200.000	-0.014	-0.064
-340.348	-200.000	0.001	0.089
-339.333	364.717	-0.080	0.162
-338.318	-122.209	-0.197	-0.032
-337.304	-61.992	0.271	0.113
-336.289	-200.000	-0.019	-0.136
-335.275	-145.000	-0.061	0.006
-334.260	-123.627	-0.138	0.022
-333.245	-154.287	0.157	0.011
-332.231	98.999	0.174	0.201
-331.216	28.215	0.281	0.237
-330.202	-168.124	-0.043	-0.002
-329.187	594.010	-0.074	0.182
-328.172	-130.338	0.216	-0.029
-327.158	158.174	-0.138	0.191
-326.143	-200.000	-0.035	-0.194
-325.129	800.000	0.036	0.120
-324.114	72.360	0.117	0.122
-323.099	521.114	-0.109	0.255
-322.085	351.070	-0.017	-0.034
-321.070	-109.685	-0.314	-0.066
-320.056	-115.545	-0.256	-0.048
-319.041	-80.172	0.361	0.121
-318.026	360.172	-0.136	0.272
-317.012	271.086	-0.073	0.128
-315.997	-200.000	-0.010	0.072
-314.983	-100.758	-0.125	-0.031
-313.968	21.786	0.215	0.175
-312.953	-130.150	-0.158	0.022
-311.939	-200.000	0.030	0.158
-310.924	236.486	0.082	-0.136
-309.910	-148.281	0.319	0.026
-308.895	-200.000	0.031	-0.189
-307.880	-46.493	-0.160	0.079
-306.866	187.470	-0.082	-0.123
-305.851	28.764	0.026	-0.022
-304.837	-110.465	0.264	0.055
-303.822	99.849	-0.051	0.059
-302.807	-26.884	-0.260	0.152
-301.793	-184.334	-0.116	0.002
-300.778	-145.000	0.204	0.019
-299.764	-200.000	-0.039	0.179
-298.749	456.558	0.149	0.331
-297.735	-200.000	-0.002	-0.217
-296.720	-200.000	-0.002	-0.055
-295.705	-172.911	-0.154	-0.005
-294.691	33.062	0.141	0.122
-293.676	150.880	-0.138	-0.187
-292.662	-200.000	-0.055	-0.329
-291.647	-129.420	0.314	0.043
-290.632	5.060	0.152	-0.112
-289.618	-142.441	0.121	0.012
-288.603	-39.303	0.154	0.081
-287.589	519.954	0.037	-0.087
-286.574	800.000	-0.060	-0.202
-285.559	-77.392	0.098	-0.034
-284.545	545.926	-0.125	-0.298
-283.530	-73.903	0.226	0.082
-282.516	11.606	-0.270	0.207
-281.501	179.077	0.290	0.424
-280.486	89.092	-0.015	0.017
-279.472	137.045	-0.088	-0.115
-278.457	800.000	-0.064	-0.179
-277.443	-135.902	-0.342	0.040
-276.428	-73.359	-0.393	0.144
-275.413	75.718	0.167	0.176
-274.399	-200.000	0.022	0.185
-273.384	-40.268	-0.116	0.060
-272.370	151.679	0.153	0.208
-271.355	-103.436	-0.108	-0.025
-270.340	800.000	-0.025	0.099
-269.326	76.471	0.171	0.181
-268.311	225.549	0.180	0.290
-267.297	-40.754	-0.353	0.182
-266.282	-123.070	0.071	0.011
-265.267	396.451	0.009	-0.018
-264.253	-200.000	-0.050	-0.261
-263.238	387.761	-0.130	-0.268
-262.224	115.728	0.195	0.238
-261.209	800.000	-0.030	0.131
-260.195	-103.850	-0.289	0.067
-259.180	41.438	0.124	-0.112
-258.165	-164.631	0.138	-0.006
-257.151	-200.000	-0.031	0.189
-256.136	-135.126	-0.236	0.028
-255.122	-200.000	0.008	0.098
-254.107	-118.743	0.055	-0.010
-253.092	100.646	-0.077	-0.090
-252.078	225.928	0.132	0.214
-251.063	-36.887	0.036	0.019
-250.049	-127.686	0.197	0.028
-249.034	222.861	-0.158	-0.254
-248.019	71.933	0.141	-0.146
-247.005	-149.362	-0.397	0.031
-245.990	-88.888	-0.185	0.055
-244.976	-189.955	0.346	-0.004
-243.961	26.398	0.165	0.138
-242.946	800.000	0.011	-0.040
-241.932	-200.000	-0.043	-0.299
-240.917	108.089	-0.122	0.145
-239.903	-42.067	-0.101	0.051
-238.888	86.949	-0.215	-0.237
-237.873	-144.963	0.256	-0.023
-236.859	150.505	-0.225	-0.304
-235.844	-28.104	-0.087	0.050
-234.830	-115.149	0.144	-0.027
-233.815	117.649	0.085	-0.105
-232.800	100.949	0.156	0.181
-231.786	-53.419	0.212	-0.097
-230.771	-163.575	0.296	0.014
-229.757	-9.312	0.189	0.126
-228.742	-139.200	-0.184	-0.020
-227.727	15.710	-0.097	-0.076
-226.713	81.169	0.132	-0.142
-225.698	800.000	-0.088	-0.268
-224.684	-140.311	-0.234	-0.024
-223.669	105.404	-0.179	-0.210
-222.655	-156.055	-0.089	0.006
-221.640	-71.378	0.171	0.064
-220.625	61.816	0.181	0.179
-219.611	162.472	-0.124	-0.173
-218.596	83.002	0.107	0.116
-217.582	-200.000	0.055	0.449
-216.567	85.017	0.163	-0.178
-215.552	11.874	-0.244	-0.187
-214.538	-200.000	-0.067	-0.345
-213.523	314.395	0.110	0.207
-212.509	4.435	0.094	0.068
-211.494	-200.000	0.000	0.134
-210.479	-74.157	-0.267	0.096
-209.465	17.452	-0.343	-0.271
-208.450	-29.317	-0.228	0.130
-207.436	147.548	-0.135	-0.181
-206.421	800.000	-0.115	-0.325
-205.406	340.282	0.113	0.219
-204.392	-138.698	0.232	-0.025
-203.377	800.000	-0.039	-0.135
-202.363	-200.000	0.047	0.297
-201.348	66.575	0.063	-0.063
-200.333	-200.000	0.010	0.286
-199.319	-200.000	0.060	-0.269
-198.304	119.359	0.197	-0.243
-197.290	-122.150	0.018	0.003
-196.275	255.407	-0.266	0.454
-195.260	-39.439	0.120	-0.063
-194.246	-11.077	0.227	-0.149
-193.231	-76.065	0.540	0.190
-192.217	-149.992	-0.041	-0.003
-191.202	-194.916	-0.217	0.002
-190.187	-118.332	0.482	-0.085
-189.173	-200.000	-0.011	0.086
-188.158	236.900	0.028	-0.046
-187.144	-200.000	-0.012	-0.061
-186.129	-100.074	0.203	-0.050
-185.114	2.120	0.022	0.016
-184.100	518.662	-0.123	0.287
-183.085	-102.291	0.248	-0.059
-182.071	800.000	0.122	0.405
-181.056	197.254	-0.139	0.211
-180.042	558.061	0.070	0.168
-179.027	800.000	-0.103	-0.292
-178.012	-200.000	-0.024	0.197
-176.998	-37.097	0.147	-0.078
-175.983	-115.618	-0.247	0.046
-174.969	-74.781	0.102	-0.036
-173.954	-92.353	0.287	0.080
-172.939	-200.000	0.013	-0.089
-171.925	-157.853	0.123	0.007
-170.910	168.622	-0.044	0.062
-169.896	14.847	-0.132	-0.103
-168.881	-200.000	-0.016	-0.141
-167.866	189.671	-0.058	0.086
-166.852	-87.160	0.175	-0.053
-165.837	82.133	-0.082	-0.088
-164.823	-33.371	-0.448	-0.246
-163.808	-106.850	0.341	0.075
-162.793	3.585	0.198	-0.143
-161.779	230.855	-0.143	-0.233
-160.764	800.000	-0.139	0.455
-159.750	318.600	0.049	0.093
-158.735	-200.000	0.015	0.085
-157.720	-200.000	0.050	0.247
-156.706	-118.897	0.391	-0.068
-155.691	-200.000	0.032	-0.384
-154.677	179.051	-0.075	-0.110
-153.662	-16.337	0.184	0.116
-152.647	-200.000	0.018	0.288
-151.633	193.271	0.189	0.284
-150.618	-124.645	0.325	-0.050
-149.604	-126.080	0.325	-0.048
-148.589	43.619	-0.089	0.081
-147.574	-200.000	0.026	-0.397
-146.560	39.399	-0.298	-0.264
-145.545	-0.018	0.196	-0.138
-144.531	560.351	0.170	-0.408
-143.516	-21.530	0.285	0.172
-142.502	-21.281	-0.172	0.104
-141.487	-105.581	-0.105	0.024
-140.472	-141.891	0.235	0.023
-139.458	6.103	0.143	0.105
-138.443	-200.000	0.035	-0.279
-137.429	-143.865	0.325	0.030
-136.414	24.174	0.091	-0.075
-135.399	-185.276	-0.205	-0.003
-134.385	-54.501	-0.278	-0.125
-133.370	800.000	0.023	-0.081
-132.356	-200.000	0.276	0.000
-131.341	-75.359	-0.313	0.111
-130.326	84.905	0.009	0.010
-129.312	32.994	-0.121	-0.104
-128.297	800.000	0.076	0.298
-127.283	-62.099	0.281	-0.116
-126.268	-21.515	-0.231	0.140
-125.253	676.242	0.159	0.409
-124.239	-66.537	-0.222	0.087
-123.224	-107.477	0.307	-0.067
-122.210	-101.316	0.238	0.058
-121.195	-200.000	0.004	-0.287
-120.180	183.275	-0.171	-0.250
-119.166	-152.152	-0.112	-0.008
-118.151	-184.222	-0.170	-0.003
-117.137	712.059	0.023	-0.062
-116.122	-200.000	0.034	0.497
-115.107	652.985	0.074	0.188
-114.093	174.426	-0.038	-0.054
-113.078	-101.472	0.153	0.037
-112.064	800.000	0.124	-0.344
-111.049	523.812	-0.091	-0.212
-110.034	-46.374	0.156	-0.076
-109.020	-134.162	-0.054	0.007
-108.005	357.327	-0.066	-0.131
-106.991	800.000	0.048	0.160
-105.976	-133.803	-0.152	0.019
-104.962	-80.904	0.239	0.078
-103.947	-104.455	0.138	0.032
-102.932	112.337	-0.038	0.046
-101.918	-32.847	-0.289	0.159
-100.903	-11.315	0.318	-0.207
-99.889	367.473	-0.099	-0.198
-98.874	365.115	0.074	0.147
-97.859	-200.000	-0.042	0.225
-96.845	-200.000	-0.365	0.000
-95.830	69.637	0.132	0.134
-94.816	1.821	0.137	0.098
-93.801	-43.717	0.203	-0.102
-92.786	-24.839	-0.352	0.207
-91.772	-74.256	-0.383	0.137
-90.757	76.709	-0.179	-0.189
-89.743	162.239	-0.075	0.104
-88.728	272.777	-0.248	-0.433
-87.713	-99.413	-0.136	-0.034
-86.699	-19.166	0.433	-0.266
-85.684	99.507	0.229	0.262
-84.670	-200.000	0.026	0.255
-83.655	-88.375	-0.139	0.041
-82.640	-200.000	0.054	-0.294
-81.626	-14.708	0.248	-0.158
-80.611	-149.199	0.070	-0.006
-79.597	119.265	-0.159	0.195
-78.582	-200.000	0.010	0.245
-77.567	-200.000	0.007	0.225
-76.553	-48.667	0.188	-0.089
-75.538	-20.865	0.319	0.194
-74.524	21.418	0.123	-0.099
-73.509	800.000	-0.065	0.190
-72.494	19.027	0.255	0.202
-71.480	222.307	0.097	-0.155
-70.465	-200.000	0.004	0.069
-69.451	576.244	0.050	-0.122
-68.436	-81.379	0.182	-0.059
-67.422	-79.524	0.346	-0.116
-66.407	46.929	-0.178	-0.163
-65.392	-117.057	-0.250	0.045
-64.378	-100.734	-0.152	-0.037
-63.363	-107.589	0.139	-0.030
-62.349	37.442	0.146	0.128
-61.334	59.929	-1.010	-0.986
-60.319	169.506	0.266	0.375
-59.305	-200.000	-0.209	-1.079
-58.290	393.232	0.393	0.810
-57.276	223.009	0.807	1.286
-56.261	-200.000	92.356	554.612
-55.246	541.390	1366.919	3221.351
-54.232	153.075	2574.696	3483.082
-53.217	117.085	2169.077	2635.503
-52.203	47.960	1628.679	1504.961
-51.188	39.799	1365.088	1211.526
-50.173	36.528	1321.927	1153.687
-49.159	58.239	1370.332	1328.253
-48.144	62.552	1388.573	1372.023
-47.130	40.025	1343.722	1193.737
-46.115	36.389	1325.768	1156.022
-45.100	36.165	1320.795	1150.309
-44.086	36.086	1318.568	1147.852
-43.071	35.995	1316.782	1145.712
-42.057	35.981	1314.312	1143.429
-41.042	36.043	1312.411	1142.102
-40.027	36.010	1311.156	1140.769
-39.013	36.219	1308.624	1139.752
-37.998	36.133	1307.220	1137.976
-36.984	36.231	1305.554	1137.059
-35.969	36.271	1303.289	1135.280
-34.954	36.289	1301.654	1133.916
-33.940	36.261	1300.551	1132.742
-32.925	36.221	1299.601	1131.636
-31.911	36.365	1297.562	1130.659
-30.896	36.255	1296.118	1128.712
-29.881	36.365	1294.842	1128.202
-28.867	36.302	1293.693	1126.788
-27.852	36.345	1291.635	1125.198
-26.838	36.346	1290.827	1124.458
-25.823	36.320	1289.086	1122.744
-24.809	36.187	1287.960	1120.945
-23.794	36.259	1286.583	1120.122
-22.779	36.307	1284.657	1118.678
-21.765	36.234	1283.878	1117.536
-20.750	36.341	1281.968	1116.447
-19.736	36.205	1281.121	1114.876
-18.721	36.152	1280.521	1114.003
-17.706	36.270	1278.789	1113.135
-16.692	36.335	1277.065	1111.965
-15.677	36.225	1276.418	1110.723
-14.663	36.131	1275.464	1109.310
-13.648	36.191	1273.869	1108.222
-12.633	36.134	1273.202	1107.273
-11.619	36.178	1272.131	1106.546
-10.604	36.187	1271.138	1105.690
-9.590	36.230	1270.368	1105.226
-8.575	36.240	1269.111	1104.142
-7.560	36.136	1269.040	1103.444
-6.546	36.119	1267.963	1102.365
-5.531	36.230	1266.933	1102.060
-4.517	36.185	1266.427	1101.321
-3.502	36.140	1265.141	1099.903
-2.487	36.155	1263.850	1098.821
-1.473	36.182	1259.783	1095.396
-0.458	34.631	1244.977	1073.764
0.556	30.749	1226.381	1032.503
1.571	26.909	1231.361	1015.170
2.586	25.841	1246.773	1021.733
3.600	25.065	1235.262	1007.849
4.615	18.115	1161.199	910.459
5.629	7.048	1081.446	792.678
6.644	1.990	1059.082	751.352
7.659	1.542	1056.490	747.245
8.673	1.445	1054.999	745.650
9.688	1.375	1053.681	744.308
10.702	1.970	1052.358	746.221
11.717	8.729	1062.745	786.821
12.731	19.212	1077.398	849.569
13.746	23.813	1083.011	876.671
14.761	24.451	1083.650	880.262
15.775	24.375	1083.281	879.509
16.790	24.369	1082.093	878.436
17.804	24.315	1081.392	877.524
18.819	24.369	1081.173	877.535
19.834	24.382	1080.829	877.240
20.848	24.507	1080.253	877.310
21.863	24.424	1079.717	876.388
22.877	24.402	1079.101	875.701
23.892	24.364	1078.423	874.889
24.907	24.408	1077.805	874.528
25.921	24.424	1076.586	873.539
26.936	24.424	1075.411	872.509
27.950	24.335	1073.855	870.731
28.965	24.255	1071.706	868.522
29.980	24.176	1070.241	866.874
30.994	24.424	1069.274	867.220
32.009	24.503	1067.884	866.402
33.023	24.309	1067.144	864.783
34.038	24.334	1066.046	863.939
35.053	24.439	1065.918	864.268
36.067	24.461	1064.606	863.232
37.082	24.375	1064.068	862.304
38.096	24.630	1063.669	863.135
39.111	24.746	1062.376	862.568
40.126	24.683	1060.654	860.790
41.140	24.239	1059.330	857.505
42.155	24.013	1058.205	855.431
43.169	24.008	1057.198	854.517
44.184	24.119	1056.559	854.460
45.199	24.060	1055.199	853.003
46.213	24.083	1054.556	852.515
47.228	24.205	1053.906	852.499
48.242	24.212	1052.913	851.653
49.257	24.352	1052.009	851.516
50.271	24.490	1051.571	851.743
51.286	24.457	1050.622	850.744
52.301	24.498	1049.721	850.132
53.315	24.525	1048.495	849.193
54.330	24.347	1047.924	847.812
55.344	24.443	1047.254	847.651
56.359	24.329	1046.300	846.264
57.374	24.257	1044.779	844.614
58.388	24.082	1044.955	843.854
59.403	24.138	1043.461	842.835
60.417	24.011	1042.437	841.333
61.432	23.956	1042.249	840.847
62.447	24.186	1041.328	841.119
63.461	24.208	1040.538	840.507
64.476	24.202	1039.485	839.557
65.490	24.160	1038.420	838.425
66.505	24.095	1038.177	837.846
67.520	24.160	1037.161	837.260
68.534	23.979	1035.962	835.367
69.549	23.661	1034.967	833.001
70.563	23.686	1034.082	832.331
71.578	23.711	1033.779	832.129
72.593	23.568	1032.370	830.252
73.607	23.657	1031.769	830.114
74.622	23.908	1031.904	831.321
75.636	23.984	1030.966	830.844
76.651	23.818	1029.977	829.200
77.666	23.712	1029.381	828.152
78.680	23.791	1028.659	827.869
79.695	23.955	1028.281	828.253
80.709	24.061	1027.317	827.897
81.724	23.970	1026.467	826.715
82.739	24.124	1025.559	826.627
83.753	24.384	1025.376	827.611
84.768	24.817	1024.517	828.852
85.782	24.757	1023.982	828.070
86.797	24.670	1022.645	826.510
87.812	24.534	1022.044	825.325
88.826	24.561	1021.349	824.814
89.841	24.792	1020.088	824.786
90.855	24.734	1019.222	823.750
91.870	24.700	1018.110	822.620
92.884	24.354	1017.424	820.402
93.899	24.502	1015.791	819.691
94.914	24.624	1015.694	820.103
95.928	24.457	1014.607	818.387
96.943	24.244	1013.168	816.179
97.957	24.014	1012.309	814.360
98.972	23.883	1010.871	812.532
99.987	24.193	1010.339	813.448
101.001	24.406	1009.370	813.570
102.016	24.368	1008.931	812.969
103.030	24.277	1008.083	811.800
104.045	24.216	1006.878	810.479
105.060	24.025	1005.897	808.750
106.074	24.269	1005.273	809.284
107.089	24.579	1004.704	810.163
108.103	24.299	1003.951	808.216
109.118	24.095	1002.456	806.013
110.133	24.224	1001.434	805.707
111.147	23.899	1000.404	803.338
112.162	23.946	999.316	802.604
113.176	24.125	998.902	803.007
114.191	23.925	998.204	801.476
115.206	23.693	996.731	799.178
116.220	23.705	996.099	798.654
117.235	23.809	995.630	798.677
118.249	23.834	994.564	797.863
119.264	23.736	993.909	796.827
120.279	23.776	993.249	796.406
121.293	23.858	992.328	795.966
122.308	23.977	991.529	795.787
123.322	23.797	990.622	794.182
124.337	23.718	988.968	792.435
125.352	23.225	987.547	789.028
126.366	23.110	986.562	787.658
127.381	23.822	986.667	790.845
128.395	24.269	986.193	792.378
129.410	24.348	985.067	791.756
130.424	24.376	984.037	790.981
131.439	24.352	983.312	790.224
132.454	24.367	983.134	790.078
133.468	24.279	981.730	788.489
134.483	24.438	981.365	788.829
135.497	24.490	980.540	788.325
136.512	24.674	979.493	788.224
137.527	24.598	978.771	787.239
138.541	24.539	978.004	786.297
139.556	24.614	977.006	785.752
140.570	24.670	976.535	785.549
141.585	24.737	975.285	784.771
142.600	24.619	974.207	783.313
143.614	24.941	973.704	784.252
144.629	25.056	972.439	783.668
145.643	24.860	971.245	781.777
146.658	24.632	970.358	780.003
147.673	24.581	969.084	778.685
148.687	24.428	968.339	777.351
149.702	24.478	966.774	776.244
150.716	24.326	966.251	775.096
151.731	24.573	965.477	775.476
152.746	24.647	965.238	775.537
153.760	24.786	964.297	775.316
154.775	24.740	963.851	774.690
155.789	24.772	963.320	774.331
156.804	24.860	962.182	773.730
157.819	24.732	961.021	772.175
158.833	24.828	960.752	772.304
159.848	24.867	959.341	771.272
160.862	24.649	958.376	769.486
161.877	24.759	957.324	769.046
162.892	24.800	956.669	768.629
163.906	24.698	955.377	767.086
164.921	24.734	954.621	766.565
165.935	24.829	953.559	766.051
166.950	24.831	952.786	765.374
167.964	24.649	952.184	764.044
168.979	24.409	951.342	762.276
169.994	24.701	949.934	762.325
171.008	24.825	949.587	762.508
172.023	24.915	948.477	761.932
173.037	24.695	947.028	759.766
174.052	24.462	946.370	758.180
175.067	24.475	946.180	758.017
176.081	24.543	945.220	757.466
177.096	24.546	944.539	756.869
178.110	24.170	943.861	754.663
179.125	24.065	943.155	753.590
180.140	24.151	942.662	753.492
181.154	24.266	942.210	753.552
182.169	24.551	942.438	754.873
183.183	24.861	941.572	755.420
184.198	24.668	940.785	753.906
185.213	24.707	939.788	753.205
186.227	24.689	939.591	752.906
187.242	24.715	938.916	752.406
188.256	24.802	938.382	752.280
189.271	24.853	937.666	751.853
190.286	24.614	936.087	749.516
191.300	23.894	934.602	745.246
192.315	23.109	933.114	740.709
193.329	23.176	932.792	740.668
194.344	23.922	933.539	744.319
195.359	24.588	933.349	746.885
196.373	24.711	932.871	746.951
197.388	24.534	932.230	745.633
198.402	24.645	931.233	745.231
199.417	24.658	930.649	744.754
200.432	24.382	929.712	742.789
201.446	24.363	928.890	741.988
202.461	24.278	928.727	741.438
203.475	23.474	926.469	736.234
204.490	22.544	925.218	731.316
205.504	23.564	925.558	735.752
206.519	24.162	925.343	737.995
207.534	24.391	925.126	738.704
208.548	24.626	925.058	739.557
209.563	24.433	923.965	737.820
210.577	24.332	923.274	736.785
211.592	24.880	922.797	738.600
212.607	24.918	921.727	737.836
213.621	24.788	921.587	737.124
214.636	24.710	921.137	736.375
215.650	24.793	919.734	735.531
216.665	24.997	919.401	736.039
217.680	24.858	918.308	734.529
218.694	24.394	917.354	731.799
219.709	24.339	916.893	731.139
220.723	24.616	916.269	731.712
221.738	24.712	915.618	731.519
222.753	24.618	915.035	730.605
223.767	24.654	914.777	730.483
224.782	24.900	914.633	731.308
225.796	24.859	914.095	730.645
226.811	24.183	912.286	726.378
227.826	23.657	910.797	722.986
228.840	23.858	910.467	723.481
229.855	23.866	909.911	723.008
230.869	23.572	908.832	720.890
231.884	24.036	909.014	722.857
232.899	24.748	908.870	725.567
233.913	24.571	908.276	724.311
234.928	24.617	907.494	723.810
235.942	24.532	906.863	722.897
236.957	24.127	906.358	720.795
237.972	24.136	905.944	720.437
238.986	24.335	905.209	720.591
240.001	24.260	904.649	719.780
241.015	24.461	903.712	719.783
242.030	24.609	903.447	720.103
243.045	24.662	902.852	719.778
244.059	24.763	902.869	720.135
245.074	24.575	901.872	718.519
246.088	24.258	900.788	716.320
247.103	24.575	900.307	717.145
248.117	25.166	900.331	719.475
249.132	25.342	900.013	719.860
250.147	25.217	900.003	719.287
251.161	25.472	899.495	719.841
252.176	25.475	898.424	718.930
253.190	25.719	897.842	719.379
254.205	25.814	897.332	719.285
255.220	25.756	896.359	718.211
256.234	25.641	895.670	717.136
257.249	25.495	895.230	716.140
258.263	25.533	894.656	715.767
259.278	25.516	893.983	715.098
260.293	25.547	893.511	714.779
261.307	25.445	893.071	713.961
262.322	25.351	891.819	712.522
263.336	24.809	889.933	708.807
264.351	23.515	888.176	702.223
265.366	23.679	887.786	702.504
266.380	24.695	888.501	707.029
267.395	25.139	888.191	708.475
268.409	24.948	887.717	707.277
269.424	25.355	886.732	708.034
270.439	25.314	886.638	707.735
271.453	25.265	885.962	706.942
272.468	25.439	885.567	707.249
273.482	25.562	884.908	707.143
274.497	25.095	883.865	704.412
275.512	24.724	883.124	702.304
276.526	25.241	882.772	703.990
277.541	25.434	882.319	704.321
278.555	25.238	881.600	702.919
279.570	25.076	880.541	701.379
280.585	25.218	880.148	701.561
281.599	25.157	879.514	700.754
282.614	24.719	877.942	697.732
283.628	24.633	877.698	697.138
284.643	24.890	877.619	698.017
285.657	24.668	875.889	695.715
286.672	24.503	875.014	694.316
287.687	24.890	875.178	695.891
288.701	24.907	874.922	695.693
289.716	24.588	874.264	693.868
290.730	24.444	873.616	692.735
291.745	24.183	872.745	690.970
292.760	24.524	873.019	692.446
293.774	25.579	872.641	696.172
294.789	25.838	872.535	697.029
295.803	25.808	872.320	696.680
296.818	25.894	871.015	695.907
297.833	25.498	869.883	693.415
298.847	25.301	869.190	692.041
299.862	25.582	869.399	693.230
300.876	25.749	868.910	693.423
301.891	25.816	867.841	692.765
302.906	25.394	867.382	690.717
303.920	25.550	866.615	690.641
304.935	25.902	866.609	691.926
305.949	25.852	865.842	691.063
306.964	25.523	865.168	689.200
307.979	25.589	864.749	689.061
308.993	26.020	864.406	690.377
310.008	25.971	863.907	689.729
311.022	25.737	863.110	688.138
312.037	25.575	862.316	686.824
313.052	25.448	861.180	685.375
314.066	24.651	859.413	680.873
315.081	24.227	858.998	678.870
316.095	25.050	859.351	682.223
317.110	25.547	859.000	683.773
318.125	24.747	857.549	679.521
319.139	23.643	856.259	674.249
320.154	23.791	855.665	674.281
321.168	24.586	856.190	677.651
322.183	25.237	856.598	680.387
323.197	25.408	855.978	680.480
324.212	25.749	855.554	681.375
325.227	25.735	855.117	680.914
326.241	25.499	854.402	679.390
327.256	25.439	853.920	678.723
328.270	25.421	852.973	677.841
329.285	25.185	851.943	676.072
330.300	24.906	851.562	674.659
331.314	25.117	851.326	675.208
332.329	25.593	851.383	676.986
333.343	25.767	850.945	677.233
334.358	25.780	850.541	676.899
335.373	25.623	850.266	676.029
336.387	26.009	850.334	677.473
337.402	26.223	850.133	678.058
338.416	26.188	849.354	677.246
339.431	26.146	849.036	676.776
340.446	26.435	848.596	677.446
341.460	26.189	848.460	676.355
342.475	26.208	847.096	675.278
343.489	26.150	847.519	675.342
344.504	26.433	847.083	675.991
345.519	26.563	846.746	676.150
346.533	26.606	846.217	675.828
347.548	26.604	845.707	675.353
348.562	26.604	845.217	674.902
349.577	26.409	844.895	673.860
350.592	26.302	844.274	672.905
351.606	26.433	843.149	672.435
352.621	26.312	842.368	671.302
353.635	26.188	841.737	670.281
354.650	25.597	840.036	666.677
355.665	24.721	838.287	661.989
356.679	24.942	838.468	662.892
357.694	25.542	837.826	664.543
358.708	25.413	837.337	663.620
359.723	25.830	837.527	665.250
360.738	26.157	837.153	666.102
361.752	26.286	836.720	666.176
362.767	26.543	836.012	666.499
363.781	26.754	835.971	667.186
364.796	26.755	835.549	666.792
365.810	26.846	835.229	666.814
366.825	26.914	834.584	666.487
367.840	26.610	833.516	664.461
368.854	26.210	832.619	662.222
369.869	26.125	832.725	661.935
370.883	26.283	832.262	662.087
371.898	26.249	831.621	661.393
372.913	26.318	831.171	661.231
373.927	26.364	830.748	661.004
374.942	26.498	830.270	661.053
375.956	26.497	830.007	660.782
376.971	26.743	829.497	661.215
377.986	26.821	829.387	661.355
379.000	26.821	828.880	660.892
380.015	26.553	828.211	659.324
381.029	26.727	827.703	659.496
382.044	26.890	826.895	659.386
383.059	26.955	825.949	658.807
384.073	26.993	825.495	658.524
385.088	26.967	825.159	658.106
386.102	26.656	824.439	656.344
387.117	26.624	823.403	655.346
388.132	26.410	822.230	653.584
389.146	25.831	821.769	651.067
390.161	26.096	821.979	652.131
391.175	26.622	821.744	653.788
392.190	26.289	820.498	651.539
393.205	24.772	818.772	644.648
394.219	23.353	816.553	637.738
395.234	23.349	816.600	637.704
396.248	24.955	817.460	644.102
397.263	26.415	818.838	650.385
398.278	26.400	818.388	649.917
399.292	26.134	817.789	648.428
400.307	26.199	817.008	647.985
401.321	26.224	816.355	647.497
402.336	26.694	816.679	649.384
403.350	27.149	816.361	650.702
404.365	27.230	816.659	651.171
405.380	27.524	816.215	651.813
406.394	27.611	815.693	651.650
407.409	27.457	814.936	650.438
408.423	27.560	814.600	650.479
409.438	27.443	814.653	650.044
410.453	27.571	813.943	649.878
411.467	27.576	813.110	649.172
412.482	27.459	812.784	648.440
413.496	27.695	812.548	649.035
414.511	27.703	811.963	648.537
415.526	27.696	811.541	648.119
416.540	27.521	810.688	646.759
417.555	27.253	810.064	645.252
418.569	27.251	809.798	644.976
419.584	27.227	809.407	644.521
420.599	27.049	808.730	643.298
421.613	106.137	1278.206	1435.023
422.628	91.644	1346.616	1435.126
