DTS Sentinel unit serial number:	SN413079Multiplexer serial number:	ORYXHardware model number:	OX4-SRSoftware version number:	ORYX F/W v4.00 Oryx Data Collector v3.7.2.0data status	okinstallation	princeton_trtdifferential loss correction	single-endedforward channel	channel 1reverse channel	N/Adate	2019/09/15time	00:02:35forward acquisition time	60.00reverse acquisition time	0.00gamma	496.2192k internal	0.2320k external	0.2320temperature offset calibration	0.9995default loss term (dB/km)	0.3790temperature slope calibration	1.0000multiplexer offset coefficient	1.0000multiplexer slope coefficient	1.0000fibre end	0.00T internal ref (°C)	32.20T ext. ref 1 (°C)	4.60T ext. ref 2 (°C)	27.19length (m)	temperature (°C)	Stokes	anti-Stokes-747.200	800.000	0.051	0.172
-746.185	425.993	0.114	0.248
-745.171	-83.551	0.232	-0.075
-744.156	-139.688	-0.267	0.029
-743.142	-48.809	0.069	-0.033
-742.127	-127.616	-0.255	0.037
-741.112	-25.240	-0.287	0.172
-740.098	194.888	0.168	0.257
-739.083	342.574	0.066	0.130
-738.069	-74.636	0.132	0.048
-737.054	114.040	0.201	-0.247
-736.039	-200.000	-0.017	-0.186
-735.025	800.000	0.014	-0.040
-734.010	448.146	-0.090	0.201
-732.996	75.394	-0.232	-0.248
-731.981	-200.000	-0.026	0.271
-730.966	561.414	-0.052	0.127
-729.952	-200.000	-0.042	-0.240
-728.937	44.834	-0.148	-0.138
-727.923	51.818	-0.172	-0.166
-726.908	29.236	-0.195	0.167
-725.894	427.974	-0.136	0.297
-724.879	19.740	-0.363	-0.296
-723.864	-109.536	-0.192	-0.041
-722.850	346.059	-0.088	0.174
-721.835	-80.683	0.379	-0.127
-720.821	-49.063	0.520	-0.251
-719.806	-77.878	-0.270	-0.094
-718.791	154.606	0.167	0.231
-717.777	-52.815	0.400	0.186
-716.762	-200.000	-0.043	0.283
-715.748	301.471	-0.169	-0.315
-714.733	288.832	-0.044	-0.081
-713.718	800.000	-0.063	0.200
-712.704	228.846	-0.045	-0.074
-711.689	121.052	0.252	-0.316
-710.675	93.416	-0.144	-0.165
-709.660	-85.945	0.091	0.029
-708.645	292.427	0.231	-0.425
-707.631	-85.000	0.085	0.027
-706.616	-200.000	-0.027	0.195
-705.602	320.410	-0.098	0.188
-704.587	59.725	-0.196	-0.196
-703.572	-126.470	0.296	-0.044
-702.558	2.093	-0.330	-0.241
-701.543	-126.916	-0.066	0.010
-700.529	-50.364	0.288	0.137
-699.514	-200.000	0.006	0.070
-698.499	44.456	-0.180	0.167
-697.485	84.282	-0.044	0.048
-696.470	-45.120	-0.075	0.037
-695.456	-12.452	-0.173	-0.114
-694.441	-52.856	0.126	0.059
-693.426	131.186	0.163	0.211
-692.412	-117.195	-0.356	0.065
-691.397	800.000	-0.032	-0.101
-690.383	800.000	0.050	0.200
-689.368	-63.753	-0.328	0.136
-688.354	-9.515	-0.007	-0.005
-687.339	-31.741	-0.261	-0.148
-686.324	-126.054	-0.227	-0.034
-685.310	-82.255	0.126	-0.041
-684.295	-55.132	-0.044	-0.020
-683.281	-13.126	0.153	-0.100
-682.266	-200.000	-0.008	-0.089
-681.251	800.000	0.101	-0.428
-680.237	115.227	-0.051	0.063
-679.222	-40.425	-0.092	0.048
-678.208	-24.493	-0.348	0.209
-677.193	2.932	-0.176	0.129
-676.178	-83.127	0.448	-0.146
-675.164	800.000	0.065	0.195
-674.149	56.298	0.203	-0.199
-673.135	-104.983	0.201	-0.047
-672.120	-200.000	-0.014	0.120
-671.105	106.078	-0.183	0.219
-670.091	-121.724	-0.305	0.051
-669.076	-79.731	0.215	0.073
-668.062	-137.913	0.080	-0.009
-667.047	260.730	-0.044	0.077
-666.032	87.194	-0.053	0.059
-665.018	156.264	-0.107	-0.149
-664.003	9.341	-0.271	0.206
-662.989	-92.491	-0.200	-0.057
-661.974	188.108	-0.262	0.395
-660.959	-77.403	-0.049	-0.017
-659.945	33.509	-0.216	-0.189
-658.930	-2.721	0.421	0.297
-657.916	96.721	-0.099	0.114
-656.901	54.354	-0.103	0.100
-655.886	-17.746	-0.181	-0.114
-654.872	705.694	0.164	-0.437
-653.857	494.187	0.054	0.125
-652.843	-200.000	0.037	-0.190
-651.828	25.615	-0.183	-0.153
-650.814	-5.271	0.060	0.042
-649.799	-104.971	0.487	0.112
-648.784	36.568	-0.206	0.183
-647.770	144.549	0.137	-0.185
-646.755	800.000	-0.039	-0.128
-645.741	449.462	-0.109	0.241
-644.726	209.630	-0.203	-0.320
-643.711	-120.832	0.270	0.046
-642.697	66.112	0.091	-0.093
-641.682	23.573	-0.107	0.089
-640.668	-81.253	0.198	0.066
-639.653	8.342	-0.386	-0.292
-638.638	176.052	0.085	-0.125
-637.624	362.458	-0.119	0.240
-636.609	-135.919	-0.212	0.025
-635.595	-132.824	-0.278	-0.036
-634.580	-26.894	0.010	-0.006
-633.565	66.769	-0.193	-0.198
-632.551	38.076	-0.156	0.140
-631.536	5.467	-0.048	0.036
-630.522	-60.906	0.324	0.138
-629.507	-200.000	-0.037	-0.362
-628.492	-200.000	0.021	0.272
-627.478	248.051	-0.221	-0.377
-626.463	-200.000	0.011	-0.232
-625.449	-129.499	-0.315	-0.044
-624.434	-24.681	0.369	-0.221
-623.419	800.000	-0.064	-0.228
-622.405	288.282	0.142	0.259
-621.390	534.344	-0.070	-0.166
-620.376	264.864	-0.098	-0.171
-619.361	800.000	-0.074	0.325
-618.346	800.000	0.058	0.217
-617.332	-131.996	0.148	-0.019
-616.317	-99.871	-0.247	-0.062
-615.303	67.175	-0.110	-0.113
-614.288	-170.108	-0.322	-0.012
-613.273	-18.814	-0.196	0.123
-612.259	456.200	-0.067	-0.149
-611.244	800.000	0.063	-0.183
-610.230	-200.000	0.026	-0.352
-609.215	-162.438	0.108	0.005
-608.201	366.412	-0.065	-0.132
-607.186	-1.411	-0.162	-0.115
-606.171	-7.439	-0.263	-0.179
-605.157	282.195	-0.051	0.091
-604.142	-200.000	-0.051	-0.423
-603.128	4.365	0.302	-0.222
-602.113	213.485	-0.059	-0.094
-601.098	20.403	-0.102	0.083
-600.084	-51.203	-0.051	-0.024
-599.069	357.627	-0.035	-0.071
-598.055	34.673	0.243	-0.213
-597.040	423.840	0.073	-0.159
-596.025	134.696	0.176	-0.229
-595.011	477.886	-0.063	0.142
-593.996	426.082	-0.051	-0.111
-592.982	71.838	-0.151	-0.158
-591.967	314.945	0.109	0.206
-590.952	800.000	-0.052	0.174
-589.938	-200.000	0.014	0.072
-588.923	-88.313	0.146	-0.044
-587.909	-89.121	0.259	-0.077
-586.894	116.315	0.130	-0.160
-585.879	-110.411	0.222	0.046
-584.865	-132.901	-0.319	0.041
-583.850	-54.970	0.431	-0.195
-582.836	-200.000	-0.021	-0.221
-581.821	14.407	-0.101	0.079
-580.806	-48.906	-0.222	0.107
-579.792	60.807	-0.142	0.141
-578.777	26.227	0.325	-0.273
-577.763	-200.000	-0.052	0.293
-576.748	238.402	-0.092	0.154
-575.733	-200.000	0.031	-0.201
-574.719	-200.000	0.066	-0.455
-573.704	-172.982	0.184	-0.006
-572.690	-95.273	0.516	-0.139
-571.675	41.048	-0.093	-0.085
-570.661	-119.143	-0.275	0.048
-569.646	34.814	0.185	0.163
-568.631	-125.129	-0.135	0.021
-567.617	440.421	-0.031	0.067
-566.602	800.000	-0.054	0.192
-565.588	114.031	0.108	0.131
-564.573	97.014	-0.342	0.393
-563.558	-200.000	-0.005	-0.376
-562.544	439.218	0.092	0.202
-561.529	-62.095	-0.192	0.080
-560.515	-12.142	-0.026	-0.017
-559.500	-200.000	0.014	-0.246
-558.485	-176.469	-0.424	0.011
-557.471	-91.058	0.034	0.010
-556.456	-92.927	-0.108	-0.030
-555.442	-200.000	-0.041	-0.227
-554.427	800.000	0.071	-0.239
-553.412	-86.346	-0.202	-0.062
-552.398	61.654	0.084	-0.083
-551.383	350.416	0.069	-0.138
-550.369	479.578	-0.069	0.156
-549.354	-168.162	-0.185	-0.007
-548.339	-39.932	0.376	0.197
-547.325	-1.467	-0.134	0.095
-546.310	387.514	0.085	0.176
-545.296	800.000	0.018	-0.076
-544.281	-169.299	-0.324	-0.012
-543.266	-95.127	-0.300	-0.081
-542.252	800.000	-0.056	0.178
-541.237	-200.000	-0.024	-0.270
-540.223	-110.202	0.298	0.062
-539.208	-56.636	-0.111	0.049
-538.193	-200.000	-0.027	-0.177
-537.179	-50.866	-0.085	-0.040
-536.164	-200.000	-0.009	0.424
-535.150	-83.516	0.213	-0.068
-534.135	418.895	0.013	0.027
-533.121	9.754	0.436	0.332
-532.106	540.441	-0.113	-0.271
-531.091	-138.726	-0.201	-0.022
-530.077	800.000	0.049	-0.181
-529.062	-200.000	0.025	0.222
-528.048	74.081	0.129	-0.135
-527.033	-58.135	0.171	0.075
-526.018	-200.000	0.028	-0.130
-525.004	24.540	0.337	0.280
-523.989	-200.000	0.000	-0.283
-522.975	-200.000	-0.006	-0.218
-521.960	-83.046	0.366	-0.118
-520.945	20.722	0.233	-0.189
-519.931	-200.000	0.009	0.068
-518.916	-200.000	0.021	0.179
-517.902	167.228	0.276	-0.392
-516.887	-42.054	0.137	0.070
-515.872	-200.000	0.027	-0.168
-514.858	-200.000	-0.026	0.215
-513.843	12.643	0.079	0.061
-512.829	61.394	-0.253	-0.252
-511.814	22.963	0.114	-0.093
-510.799	34.083	-0.220	0.193
-509.785	32.980	-0.213	0.185
-508.770	126.194	0.284	0.359
-507.756	-102.257	-0.261	-0.063
-506.741	-76.812	-0.256	0.090
-505.726	-43.591	0.126	-0.063
-504.712	10.528	-0.092	-0.071
-503.697	-37.164	-0.381	0.204
-502.683	66.744	0.180	0.183
-501.668	-57.493	-0.082	0.036
-500.653	26.329	0.260	-0.217
-499.639	-200.000	0.067	0.356
-498.624	151.421	0.020	0.028
-497.610	-145.988	0.036	-0.003
-496.595	-121.940	0.062	-0.010
-495.581	-104.124	0.375	-0.087
-494.566	58.317	-0.120	0.117
-493.551	-24.940	0.084	-0.050
-492.537	224.663	0.134	0.217
-491.522	24.449	0.075	0.062
-490.508	15.163	0.048	0.038
-489.493	-17.823	0.146	-0.092
-488.478	55.483	-0.161	0.156
-487.464	293.678	-0.056	-0.102
-486.449	-200.000	-0.027	-0.155
-485.435	-43.334	-0.260	-0.132
-484.420	332.730	0.169	0.326
-483.405	9.521	-0.252	0.191
-482.391	527.805	0.112	-0.264
-481.376	-200.000	0.069	-0.328
-480.362	-125.078	0.224	-0.034
-479.347	-27.273	-0.159	0.093
-478.332	220.300	0.147	-0.236
-477.318	594.408	0.133	-0.329
-476.303	89.241	-0.229	0.255
-475.289	-97.853	0.124	-0.032
-474.274	-158.923	-0.153	-0.009
-473.259	-200.000	0.023	-0.402
-472.245	0.667	0.195	-0.140
-471.230	-168.176	0.183	-0.007
-470.216	800.000	-0.051	-0.159
-469.201	-62.632	-0.117	-0.049
-468.186	254.441	-0.188	0.321
-467.172	-28.512	0.140	-0.081
-466.157	-66.764	-0.073	-0.029
-465.143	131.497	0.122	-0.156
-464.128	261.154	-0.144	-0.250
-463.113	800.000	0.056	-0.220
-462.099	-112.263	0.326	-0.065
-461.084	54.573	-0.028	-0.027
-460.070	86.713	-0.257	0.284
-459.055	-137.156	-0.134	0.015
-458.040	800.000	-0.082	0.246
-457.026	800.000	0.071	-0.204
-456.011	-200.000	-0.015	-0.115
-454.997	57.857	-0.359	0.351
-453.982	105.907	0.126	-0.149
-452.968	-121.639	-0.337	0.056
-451.953	182.474	0.215	0.316
-450.938	33.224	-0.166	0.144
-449.924	9.443	-0.240	0.182
-448.909	-200.000	-0.000	0.245
-447.895	-200.000	0.055	-0.351
-446.880	-144.312	0.307	-0.029
-445.865	800.000	-0.032	0.119
-444.851	-148.709	0.426	0.035
-443.836	-200.000	0.026	-0.212
-442.822	-96.472	0.193	-0.051
-441.807	-136.847	-0.157	0.018
-440.792	186.873	-0.136	0.202
-439.778	-200.000	0.044	-0.228
-438.763	420.984	-0.021	0.045
-437.749	-109.283	-0.182	0.039
-436.734	-84.923	0.185	-0.058
-435.719	-200.000	-0.018	-0.141
-434.705	0.371	-0.346	-0.247
-433.690	800.000	0.042	0.122
-432.676	-200.000	-0.039	0.183
-431.661	5.946	-0.212	0.157
-430.646	314.792	-0.119	0.225
-429.632	-62.925	0.126	0.052
-428.617	130.587	0.075	-0.096
-427.603	421.542	0.092	-0.198
-426.588	-97.323	-0.063	0.016
-425.573	-160.213	0.087	-0.005
-424.559	800.000	0.103	-0.420
-423.544	84.450	0.152	-0.166
-422.530	53.767	0.152	0.146
-421.515	-178.663	-0.282	-0.006
-420.500	-139.169	0.128	0.014
-419.486	800.000	-0.024	0.101
-418.471	-70.523	-0.180	0.068
-417.457	800.000	0.025	0.102
-416.442	-80.008	0.243	0.081
-415.428	-51.909	0.056	-0.026
-414.413	-177.668	-0.271	0.007
-413.398	-156.647	0.253	-0.016
-412.384	800.000	-0.062	-0.213
-411.369	-89.930	0.239	0.070
-410.355	-200.000	0.020	0.246
-409.340	129.073	-0.090	-0.115
-408.325	-150.529	-0.239	0.018
-407.311	-97.263	-0.278	-0.072
-406.296	-139.515	-0.093	-0.010
-405.282	13.727	0.020	0.016
-404.267	-200.000	0.001	0.008
-403.252	-200.000	0.032	-0.163
-402.238	32.178	-0.152	-0.131
-401.223	-165.986	-0.054	0.002
-400.209	-9.657	-0.180	0.120
-399.194	-15.180	-0.397	-0.253
-398.179	74.071	-0.062	0.065
-397.165	-77.757	0.152	0.052
-396.150	0.873	0.058	0.041
-395.136	-0.898	-0.116	0.082
-394.121	-72.907	-0.390	0.143
-393.106	-200.000	0.011	-0.413
-392.092	128.223	0.095	0.120
-391.077	-114.091	0.148	0.029
-390.063	-171.692	0.329	-0.011
-389.048	-200.000	-0.001	0.456
-388.033	77.226	-0.227	-0.241
-387.019	789.427	-0.075	0.206
-386.004	71.399	-0.177	0.183
-384.990	27.087	0.269	0.225
-383.975	682.541	-0.044	0.113
-382.960	-173.567	0.374	-0.011
-381.946	35.573	-0.132	0.115
-380.931	-154.450	-0.188	0.013
-379.917	305.800	-0.130	-0.242
-378.902	-200.000	0.052	0.265
-377.888	537.809	-0.175	0.416
-376.873	-105.782	-0.176	-0.040
-375.858	-200.000	0.035	-0.154
-374.844	752.853	-0.066	-0.179
-373.829	-200.000	-0.010	0.196
-372.815	-155.307	-0.301	0.020
-371.800	-152.057	-0.259	-0.019
-370.785	188.464	0.168	0.251
-369.771	-152.019	-0.106	-0.008
-368.756	-119.644	0.082	0.014
-367.742	-200.000	-0.029	-0.228
-366.727	-72.606	-0.332	-0.122
-365.712	220.482	0.080	0.128
-364.698	96.698	0.071	-0.081
-363.683	248.042	-0.073	0.123
-362.669	-200.000	-0.052	-0.359
-361.654	-129.948	-0.204	-0.028
-360.639	-107.195	-0.121	0.026
-359.625	-200.000	-0.059	-0.278
-358.610	425.753	0.145	-0.312
-357.596	-200.000	0.000	0.309
-356.581	-111.820	0.103	-0.021
-355.566	794.147	0.067	0.184
-354.552	-52.950	0.128	0.059
-353.537	91.064	0.190	-0.213
-352.523	-69.063	-0.572	-0.219
-351.508	300.510	0.091	0.166
-350.493	-170.203	0.192	-0.007
-349.479	-115.159	0.220	0.042
-348.464	800.000	-0.021	-0.066
-347.450	-149.297	0.214	0.017
-346.435	-111.643	0.417	0.084
-345.420	-81.157	0.202	0.066
-344.406	-200.000	0.043	0.387
-343.391	45.096	0.107	-0.098
-342.377	-67.487	-0.130	0.051
-341.362	156.530	0.124	-0.171
-340.348	676.283	0.094	0.243
-339.333	-77.392	0.058	0.020
-338.318	100.779	0.125	0.145
-337.304	141.123	0.144	0.190
-336.289	47.959	-0.183	0.170
-335.275	787.843	-0.014	0.039
-334.260	-200.000	0.009	0.175
-333.245	-105.931	0.274	0.061
-332.231	-133.360	0.173	0.022
-331.216	175.661	-0.277	-0.399
-330.202	175.109	0.017	-0.025
-329.187	75.816	0.017	0.018
-328.172	-1.673	-0.218	0.153
-327.158	385.413	-0.071	0.147
-326.143	38.854	-0.051	0.046
-325.129	-52.978	-0.063	0.029
-324.114	192.528	0.138	0.207
-323.099	286.354	0.056	0.101
-322.085	-100.254	-0.060	-0.015
-321.070	353.121	-0.210	0.415
-320.056	-8.850	-0.317	-0.211
-319.041	-200.000	-0.006	-0.043
-318.026	-72.057	0.419	-0.155
-317.012	329.299	-0.140	0.268
-315.997	-176.958	-0.128	-0.003
-314.983	-12.488	-0.101	0.065
-313.968	459.559	-0.017	-0.038
-312.953	-156.524	-0.110	-0.007
-311.939	800.000	0.069	-0.231
-310.924	96.361	0.153	0.174
-309.910	-76.054	-0.178	-0.063
-308.895	-60.961	-0.126	-0.053
-307.880	-70.293	-0.245	-0.092
-306.866	18.611	-0.251	-0.200
-305.851	-49.248	-0.394	-0.187
-304.837	-200.000	-0.021	-0.267
-303.822	54.870	0.089	-0.086
-302.807	784.179	0.079	-0.214
-301.793	-4.787	0.279	0.191
-300.778	-5.019	0.217	0.149
-299.764	626.905	-0.182	0.457
-298.749	65.978	0.120	-0.121
-297.735	-79.398	0.185	-0.062
-296.720	163.670	-0.018	0.026
-295.705	-120.727	-0.214	-0.036
-294.691	260.783	-0.131	-0.225
-293.676	282.493	0.053	0.094
-292.662	111.893	0.052	-0.063
-291.647	372.007	-0.064	0.129
-290.632	800.000	-0.114	-0.484
-289.618	62.255	0.229	-0.227
-288.603	-200.000	0.015	0.402
-287.589	-10.781	-0.302	-0.198
-286.574	137.048	0.152	-0.197
-285.559	800.000	0.127	0.418
-284.545	800.000	0.118	0.381
-283.530	800.000	-0.099	-0.316
-282.516	29.096	0.240	0.203
-281.501	-200.000	-0.075	-0.449
-280.486	62.582	0.051	-0.051
-279.472	186.066	-0.239	0.353
-278.457	800.000	-0.073	-0.263
-277.443	-1.386	-0.217	-0.152
-276.428	25.795	-0.161	0.133
-275.413	295.974	0.116	0.211
-274.399	800.000	-0.082	-0.340
-273.384	440.133	0.015	-0.033
-272.370	-81.910	0.298	0.097
-271.355	98.751	-0.348	0.399
-270.340	-200.000	0.081	0.360
-269.326	-56.009	0.359	0.159
-268.311	13.328	-0.332	-0.255
-267.297	800.000	0.005	-0.015
-266.282	-200.000	0.001	0.171
-265.267	382.080	0.063	0.128
-264.253	106.967	0.141	0.166
-263.238	106.080	-0.052	0.061
-262.224	-147.451	0.101	0.008
-261.209	-90.299	-0.308	-0.089
-260.195	26.058	0.371	0.307
-259.180	45.692	0.128	0.117
-258.165	-143.795	0.340	-0.032
-257.151	125.897	0.161	-0.202
-256.136	110.992	-0.038	-0.046
-255.122	108.586	-0.200	-0.237
-254.107	-93.076	0.101	0.028
-253.092	61.803	-0.265	0.262
-252.078	-200.000	0.028	-0.135
-251.063	-100.136	-0.194	0.048
-250.049	738.908	-0.013	0.036
-249.034	-101.403	0.399	0.096
-248.019	-200.000	-0.072	-0.488
-247.005	-200.000	-0.058	-0.385
-245.990	-200.000	-0.021	0.348
-244.976	-71.795	-0.275	-0.102
-243.961	72.053	-0.065	-0.067
-242.946	104.526	0.112	0.131
-241.932	800.000	0.089	0.245
-240.917	260.489	-0.090	0.154
-239.903	-200.000	-0.057	0.338
-238.888	7.267	0.115	0.085
-237.873	68.365	0.177	0.180
-236.859	-114.140	-0.267	0.051
-235.844	110.120	-0.081	-0.096
-234.830	-153.282	0.183	0.013
-233.815	118.654	0.037	-0.045
-232.800	-36.218	0.164	-0.088
-231.786	-64.671	0.081	-0.032
-230.771	46.632	0.207	-0.190
-229.757	515.979	-0.074	0.171
-228.742	-127.397	0.136	-0.020
-227.727	-48.380	0.085	0.041
-226.713	670.050	-0.172	0.440
-225.698	134.598	0.153	0.197
-224.684	800.000	0.052	-0.177
-223.669	800.000	-0.024	0.088
-222.655	800.000	-0.068	-0.261
-221.640	187.927	0.035	-0.052
-220.625	87.175	0.047	0.052
-219.611	40.229	0.193	0.172
-218.596	-42.915	0.149	0.075
-217.582	366.909	-0.083	-0.167
-216.567	264.081	-0.110	0.190
-215.552	-185.611	-0.265	-0.004
-214.538	800.000	-0.051	-0.167
-213.523	-123.437	0.280	-0.044
-212.509	182.833	-0.154	-0.225
-211.494	-200.000	-0.045	-0.242
-210.479	-13.390	-0.247	-0.158
-209.465	-200.000	-0.017	-0.212
-208.450	-200.000	-0.017	0.108
-207.436	-10.648	0.306	0.200
-206.421	-93.578	0.127	0.035
-205.406	69.036	-0.094	-0.096
-204.392	-147.606	0.092	-0.008
-203.377	578.952	0.124	0.300
-202.363	166.440	-0.049	-0.068
-201.348	198.703	-0.109	0.165
-200.333	284.864	0.135	-0.241
-199.319	397.746	0.053	-0.110
-198.304	-63.086	-0.184	0.075
-197.290	-141.119	0.183	-0.019
-196.275	-123.464	0.211	-0.033
-195.260	44.881	0.052	0.047
-194.246	-79.722	0.193	0.064
-193.231	-151.761	0.316	-0.023
-192.217	318.297	0.034	0.063
-191.202	-56.201	0.125	-0.055
-190.187	141.828	-0.053	-0.069
-189.173	-200.000	-0.025	-0.277
-188.158	-8.241	0.180	-0.120
-187.144	-6.042	0.387	0.262
-186.129	-92.897	0.165	0.045
-185.114	424.738	0.024	0.050
-184.100	-42.524	-0.038	-0.019
-183.085	368.978	0.174	0.348
-182.071	13.179	-0.239	0.183
-181.056	170.859	0.232	0.328
-180.042	149.032	0.128	-0.171
-179.027	454.599	-0.057	-0.125
-178.012	-165.571	-0.333	-0.014
-176.998	-93.684	-0.297	0.081
-175.983	-79.182	0.194	-0.065
-174.969	800.000	-0.016	-0.066
-173.954	-167.010	0.197	-0.008
-172.939	-98.031	-0.197	-0.050
-171.925	-200.000	0.002	0.352
-170.910	-88.397	-0.106	-0.031
-169.896	402.011	-0.079	0.165
-168.881	-200.000	0.011	0.319
-167.866	429.166	0.109	0.232
-166.852	-175.968	-0.196	-0.005
-165.837	-66.753	-0.072	-0.028
-164.823	-70.614	0.194	-0.073
-163.808	-45.176	-0.177	-0.087
-162.793	-138.548	-0.038	-0.004
-161.779	31.804	0.112	-0.095
-160.764	100.445	0.185	-0.212
-159.750	800.000	0.073	0.243
-158.735	-17.354	-0.071	0.044
-157.720	-200.000	-0.006	0.095
-156.706	-200.000	-0.404	-0.000
-155.691	-200.000	-0.028	0.230
-154.677	-53.361	0.060	-0.027
-153.662	-34.939	0.258	-0.139
-152.647	121.994	0.013	0.016
-151.633	217.320	0.043	0.068
-150.618	800.000	0.071	0.231
-149.604	-2.448	0.403	0.279
-148.589	800.000	-0.053	-0.156
-147.574	314.029	0.046	-0.085
-146.560	299.697	0.074	0.134
-145.545	-75.916	-0.431	0.151
-144.531	-42.742	0.004	-0.002
-143.516	-200.000	-0.018	0.173
-142.502	32.393	-0.137	0.117
-141.487	93.900	0.151	-0.169
-140.472	-54.306	0.299	0.134
-139.458	-45.993	0.039	-0.019
-138.443	3.010	0.269	-0.193
-137.429	251.756	0.286	0.481
-136.414	-200.000	0.001	-0.096
-135.399	203.971	-0.178	0.272
-134.385	800.000	0.038	-0.141
-133.370	-55.727	-0.284	0.125
-132.356	-141.573	-0.259	-0.026
-131.341	118.121	0.174	0.212
-130.326	484.397	0.070	0.157
-129.312	522.692	0.173	0.401
-128.297	-200.000	-0.016	-0.074
-127.283	-62.427	-0.168	0.069
-126.268	800.000	0.093	-0.350
-125.253	-192.577	-0.153	0.001
-124.239	207.494	0.086	-0.132
-123.224	-89.663	0.041	0.012
-122.210	-67.381	-0.214	0.083
-121.195	148.287	-0.030	0.040
-120.180	-200.000	0.007	-0.288
-119.166	-73.487	0.257	0.092
-118.151	209.308	0.080	0.124
-117.137	60.786	-0.112	-0.110
-116.122	-200.000	-0.006	0.188
-115.107	-17.484	-0.143	-0.089
-114.093	-15.432	0.148	-0.093
-113.078	800.000	0.101	-0.403
-112.064	163.005	0.227	-0.315
-111.049	349.504	-0.147	0.287
-110.034	70.511	-0.190	0.194
-109.020	298.175	0.077	0.139
-108.005	99.749	-0.353	0.404
-106.991	-174.511	0.013	-0.000
-105.976	-200.000	-0.008	0.076
-104.962	-200.000	-0.126	0.582
-103.947	466.493	-0.062	0.138
-102.932	-101.288	0.174	0.042
-101.918	-61.821	-0.050	-0.020
-100.903	-200.000	-0.002	0.204
-99.889	40.483	-0.085	0.076
-98.874	-126.806	-0.160	0.023
-97.859	467.578	0.067	0.149
-96.845	-70.958	-0.198	-0.074
-95.830	149.107	0.094	-0.125
-94.816	-200.000	-0.013	0.061
-93.801	-193.990	0.113	0.001
-92.786	-200.000	0.022	0.132
-91.772	800.000	-0.033	-0.138
-90.757	-200.000	0.052	-0.283
-89.743	-78.208	0.191	-0.065
-88.728	-8.226	0.209	-0.139
-87.713	8.560	0.114	-0.085
-86.699	-76.076	0.101	0.035
-85.684	264.405	0.214	0.367
-84.670	81.686	0.077	-0.082
-83.655	123.786	0.225	0.278
-82.640	-38.174	0.283	0.148
-81.626	-123.142	0.082	0.013
-80.611	800.000	-0.023	0.081
-79.597	800.000	-0.103	0.306
-78.582	-200.000	0.005	-0.113
-77.567	50.086	-0.008	-0.008
-76.553	-200.000	-0.022	-0.177
-75.538	-200.000	-0.045	0.309
-74.524	800.000	0.030	-0.116
-73.509	-172.067	-0.383	0.012
-72.494	-26.882	-0.192	-0.110
-71.480	-130.396	0.562	0.075
-70.465	800.000	-0.071	0.211
-69.451	-200.000	0.006	-0.246
-68.436	-200.000	0.049	0.224
-67.422	153.217	0.106	0.143
-66.407	800.000	0.072	0.282
-65.392	-47.884	0.191	-0.091
-64.378	-51.812	-0.032	-0.015
-63.363	-127.827	-0.141	-0.020
-62.349	800.000	-0.137	0.432
-61.334	5.079	-0.858	-0.622
-60.319	305.966	0.279	0.511
-59.305	123.924	-0.748	-0.925
-58.290	800.000	0.332	0.998
-57.276	698.894	0.517	1.337
-56.261	-200.000	95.184	596.358
-55.246	679.137	1366.677	3500.397
-54.232	200.309	2540.778	3841.771
-53.217	122.323	2139.203	2630.517
-52.203	44.412	1603.677	1449.423
-51.188	35.697	1342.147	1160.676
-50.173	32.535	1300.020	1105.675
-49.159	54.628	1347.036	1278.077
-48.144	56.843	1363.333	1306.700
-47.130	35.860	1322.853	1144.782
-46.115	32.451	1305.454	1109.625
-45.100	32.225	1300.500	1104.040
-44.086	32.155	1298.235	1101.663
-43.071	32.006	1295.770	1098.654
-42.057	32.060	1293.617	1097.105
-41.042	32.153	1291.525	1095.830
-40.027	32.128	1290.623	1094.870
-39.013	32.238	1288.060	1093.293
-37.998	32.091	1286.676	1091.220
-36.984	32.133	1285.081	1090.073
-35.969	32.158	1282.837	1088.265
-34.954	32.208	1281.389	1087.285
-33.940	32.312	1279.890	1086.572
-32.925	32.276	1278.714	1085.324
-31.911	32.375	1276.984	1084.385
-30.896	32.252	1275.567	1082.430
-29.881	32.420	1274.075	1082.085
-28.867	32.337	1273.306	1080.911
-27.852	32.362	1271.389	1079.384
-26.838	32.289	1270.144	1077.865
-25.823	32.284	1269.173	1076.971
-24.809	32.228	1267.886	1075.514
-23.794	32.148	1266.686	1073.996
-22.779	32.317	1264.629	1073.177
-21.765	32.331	1263.534	1072.286
-20.750	32.240	1262.518	1070.861
-19.736	32.244	1260.988	1069.543
-18.721	32.116	1260.455	1068.323
-17.706	32.142	1259.134	1067.306
-16.692	32.103	1257.957	1066.048
-15.677	32.089	1256.798	1064.943
-14.663	32.182	1255.427	1064.266
-13.648	32.140	1254.587	1063.269
-12.633	32.216	1252.914	1062.240
-11.619	32.110	1252.712	1061.428
-10.604	32.113	1251.789	1060.620
-9.590	32.105	1250.878	1059.763
-8.575	32.230	1249.466	1059.228
-7.560	32.202	1248.794	1058.461
-6.546	32.015	1248.046	1056.728
-5.531	32.126	1247.313	1056.692
-4.517	32.190	1246.131	1056.009
-3.502	32.108	1245.168	1054.690
-2.487	32.135	1244.629	1054.346
-1.473	32.116	1240.161	1050.410
-0.458	30.717	1225.529	1030.236
0.556	26.213	1208.085	992.916
1.571	22.664	1213.648	977.764
2.586	21.533	1229.507	984.093
3.600	21.012	1218.259	972.102
4.615	16.000	1147.654	889.296
5.629	8.165	1074.585	793.742
6.644	4.735	1054.225	761.865
7.659	4.536	1051.992	759.213
8.673	4.554	1051.420	758.820
9.688	4.574	1049.606	757.542
10.702	4.762	1047.237	756.678
11.717	9.027	1053.807	782.183
12.731	16.199	1064.007	824.866
13.746	19.050	1066.204	840.445
14.761	18.201	1064.831	835.146
15.775	17.177	1062.797	828.481
16.790	16.062	1060.823	821.440
17.804	15.341	1059.519	816.849
18.819	15.043	1057.992	814.147
19.834	14.723	1057.369	812.044
20.848	14.627	1056.246	810.639
21.863	14.306	1055.246	808.247
22.877	14.213	1054.690	807.294
23.892	14.211	1054.143	806.796
24.907	14.165	1053.574	806.066
25.921	14.155	1052.917	805.445
26.936	14.217	1051.163	804.333
27.950	14.322	1049.449	803.456
28.965	14.319	1048.072	802.317
29.980	14.451	1046.304	801.523
30.994	14.427	1046.010	801.116
32.009	14.527	1044.512	800.375
33.023	14.545	1043.380	799.523
34.038	14.485	1041.970	798.083
35.053	14.373	1041.609	797.202
36.067	14.451	1040.820	796.899
37.082	14.296	1040.066	795.511
38.096	14.466	1039.553	795.863
39.111	14.390	1038.701	794.775
40.126	14.343	1037.263	793.383
41.140	14.136	1036.172	791.491
42.155	14.049	1034.723	789.902
43.169	14.059	1033.850	789.215
44.184	14.148	1032.380	788.443
45.199	13.948	1032.012	787.145
46.213	14.061	1031.175	786.973
47.228	14.221	1029.974	786.739
48.242	14.236	1029.182	786.140
49.257	14.218	1027.876	784.984
50.271	14.276	1027.232	784.697
51.286	14.371	1026.214	784.299
52.301	14.411	1025.123	783.582
53.315	14.236	1024.205	781.991
54.330	14.274	1022.878	781.088
55.344	14.263	1021.713	780.078
56.359	14.267	1021.024	779.499
57.374	14.248	1020.194	778.707
58.388	14.039	1019.746	777.320
59.403	14.139	1018.589	776.834
60.417	14.036	1018.295	776.062
61.432	14.064	1017.334	775.393
62.447	13.951	1016.767	774.365
63.461	14.060	1015.360	773.729
64.476	13.976	1014.696	772.766
65.490	14.010	1014.005	772.329
66.505	13.997	1013.299	771.663
67.520	14.089	1012.809	771.648
68.534	14.240	1011.983	771.651
69.549	14.188	1010.907	770.523
70.563	14.071	1010.347	769.484
71.578	13.991	1009.437	768.355
72.593	13.966	1008.501	767.459
73.607	13.993	1007.887	767.050
74.622	13.884	1008.025	766.582
75.636	13.939	1007.152	766.103
76.651	13.991	1006.014	765.412
77.666	13.948	1005.747	764.939
78.680	13.956	1005.131	764.440
79.695	13.924	1004.350	763.631
80.709	14.089	1003.967	764.033
81.724	14.176	1003.103	763.709
82.739	14.258	1002.569	763.610
83.753	14.321	1001.472	762.994
84.768	14.413	1001.106	763.068
85.782	14.488	1000.132	762.604
86.797	14.412	999.112	761.411
87.812	14.284	998.175	760.043
88.826	14.407	997.151	759.760
89.841	14.341	996.466	758.870
90.855	14.513	995.316	758.709
91.870	14.392	994.867	757.747
92.884	14.417	993.978	757.120
93.899	14.451	993.245	756.648
94.914	14.635	992.121	756.557
95.928	14.575	991.431	755.692
96.943	14.523	990.440	754.635
97.957	14.433	989.667	753.573
98.972	14.463	988.774	752.962
99.987	14.422	987.871	752.024
101.001	14.530	986.714	751.561
102.016	14.375	986.443	750.590
103.030	14.526	985.135	750.209
104.045	14.408	984.489	749.118
105.060	14.380	983.822	748.419
106.074	14.224	982.747	746.834
107.089	14.191	981.602	745.749
108.103	14.087	981.186	744.903
109.118	14.112	980.117	744.139
110.133	14.031	979.240	743.045
111.147	14.129	978.191	742.623
112.162	14.107	977.554	741.972
113.176	14.106	977.032	741.507
114.191	14.281	976.208	741.595
115.206	14.329	975.035	740.853
116.220	14.233	974.481	739.941
117.235	14.250	973.556	739.245
118.249	14.225	972.577	738.327
119.264	14.252	971.634	737.666
120.279	14.177	970.867	736.685
121.293	14.022	970.635	735.756
122.308	14.128	969.034	734.948
123.322	14.158	968.371	734.512
124.337	14.135	967.136	733.410
125.352	14.098	966.104	732.400
126.366	14.078	965.206	731.564
127.381	14.230	964.395	731.555
128.395	14.174	963.654	730.679
129.410	14.213	962.588	729.980
130.424	14.333	961.463	729.587
131.439	14.248	961.000	728.801
132.454	14.356	960.041	728.479
133.468	14.348	959.392	727.886
134.483	14.410	958.331	727.291
135.497	14.392	957.505	726.521
136.512	14.338	957.004	725.839
137.527	14.416	956.187	725.497
138.541	14.359	955.585	724.729
139.556	14.420	954.780	724.318
140.570	14.380	954.127	723.583
141.585	14.562	953.310	723.690
142.600	14.565	952.261	722.843
143.614	14.629	951.778	722.691
144.629	14.644	951.011	722.107
145.643	14.566	949.886	720.854
146.658	14.499	949.048	719.865
147.673	14.446	948.026	718.794
148.687	14.261	947.445	717.493
149.702	14.272	946.624	716.859
150.716	14.278	945.861	716.241
151.731	14.263	945.318	715.701
152.746	14.333	944.531	715.345
153.760	14.263	944.050	714.616
154.775	14.463	943.435	714.946
155.789	14.620	942.604	714.924
156.804	14.527	941.542	713.660
157.819	14.596	941.442	713.817
158.833	14.723	940.407	713.510
159.848	14.757	939.946	713.240
160.862	14.739	938.598	712.078
161.877	14.516	937.619	710.325
162.892	14.469	936.641	709.320
163.906	14.355	935.763	708.107
164.921	14.322	935.281	707.539
165.935	14.523	934.560	707.783
166.950	14.568	933.508	707.115
167.964	14.567	932.558	706.330
168.979	14.479	931.824	705.338
169.994	14.632	930.907	705.230
171.008	14.560	930.424	704.499
172.023	14.675	929.742	704.405
173.037	14.677	929.229	703.960
174.052	14.656	928.561	703.304
175.067	14.510	927.895	702.123
176.081	14.473	926.889	701.143
177.096	14.470	926.790	700.992
178.110	14.598	925.818	700.736
179.125	14.524	925.440	700.075
180.140	14.703	924.392	699.971
181.154	14.665	924.772	700.037
182.169	14.903	923.519	700.023
183.183	14.822	923.411	699.542
184.198	14.784	922.358	698.525
185.213	14.889	921.730	698.424
186.227	14.801	920.942	697.399
187.242	14.896	920.462	697.370
188.256	14.844	919.934	696.692
189.271	14.913	919.189	696.353
190.286	14.695	918.253	694.673
191.300	14.575	917.484	693.534
192.315	14.417	917.099	692.524
193.329	14.404	916.652	692.072
194.344	14.470	916.140	691.895
195.359	14.655	915.084	691.806
196.373	14.855	914.328	692.000
197.388	14.880	914.395	692.094
198.402	15.062	913.533	692.133
199.417	15.110	913.004	691.869
200.432	15.073	912.496	691.268
201.446	15.120	912.487	691.396
202.461	15.220	911.653	691.115
203.475	15.157	910.949	690.261
204.490	15.143	909.991	689.414
205.504	15.155	909.163	688.775
206.519	14.915	908.948	687.567
207.534	15.001	907.756	686.955
208.548	15.055	907.619	687.012
209.563	14.862	907.077	685.750
210.577	15.155	905.775	685.907
211.592	15.156	905.640	685.747
212.607	15.252	904.403	685.142
213.621	15.324	903.707	684.850
214.636	15.280	903.115	684.161
215.650	15.319	902.501	683.793
216.665	15.318	901.768	683.172
217.680	15.288	901.546	682.824
218.694	15.371	900.337	682.185
219.709	15.382	899.760	681.731
220.723	15.284	899.098	680.771
221.738	15.374	898.651	680.737
222.753	15.436	897.952	680.399
223.767	15.410	897.591	679.962
224.782	15.522	896.663	679.650
225.796	15.459	896.447	679.173
226.811	15.482	895.545	678.523
227.826	15.403	894.792	677.570
228.840	15.356	894.087	676.788
229.855	15.380	893.153	676.119
230.869	15.400	892.498	675.641
231.884	15.332	892.069	674.986
232.899	15.204	891.548	674.016
233.913	15.294	890.498	673.523
234.928	15.276	890.131	673.116
235.942	15.301	889.837	672.933
236.957	15.329	888.913	672.289
237.972	15.268	888.781	671.884
238.986	15.413	887.503	671.437
240.001	15.243	887.206	670.475
241.015	15.308	886.751	670.329
242.030	15.464	885.839	670.203
243.045	15.361	885.401	669.402
244.059	15.431	884.674	669.073
245.074	15.525	884.131	668.976
246.088	15.502	883.378	668.258
247.103	15.534	882.952	668.004
248.117	15.655	882.413	668.018
249.132	15.849	882.062	668.463
250.147	15.913	881.399	668.154
251.161	15.896	880.569	667.399
252.176	15.920	880.095	667.078
253.190	15.909	879.591	666.590
254.205	15.984	878.515	666.013
255.220	16.007	877.742	665.458
256.234	15.961	877.362	664.930
257.249	16.016	876.683	664.575
258.263	16.066	875.835	664.072
259.278	16.121	875.159	663.715
260.293	16.022	874.590	662.837
261.307	16.012	874.423	662.610
262.322	16.177	874.082	662.941
263.336	16.074	872.915	661.596
264.351	16.098	872.144	661.046
265.366	16.077	871.772	660.622
266.380	16.191	870.898	660.350
267.395	16.198	870.244	659.822
268.409	16.152	869.387	658.933
269.424	16.227	868.569	658.546
270.439	16.035	868.175	657.442
271.453	16.075	867.545	657.063
272.468	16.030	866.916	656.351
273.482	16.047	866.641	656.151
274.497	16.072	865.579	655.388
275.512	16.030	865.510	655.114
276.526	16.163	864.778	655.019
277.541	16.298	864.115	654.981
278.555	16.371	863.592	654.813
279.570	16.400	862.897	654.338
280.585	16.388	862.233	653.730
281.599	16.405	861.159	652.926
282.614	16.340	860.660	652.236
283.628	16.290	860.489	651.858
284.643	16.273	859.489	650.976
285.657	16.240	858.839	650.298
286.672	16.376	857.941	650.083
287.687	16.392	858.021	650.151
288.701	16.424	857.040	649.472
289.716	16.301	857.037	648.941
290.730	16.417	856.198	648.694
291.745	16.437	855.801	648.411
292.760	16.464	854.960	647.819
293.774	16.594	854.131	647.632
294.789	16.515	853.594	646.864
295.803	16.450	852.914	646.045
296.818	16.479	852.013	645.415
297.833	16.455	851.748	645.065
298.847	16.445	851.209	644.561
299.862	16.492	850.773	644.355
300.876	16.459	850.276	643.796
301.891	16.646	849.309	643.717
302.906	16.634	849.118	643.471
303.920	16.769	848.457	643.424
304.935	16.752	848.014	642.967
305.949	16.697	847.333	642.184
306.964	16.589	846.839	641.344
307.979	16.635	846.319	641.067
308.993	16.800	845.450	640.977
310.008	16.886	845.013	640.917
311.022	16.694	844.579	639.804
312.037	16.782	843.660	639.384
313.052	16.657	843.041	638.385
314.066	16.509	842.774	637.570
315.081	16.475	842.303	637.027
316.095	16.568	841.553	636.754
317.110	16.584	841.067	636.392
318.125	16.646	840.475	636.121
319.139	16.572	839.972	635.405
320.154	16.726	839.576	635.626
321.168	16.785	838.925	635.298
322.183	16.769	838.457	634.830
323.197	16.772	837.974	634.418
324.212	16.858	837.599	634.402
325.227	16.786	836.740	633.423
326.241	16.664	836.300	632.578
327.256	16.746	835.820	632.466
328.270	16.682	835.148	631.663
329.285	16.786	834.375	631.411
330.300	16.740	833.881	630.808
331.314	16.907	833.181	630.846
332.329	16.756	833.396	630.390
333.343	16.851	832.967	630.363
334.358	16.957	832.042	630.002
335.373	16.847	831.713	629.289
336.387	17.106	831.339	629.909
337.402	17.026	831.168	629.429
338.416	17.036	831.389	629.577
339.431	17.130	830.674	629.328
340.446	17.258	829.955	629.201
341.460	17.276	829.937	629.198
342.475	17.328	829.424	628.948
343.489	17.303	828.706	628.253
344.504	17.307	828.298	627.903
345.519	17.360	828.127	627.916
346.533	17.328	827.469	627.242
347.548	17.255	826.786	626.400
348.562	17.213	826.133	625.696
349.577	17.040	825.495	624.521
350.592	16.954	825.207	623.932
351.606	17.142	824.459	624.002
352.621	17.103	823.706	623.231
353.635	17.127	823.025	622.749
354.650	17.112	822.775	622.450
355.665	17.270	821.790	622.229
356.679	17.332	821.391	622.099
357.694	17.226	820.707	621.139
358.708	17.435	819.940	621.266
359.723	17.383	819.760	620.883
360.738	17.341	818.741	619.905
361.752	17.422	818.151	619.698
362.767	17.506	817.964	619.806
363.781	17.541	817.700	619.678
364.796	17.491	817.300	619.140
365.810	17.834	816.476	619.707
366.825	17.738	816.216	619.105
367.840	17.638	815.726	618.318
368.854	17.672	814.846	617.719
369.869	17.580	815.165	617.573
370.883	17.761	813.820	617.153
371.898	17.728	813.927	617.063
372.913	17.708	813.751	616.800
373.927	17.695	813.182	616.268
374.942	17.789	812.605	616.114
375.956	17.705	812.094	615.370
376.971	17.838	811.817	615.585
377.986	17.718	811.392	614.776
379.000	17.826	811.069	614.865
380.015	17.926	810.231	614.537
381.029	17.909	809.614	613.952
382.044	17.868	809.195	613.435
383.059	17.943	808.783	613.336
384.073	17.882	808.112	612.553
385.088	17.892	807.386	611.985
386.102	17.773	806.671	610.961
387.117	17.793	806.123	610.564
388.132	17.815	805.840	610.377
389.146	17.746	805.321	609.681
390.161	17.814	804.830	609.497
391.175	17.902	804.511	609.517
392.190	17.867	803.756	608.767
393.205	17.876	803.322	608.418
394.219	17.814	803.084	607.961
395.234	17.863	802.685	607.781
396.248	17.961	802.016	607.569
397.263	17.852	801.300	606.585
398.278	17.795	801.355	606.368
399.292	17.784	800.770	605.834
400.307	17.853	800.666	605.949
401.321	17.717	800.052	604.946
402.336	17.875	799.710	605.194
403.350	17.886	798.978	604.627
404.365	18.009	798.910	604.957
405.380	18.051	798.455	604.708
406.394	18.120	797.599	604.249
407.409	18.144	797.539	604.235
408.423	18.298	797.211	604.477
409.438	18.195	797.026	603.919
410.453	18.354	796.399	603.951
411.467	18.375	795.894	603.589
412.482	18.354	795.353	603.051
413.496	18.374	795.101	602.879
414.511	18.479	794.754	602.932
415.526	18.261	794.330	601.791
416.540	18.418	793.752	601.851
417.555	18.416	793.088	601.287
418.569	18.388	792.676	600.821
419.584	18.344	792.732	600.658
420.599	18.452	791.993	600.422
421.613	156.611	1369.740	1794.407
422.628	135.548	1453.924	1794.500
