DTS Sentinel unit serial number:	SN413079Multiplexer serial number:	ORYXHardware model number:	OX4-SRSoftware version number:	ORYX F/W v4.00 Oryx Data Collector v3.7.2.0data status	okinstallation	princeton_trtdifferential loss correction	single-endedforward channel	channel 1reverse channel	N/Adate	2019/09/12time	20:10:34forward acquisition time	15.00reverse acquisition time	0.00gamma	496.2192k internal	0.2324k external	0.2324temperature offset calibration	1.0131default loss term (dB/km)	0.3790temperature slope calibration	1.0000multiplexer offset coefficient	1.0000multiplexer slope coefficient	1.0000fibre end	0.00T internal ref (°C)	31.62T ext. ref 1 (°C)	3.47T ext. ref 2 (°C)	26.30length (m)	temperature (°C)	Stokes	anti-Stokes-747.200	-46.716	-0.197	0.098
-746.185	80.555	-0.595	-0.647
-745.171	-200.000	0.046	0.622
-744.156	291.424	-0.105	-0.192
-743.142	169.542	0.207	-0.298
-742.127	210.566	0.319	0.506
-741.112	-47.130	0.767	0.378
-740.098	16.033	0.327	-0.260
-739.083	-66.690	-0.470	0.188
-738.069	158.849	-0.546	0.766
-737.054	195.530	-0.091	-0.140
-736.039	-96.585	-0.975	0.259
-735.025	765.544	0.230	0.631
-734.010	283.845	-0.315	-0.572
-732.996	58.183	0.059	-0.058
-731.981	-5.168	-0.411	-0.285
-730.966	21.054	-0.065	-0.054
-729.952	48.233	0.274	0.258
-728.937	45.498	-0.872	0.812
-727.923	-57.652	-0.627	0.277
-726.908	395.106	0.433	0.910
-725.894	722.524	-0.223	-0.600
-724.879	-146.814	-0.504	0.044
-723.864	800.000	-0.319	0.914
-722.850	560.262	-0.088	-0.214
-721.835	-200.000	-0.143	-0.643
-720.821	800.000	-0.097	-0.321
-719.806	-200.000	0.066	-0.409
-718.791	800.000	-0.286	-0.825
-717.777	-49.684	-0.629	0.301
-716.762	-109.954	1.050	0.222
-715.748	-55.118	-0.598	-0.272
-714.733	-132.761	-0.200	0.026
-713.718	165.200	-0.238	0.339
-712.704	667.883	0.225	0.588
-711.689	-200.000	-0.173	-0.827
-710.675	52.309	0.250	-0.240
-709.660	608.075	-0.345	-0.868
-708.645	13.282	-0.645	-0.504
-707.631	-200.000	0.113	-0.808
-706.616	88.265	-0.231	-0.258
-705.602	-200.000	0.033	0.230
-704.587	800.000	-0.142	0.544
-703.572	12.054	0.212	0.165
-702.558	70.466	-0.309	-0.322
-701.543	17.457	-0.227	0.182
-700.529	-144.721	0.635	-0.059
-699.514	-200.000	0.002	-0.232
-698.499	-160.660	-0.307	0.016
-697.485	-193.378	-0.484	0.004
-696.470	-131.678	0.464	-0.061
-695.456	800.000	0.145	0.419
-694.441	-22.742	1.068	0.650
-693.426	-7.780	0.418	0.285
-692.412	-5.515	0.375	-0.259
-691.397	181.504	-0.091	0.135
-690.383	302.754	-0.296	-0.552
-689.368	800.000	0.219	0.918
-688.354	23.589	0.293	-0.243
-687.339	-6.002	-0.787	0.542
-686.324	-200.000	-0.053	0.619
-685.310	746.278	0.072	0.195
-684.295	-146.083	-0.303	0.027
-683.281	-200.000	0.023	-0.194
-682.266	-36.042	-0.521	0.283
-681.251	154.880	0.463	0.641
-680.237	9.922	-0.492	-0.376
-679.222	-96.428	-0.732	0.195
-678.208	-114.914	0.444	0.085
-677.193	288.884	-0.185	-0.337
-676.178	258.057	-0.284	-0.493
-675.164	214.967	-0.527	-0.840
-674.149	183.902	0.298	-0.443
-673.135	-200.000	-0.034	-1.690
-672.120	-2.220	0.580	0.410
-671.105	-200.000	-0.046	-0.269
-670.091	800.000	0.287	0.828
-669.076	-56.218	0.437	-0.195
-668.062	-200.000	-0.049	0.226
-667.047	-1.960	-0.333	0.236
-666.032	-112.818	-0.742	0.148
-665.018	121.199	-0.317	0.397
-664.003	33.985	0.660	0.579
-662.989	-55.879	0.119	0.054
-661.974	-124.953	0.695	0.108
-660.959	-17.616	-0.669	-0.423
-659.945	-134.646	0.482	-0.059
-658.930	-152.071	-0.336	-0.025
-657.916	-200.000	-0.059	-0.362
-656.901	-61.062	0.530	0.225
-655.886	-36.443	-0.250	-0.135
-654.872	-63.997	1.085	-0.446
-653.857	170.964	0.515	-0.742
-652.843	-200.000	0.007	-0.140
-651.828	477.310	-0.137	-0.311
-650.814	122.479	0.398	0.500
-649.799	59.411	-1.036	-1.026
-648.784	319.413	-0.335	-0.638
-647.770	-200.000	0.024	-0.121
-646.755	28.668	0.472	0.402
-645.741	23.942	0.522	0.433
-644.726	269.173	-0.252	-0.446
-643.711	-200.000	0.019	-0.271
-642.697	-200.000	0.037	-0.396
-641.682	-3.067	0.361	0.253
-640.668	451.043	0.083	0.184
-639.653	-184.659	0.657	0.011
-638.638	-117.359	0.227	-0.041
-637.624	-22.649	-0.685	-0.416
-636.609	141.712	-0.505	-0.673
-635.595	-6.579	0.792	-0.543
-634.580	-95.437	-0.802	-0.216
-633.565	-57.449	0.331	-0.146
-632.551	-44.639	0.594	0.298
-631.536	-200.000	0.024	-0.630
-630.522	-153.948	0.629	0.043
-629.507	-200.000	-0.148	-0.916
-628.492	50.665	-0.766	-0.729
-627.478	-200.000	0.106	0.570
-626.463	-84.605	0.872	0.276
-625.449	-0.852	-0.453	-0.323
-624.434	-44.892	-0.212	0.106
-623.419	520.068	-0.265	0.623
-622.405	-200.000	0.122	-0.776
-621.390	-21.772	-0.210	0.128
-620.376	124.233	-0.189	0.238
-619.361	-200.000	0.047	-0.284
-618.346	32.985	-0.488	0.425
-617.332	53.451	-0.280	-0.270
-616.317	-200.000	0.001	-0.524
-615.303	-200.000	-0.062	-0.635
-614.288	352.397	0.489	0.973
-613.273	-200.000	0.099	0.512
-612.259	-114.583	-0.311	0.060
-611.244	-34.766	0.701	-0.384
-610.230	-84.039	0.077	0.025
-609.215	-146.745	0.752	0.065
-608.201	-79.095	-0.426	-0.145
-607.186	286.788	-0.185	-0.335
-606.171	-123.298	-0.606	0.097
-605.157	-17.172	0.101	0.064
-604.142	88.821	0.015	0.017
-603.128	338.603	0.687	-1.342
-602.113	-200.000	0.084	-0.436
-601.098	-100.858	-0.319	0.079
-600.084	-81.899	0.391	-0.128
-599.069	800.000	0.273	1.178
-598.055	128.281	0.529	-0.676
-597.040	161.469	-0.177	-0.249
-596.025	-30.940	0.301	0.171
-595.011	-116.512	-0.645	-0.119
-593.996	-70.383	0.491	-0.187
-592.982	-74.060	0.679	-0.247
-591.967	-53.680	0.733	0.336
-590.952	157.377	-0.087	-0.120
-589.938	-200.000	-0.032	-0.172
-588.923	-41.066	0.934	0.484
-587.909	-63.600	-0.742	-0.306
-586.894	-14.934	0.175	-0.113
-585.879	-88.830	0.146	0.043
-584.865	227.547	-0.194	0.317
-583.850	157.032	0.521	0.723
-582.836	800.000	0.138	0.390
-581.821	102.166	0.482	-0.565
-580.806	800.000	0.054	0.217
-579.792	40.043	0.502	-0.452
-578.777	-170.198	-0.646	-0.023
-577.763	-107.533	-0.061	-0.013
-576.748	175.722	0.107	-0.155
-575.733	-62.247	0.870	-0.364
-574.719	-200.000	0.106	0.535
-573.704	-71.954	0.170	0.064
-572.690	800.000	0.144	-0.530
-571.675	573.672	-0.282	0.689
-570.661	128.349	-0.217	0.277
-569.646	-28.318	0.221	0.128
-568.631	-194.247	-0.602	-0.005
-567.617	553.394	0.247	-0.596
-566.602	-37.800	0.617	0.329
-565.588	275.740	0.172	0.306
-564.573	-101.995	0.693	0.168
-563.558	-62.531	0.231	-0.096
-562.544	444.479	0.149	0.327
-561.529	55.847	-0.030	0.029
-560.515	-176.373	-0.789	-0.021
-559.500	-75.745	-0.461	-0.164
-558.485	-126.644	-0.757	0.112
-557.471	800.000	-0.253	0.755
-556.456	-60.576	-0.566	-0.241
-555.442	227.562	0.405	0.660
-554.427	-47.032	0.614	0.300
-553.412	800.000	-0.086	-0.336
-552.398	-200.000	-0.020	0.265
-551.383	-70.062	-0.446	-0.170
-550.369	-63.783	0.384	-0.158
-549.354	-179.910	-0.923	0.020
-548.339	800.000	0.065	-0.213
-547.325	800.000	0.127	0.470
-546.310	403.528	-0.518	-1.092
-545.296	40.704	-0.763	-0.689
-544.281	-167.732	-0.364	-0.014
-543.266	-175.708	-0.257	-0.007
-542.252	96.696	-0.160	-0.184
-541.237	-8.491	-0.237	0.160
-540.223	-29.663	0.707	0.404
-539.208	800.000	0.045	-0.175
-538.193	-200.000	0.000	0.329
-537.179	800.000	-0.161	0.640
-536.164	-200.000	-0.184	0.930
-535.150	127.271	0.471	-0.598
-534.135	-128.004	0.482	0.069
-533.121	37.979	0.779	0.693
-532.106	-14.093	0.307	0.198
-531.091	591.590	-0.286	0.706
-530.077	760.539	0.177	0.482
-529.062	-57.383	0.316	0.139
-528.048	-17.447	0.416	-0.262
-527.033	148.752	-0.679	-0.919
-526.018	4.568	-0.506	0.372
-525.004	-200.000	0.020	-0.777
-523.989	-106.970	0.819	-0.181
-522.975	79.770	0.455	-0.489
-521.960	-141.318	0.335	-0.034
-520.945	102.558	-0.191	0.223
-519.931	214.534	-0.155	-0.245
-518.916	-38.689	-0.379	-0.200
-517.902	-147.684	0.201	0.017
-516.887	-171.350	-0.093	-0.003
-515.872	-200.000	-0.073	-0.381
-514.858	6.552	-0.254	0.189
-513.843	-200.000	-0.018	0.472
-512.829	-200.000	0.014	0.272
-511.814	800.000	-0.072	-0.297
-510.799	-137.786	0.461	-0.052
-509.785	488.995	-0.158	-0.361
-508.770	-122.033	-0.286	-0.047
-507.756	-123.119	0.738	-0.118
-506.741	800.000	0.057	0.217
-505.726	225.587	-0.345	0.560
-504.712	38.341	-0.448	0.399
-503.697	800.000	-0.176	0.494
-502.683	88.362	0.228	0.253
-501.668	734.867	-0.048	-0.128
-500.653	800.000	0.140	-0.452
-499.639	60.907	-0.506	0.502
-498.624	222.074	-0.084	0.135
-497.610	283.882	0.403	0.725
-496.595	125.458	0.072	0.091
-495.581	-11.471	0.298	-0.196
-494.566	224.334	-0.377	-0.609
-493.551	104.951	-0.276	0.325
-492.537	25.678	0.374	0.311
-491.522	-200.000	0.075	0.903
-490.508	800.000	-0.164	0.474
-489.493	357.533	-0.130	0.259
-488.478	63.580	0.338	-0.339
-487.464	-90.604	0.198	0.057
-486.449	571.874	0.201	-0.488
-485.435	-23.408	0.475	-0.285
-484.420	800.000	0.238	0.764
-483.405	71.312	-0.359	0.372
-482.391	-121.918	-0.337	0.055
-481.376	-83.655	-1.119	-0.357
-480.362	-112.982	0.558	0.110
-479.347	-74.650	-0.403	-0.145
-478.332	61.657	0.499	-0.496
-477.318	495.679	-0.103	0.237
-476.303	92.472	-0.250	-0.282
-475.289	62.347	-0.691	-0.689
-474.274	-85.976	0.370	-0.114
-473.259	800.000	-0.050	-0.202
-472.245	-200.000	-0.053	0.521
-471.230	-105.621	-0.351	0.079
-470.216	-140.533	0.183	-0.019
-469.201	422.474	-0.165	0.354
-468.186	147.416	-0.529	-0.711
-467.172	-58.539	-0.271	-0.117
-466.157	154.899	-0.215	-0.295
-465.143	-53.178	-1.150	0.527
-464.128	23.459	-0.464	-0.381
-463.113	800.000	-0.118	-0.508
-462.099	369.437	0.209	-0.422
-461.084	243.523	0.143	-0.239
-460.070	-200.000	0.002	-0.365
-459.055	59.768	0.769	0.758
-458.040	-200.000	0.165	0.852
-457.026	-145.599	-0.586	-0.052
-456.011	68.309	0.097	-0.099
-454.997	-78.300	0.762	0.261
-453.982	64.363	0.225	-0.226
-452.968	-200.000	0.120	0.936
-451.953	-200.000	-0.545	0.001
-450.938	-200.000	0.082	-0.832
-449.924	382.358	0.356	-0.730
-448.909	282.555	0.329	-0.590
-447.895	69.719	-0.219	0.225
-446.880	-90.691	0.375	0.108
-445.865	-200.000	-0.043	0.231
-444.851	800.000	0.209	0.645
-443.836	800.000	-0.112	-0.389
-442.822	769.397	-0.216	-0.585
-441.807	-8.409	0.294	0.197
-440.792	-200.000	0.051	0.259
-439.778	449.381	0.128	-0.282
-438.763	-200.000	-0.002	-0.539
-437.749	-181.078	0.302	0.006
-436.734	-62.421	0.458	0.190
-435.719	127.934	-0.484	-0.614
-434.705	-85.159	0.365	0.114
-433.690	-200.000	0.016	0.090
-432.676	83.577	-0.138	0.150
-431.661	108.128	-0.533	0.634
-430.646	660.834	-0.199	-0.511
-429.632	-137.334	-0.444	-0.050
-428.617	65.673	-0.246	0.249
-427.603	-97.465	-0.468	0.121
-426.588	-66.646	-0.374	-0.148
-425.573	-122.985	-0.743	0.119
-424.559	35.080	-0.175	-0.153
-423.544	-143.719	0.785	0.074
-422.530	-200.000	0.121	0.603
-421.515	767.141	-0.057	0.154
-420.500	-112.940	0.403	-0.079
-419.486	16.573	-0.711	0.560
-418.471	-55.294	-0.966	0.433
-417.457	-20.782	0.858	-0.524
-416.442	-135.890	0.685	0.080
-415.428	551.861	0.168	0.401
-414.413	-200.000	-0.016	-0.343
-413.398	558.034	0.210	-0.505
-412.384	800.000	-0.246	-0.716
-411.369	-168.739	-0.513	-0.019
-410.355	-105.732	0.416	-0.094
-409.340	-200.000	0.261	0.001
-408.325	-113.403	-0.578	-0.113
-407.311	-46.423	0.818	-0.400
-406.296	-200.000	-0.031	-0.276
-405.282	412.318	-0.206	-0.436
-404.267	552.547	-0.113	0.269
-403.252	-200.000	-0.128	1.089
-402.238	-75.433	0.988	-0.350
-401.223	31.535	-0.349	0.299
-400.209	76.135	-0.560	-0.590
-399.194	14.774	0.734	0.571
-398.179	-200.000	0.032	0.801
-397.165	-38.603	0.169	-0.089
-396.150	-200.000	-0.008	0.321
-395.136	800.000	-0.076	0.266
-394.121	-200.000	-0.010	-1.013
-393.106	-57.796	1.324	0.577
-392.092	3.566	-0.277	-0.201
-391.077	-61.161	0.406	-0.171
-390.063	-38.725	0.254	-0.134
-389.048	322.147	-0.224	0.424
-388.033	-7.673	-0.325	-0.218
-387.019	800.000	0.294	0.930
-386.004	-30.939	0.761	0.428
-384.990	800.000	-0.099	0.325
-383.975	-200.000	0.168	0.867
-382.960	-115.998	-0.090	-0.017
-381.946	93.936	-0.574	0.648
-380.931	-200.000	0.015	-0.462
-379.917	54.463	-0.112	-0.107
-378.902	32.675	-0.319	0.274
-377.888	73.222	-0.123	0.129
-376.873	422.397	0.250	0.535
-375.858	41.293	0.286	-0.257
-374.844	800.000	-0.131	-0.502
-373.829	-8.735	-0.227	-0.151
-372.815	-57.588	-0.771	-0.336
-371.800	-54.023	0.174	-0.079
-370.785	-5.608	-0.777	-0.530
-369.771	113.020	-0.267	0.321
-368.756	-5.885	-0.505	0.344
-367.742	47.184	0.227	-0.211
-366.727	117.497	-0.266	0.325
-365.712	359.994	0.292	0.580
-364.698	432.081	0.127	0.273
-363.683	-103.906	-0.663	0.154
-362.669	-200.000	-0.006	1.048
-361.654	-2.795	-0.204	0.142
-360.639	255.544	0.152	-0.258
-359.625	73.538	-0.048	-0.050
-358.610	25.931	0.745	-0.618
-357.596	-10.614	-0.076	-0.050
-356.581	410.396	0.285	0.601
-355.566	36.055	0.217	0.190
-354.552	800.000	-0.016	-0.060
-353.537	-177.623	0.180	-0.004
-352.523	-139.122	0.774	-0.083
-351.508	-200.000	-0.052	0.589
-350.493	-200.000	0.111	0.519
-349.479	397.523	-0.433	0.900
-348.464	-121.023	-0.245	-0.041
-347.450	-200.000	0.108	-0.486
-346.435	241.236	-0.169	-0.280
-345.420	-200.000	-0.033	0.171
-344.406	161.882	-0.153	-0.213
-343.391	-174.002	1.244	0.036
-342.377	-200.000	-0.091	0.530
-341.362	514.812	-0.356	0.825
-340.348	2.337	-0.357	0.257
-339.333	-200.000	-0.072	-0.550
-338.318	-50.505	-0.493	-0.231
-337.304	-105.129	0.395	-0.090
-336.289	-44.607	-0.502	0.249
-335.275	640.525	0.033	-0.082
-334.260	-37.967	-0.386	-0.204
-333.245	-92.142	0.314	0.088
-332.231	5.569	0.167	-0.122
-331.216	74.420	0.599	0.625
-330.202	-8.648	-0.358	0.239
-329.187	-21.331	0.414	-0.251
-328.172	800.000	-0.135	-0.388
-327.158	302.885	-0.469	-0.863
-326.143	95.487	-0.483	-0.547
-325.129	220.061	0.257	-0.409
-324.114	-167.541	-1.074	-0.043
-323.099	-134.764	-0.321	0.039
-322.085	-200.000	0.067	-0.672
-321.070	-68.732	-0.434	0.167
-320.056	-74.778	0.593	0.211
-319.041	96.025	-0.222	-0.252
-318.026	322.937	0.270	0.511
-317.012	698.067	0.207	0.541
-315.997	800.000	0.099	-0.369
-314.983	-25.154	-0.934	0.549
-313.968	-104.573	-0.678	-0.155
-312.953	800.000	-0.146	0.575
-311.939	324.846	0.332	0.629
-310.924	76.434	0.279	-0.294
-309.910	109.951	0.132	0.157
-308.895	59.091	0.498	-0.487
-307.880	351.316	0.084	-0.166
-306.866	-83.069	-0.213	0.068
-305.851	-83.088	0.165	-0.053
-304.837	23.304	-0.561	0.457
-303.822	-81.441	0.254	0.083
-302.807	648.866	-0.055	-0.138
-301.793	150.764	-0.329	0.444
-300.778	-79.211	0.354	-0.119
-299.764	-9.552	0.412	-0.272
-298.749	-103.864	-0.731	-0.170
-297.735	1.856	-0.329	0.235
-296.720	-112.729	-0.680	0.134
-295.705	-200.000	0.062	-0.418
-294.691	4.299	0.219	-0.159
-293.676	-162.289	0.154	-0.008
-292.662	512.297	-0.199	-0.460
-291.647	-168.086	0.139	0.005
-290.632	800.000	0.211	0.811
-289.618	35.002	-0.872	0.757
-288.603	-1.227	0.379	-0.266
-287.589	-115.034	-0.287	0.054
-286.574	98.630	0.395	-0.451
-285.559	636.133	0.178	-0.448
-284.545	151.561	0.327	0.441
-283.530	800.000	-0.225	0.644
-282.516	2.776	-0.522	-0.375
-281.501	-200.000	0.140	0.610
-280.486	61.703	-0.213	0.210
-279.472	-84.387	-0.639	0.200
-278.457	-200.000	0.057	0.497
-277.443	159.543	-0.287	-0.395
-276.428	132.202	0.170	0.218
-275.413	156.007	-0.408	0.557
-274.399	318.763	-0.085	-0.160
-273.384	-92.720	0.458	0.127
-272.370	800.000	0.060	-0.203
-271.355	623.704	0.114	0.284
-270.340	217.650	-0.503	-0.794
-269.326	19.719	-0.279	-0.223
-268.311	-28.493	0.486	-0.278
-267.297	-88.436	0.062	0.018
-266.282	761.715	-0.339	0.911
-265.267	-193.966	0.393	-0.003
-264.253	-120.737	0.437	-0.073
-263.238	32.209	-0.362	-0.310
-262.224	-79.024	-0.897	-0.302
-261.209	24.187	0.486	0.398
-260.195	-115.274	0.492	-0.092
-259.180	-134.182	0.950	-0.116
-258.165	0.672	-0.404	0.286
-257.151	138.132	0.511	0.664
-256.136	-46.599	-0.613	-0.297
-255.122	-113.708	0.432	0.083
-254.107	800.000	0.051	-0.174
-253.092	-96.052	-0.123	0.032
-252.078	22.987	-0.243	-0.198
-251.063	-200.000	0.004	-0.323
-250.049	-200.000	0.073	-0.322
-249.034	161.769	0.213	0.295
-248.019	-200.000	0.058	-0.852
-247.005	-59.929	-0.648	0.274
-245.990	147.443	-0.265	-0.353
-244.976	-111.177	-0.497	-0.101
-243.961	107.927	-0.670	0.790
-242.946	-148.081	0.594	0.049
-241.932	533.431	0.373	-0.873
-240.917	-200.000	0.046	-0.567
-239.903	73.560	-0.563	0.584
-238.888	-146.609	0.575	0.049
-237.873	105.944	0.210	-0.245
-236.859	735.438	0.067	-0.177
-235.844	800.000	-0.184	-0.514
-234.830	-135.845	-0.687	-0.080
-233.815	-200.000	-0.011	0.131
-232.800	800.000	0.129	-0.409
-231.786	800.000	0.321	-0.909
-230.771	-200.000	0.056	-0.895
-229.757	800.000	0.154	-0.505
-228.742	236.281	-0.404	-0.661
-227.727	88.406	0.289	-0.317
-226.713	581.915	0.322	0.780
-225.698	-200.000	-0.059	0.386
-224.684	-5.984	0.434	-0.294
-223.669	-200.000	0.051	0.252
-222.655	82.478	-0.348	-0.374
-221.640	800.000	0.314	1.081
-220.625	800.000	-0.150	-0.488
-219.611	324.625	-0.098	-0.186
-218.596	-200.000	0.023	0.426
-217.582	36.922	0.256	0.224
-216.567	-200.000	0.047	-0.463
-215.552	-200.000	0.117	-0.792
-214.538	-200.000	-0.023	0.246
-213.523	800.000	0.173	0.564
-212.509	493.503	0.324	-0.736
-211.494	1.554	0.139	0.099
-210.479	-200.000	-0.067	-0.958
-209.465	-200.000	-0.002	-0.151
-208.450	243.340	-0.519	0.860
-207.436	-200.000	-0.012	0.137
-206.421	-92.103	-0.579	-0.162
-205.406	462.657	-0.169	0.373
-204.392	282.186	-0.281	0.498
-203.377	-32.095	0.664	-0.367
-202.363	-200.000	-0.031	-0.227
-201.348	800.000	0.309	-0.863
-200.333	-90.670	0.596	0.170
-199.319	574.822	-0.314	-0.757
-198.304	788.773	0.058	0.158
-197.290	-59.374	0.236	0.100
-196.275	793.837	0.186	0.505
-195.260	50.972	-0.152	-0.142
-194.246	-200.000	0.099	0.892
-193.231	16.783	-0.269	-0.210
-192.217	-200.000	0.093	-0.565
-191.202	-42.201	-0.505	0.255
-190.187	70.341	0.311	0.317
-189.173	59.077	-0.160	-0.155
-188.158	-200.000	0.091	-0.867
-187.144	-200.000	0.028	-0.451
-186.129	799.176	-0.120	0.326
-185.114	-26.306	0.277	0.160
-184.100	-142.894	-0.340	0.033
-183.085	171.629	-0.335	0.475
-182.071	-200.000	-0.078	0.882
-181.056	1.138	-0.310	0.220
-180.042	-14.242	-0.585	-0.372
-179.027	-34.762	0.322	0.174
-178.012	360.999	-0.199	-0.393
-176.998	-52.972	1.037	0.471
-175.983	-34.464	-0.188	0.101
-174.969	-122.808	0.423	-0.067
-173.954	800.000	0.109	0.399
-172.939	134.574	-0.225	-0.288
-171.925	64.406	0.367	0.365
-170.910	800.000	-0.105	0.347
-169.896	-146.766	0.336	-0.029
-168.881	-64.857	-0.502	-0.201
-167.866	-200.000	-0.065	-0.281
-166.852	800.000	0.148	0.636
-165.837	22.044	0.283	-0.228
-164.823	198.330	0.371	0.560
-163.808	-54.973	-0.504	0.224
-162.793	-136.524	-0.592	0.068
-161.779	-56.295	0.901	-0.395
-160.764	635.976	0.110	0.275
-159.750	-140.016	-0.754	0.078
-158.735	183.222	0.419	-0.611
-157.720	57.983	-0.126	-0.122
-156.706	-200.000	0.022	-0.327
-155.691	-45.430	0.482	0.236
-154.677	22.035	-0.306	0.246
-153.662	-15.130	0.016	-0.010
-152.647	-200.000	-0.030	-0.436
-151.633	767.828	0.252	-0.676
-150.618	161.940	-0.255	0.352
-149.604	-50.527	0.376	0.175
-148.589	-55.711	0.424	0.187
-147.574	226.317	-0.373	-0.597
-146.560	-75.228	0.296	0.104
-145.545	-102.551	-0.745	-0.176
-144.531	96.529	0.525	-0.592
-143.516	98.201	-0.357	-0.405
-142.502	243.010	0.635	-1.049
-141.487	-16.508	-0.325	0.203
-140.472	-15.015	0.193	-0.122
-139.458	197.647	0.218	0.328
-138.443	-94.232	0.343	-0.092
-137.429	33.238	-0.599	-0.512
-136.414	0.445	-0.454	0.320
-135.399	129.927	0.215	-0.271
-134.385	67.203	-0.511	-0.513
-133.370	-200.000	-0.063	-0.336
-132.356	42.707	-0.314	-0.282
-131.341	-39.302	0.438	0.227
-130.326	-200.000	0.019	0.569
-129.312	-200.000	-0.097	-0.761
-128.297	-200.000	-0.003	-0.370
-127.283	505.078	-0.251	0.573
-126.268	80.916	-0.289	0.307
-125.253	126.689	-0.075	0.094
-124.239	83.388	0.354	-0.380
-123.224	692.877	0.225	-0.581
-122.210	800.000	0.094	0.258
-121.195	549.964	-0.116	0.274
-120.180	-193.710	-0.266	-0.002
-119.166	-30.118	0.167	0.093
-118.151	-6.858	0.681	0.456
-117.137	-65.609	0.294	-0.116
-116.122	102.139	0.289	-0.333
-115.107	112.435	-0.461	-0.550
-114.093	46.488	0.308	-0.281
-113.078	-40.298	0.532	0.272
-112.064	800.000	0.145	-0.422
-111.049	-124.668	-0.366	0.056
-110.034	32.462	-0.196	0.167
-109.020	800.000	0.165	0.531
-108.005	593.664	0.252	-0.614
-106.991	78.168	0.325	0.342
-105.976	10.433	0.242	0.181
-104.962	214.679	-0.438	0.683
-103.947	301.764	-0.316	-0.575
-102.932	-200.000	-0.051	-0.393
-101.918	800.000	0.193	-0.596
-100.903	-113.000	-0.618	0.120
-99.889	-14.810	-0.476	0.301
-98.874	23.490	-0.171	-0.138
-97.859	-9.938	0.205	0.134
-96.845	-49.966	0.448	0.209
-95.830	-64.626	-0.163	-0.065
-94.816	-200.000	0.034	0.833
-93.801	800.000	-0.088	0.273
-92.786	180.355	-0.417	-0.602
-91.772	800.000	-0.097	0.326
-90.757	-63.837	0.451	-0.182
-89.743	-21.950	-0.559	-0.334
-88.728	105.606	-0.657	0.764
-87.713	-76.242	0.595	0.206
-86.699	-200.000	-0.070	0.728
-85.684	-133.754	-0.145	-0.018
-84.670	-54.458	-0.605	-0.270
-83.655	93.476	0.469	-0.522
-82.640	-77.913	0.746	0.253
-81.626	800.000	0.044	-0.179
-80.611	396.109	0.330	-0.678
-79.597	-200.000	-0.005	0.329
-78.582	-200.000	-0.033	0.645
-77.567	493.549	0.230	-0.519
-76.553	5.225	-0.162	0.118
-75.538	-27.201	-0.597	0.342
-74.524	413.692	0.392	-0.821
-73.509	211.787	0.124	0.192
-72.494	90.746	0.329	-0.362
-71.480	-89.777	0.193	-0.056
-70.465	331.395	-0.205	0.388
-69.451	-200.000	0.025	-0.227
-68.436	-200.000	-0.023	0.132
-67.422	-200.000	-0.054	-0.668
-66.407	-200.000	-0.007	-0.117
-65.392	32.119	-0.046	-0.039
-64.378	110.379	-0.210	-0.248
-63.363	-149.535	1.045	-0.081
-62.349	-63.155	0.385	0.156
-61.334	336.497	-0.347	-0.662
-60.319	-156.080	1.032	0.064
-59.305	-200.000	0.219	-1.270
-58.290	85.063	1.046	1.127
-57.276	-200.000	0.250	2.140
-56.261	-200.000	100.065	607.642
-55.246	616.023	1379.977	3400.145
-54.232	199.534	2549.009	3840.853
-53.217	118.309	2121.291	2570.629
-52.203	43.652	1584.501	1424.232
-51.188	35.349	1322.242	1139.389
-50.173	32.054	1280.818	1084.651
-49.159	55.954	1332.870	1270.140
-48.144	56.773	1349.134	1290.410
-47.130	35.221	1306.330	1124.752
-46.115	31.961	1288.601	1090.527
-45.100	31.492	1284.439	1084.245
-44.086	31.625	1280.466	1081.617
-43.071	31.490	1278.419	1079.065
-42.057	31.745	1275.414	1077.953
-41.042	31.718	1274.991	1077.398
-40.027	31.626	1273.869	1075.877
-39.013	31.322	1272.187	1072.669
-37.998	31.775	1269.223	1072.725
-36.984	31.664	1268.700	1071.602
-35.969	31.788	1266.618	1070.512
-34.954	31.695	1264.852	1068.444
-33.940	31.623	1263.771	1067.079
-32.925	31.668	1262.638	1066.334
-31.911	31.636	1260.876	1064.622
-30.896	31.637	1260.096	1063.927
-29.881	31.809	1258.173	1063.237
-28.867	31.661	1257.154	1061.497
-27.852	31.898	1255.047	1061.019
-26.838	31.455	1254.471	1057.983
-25.823	31.753	1252.156	1057.672
-24.809	31.630	1251.914	1056.732
-23.794	31.867	1250.024	1056.425
-22.779	31.601	1249.725	1054.633
-21.765	31.688	1247.287	1053.025
-20.750	31.856	1246.020	1052.859
-19.736	31.832	1244.275	1051.205
-18.721	31.560	1243.399	1048.897
-17.706	31.722	1242.051	1048.627
-16.692	31.734	1240.574	1047.408
-15.677	31.430	1240.413	1045.529
-14.663	31.481	1239.606	1045.093
-13.648	31.384	1238.725	1043.769
-12.633	31.456	1237.333	1042.956
-11.619	31.466	1236.767	1042.489
-10.604	31.682	1235.172	1042.308
-9.590	31.329	1235.322	1040.429
-8.575	31.703	1232.924	1040.446
-7.560	31.799	1232.553	1040.622
-6.546	31.383	1231.815	1037.650
-5.531	31.503	1231.776	1038.241
-4.517	31.553	1229.935	1036.928
-3.502	31.586	1229.399	1036.617
-2.487	31.731	1228.371	1036.513
-1.473	31.569	1223.766	1031.689
-0.458	29.832	1210.359	1010.867
0.556	27.812	1190.537	972.222
1.571	23.896	1194.552	954.446
2.586	22.855	1210.383	961.343
3.600	22.299	1198.576	948.884
4.615	16.573	1129.085	864.606
5.629	7.940	1054.374	765.958
6.644	3.802	1034.240	731.707
7.659	3.269	1032.764	728.079
8.673	3.567	1030.910	728.113
9.688	3.243	1029.544	725.556
10.702	3.908	1027.859	727.433
11.717	9.332	1036.688	759.283
12.731	18.796	1048.433	812.812
13.746	23.313	1054.691	839.038
14.761	24.111	1055.404	843.313
15.775	23.966	1053.655	841.154
16.790	22.981	1052.677	835.643
17.804	22.626	1051.541	832.992
18.819	22.805	1051.218	833.511
19.834	23.110	1050.009	833.914
20.848	23.089	1049.964	833.703
21.863	23.119	1049.064	833.060
22.877	22.847	1048.126	830.958
23.892	22.469	1048.477	829.386
24.907	22.735	1046.455	828.962
25.921	22.522	1045.962	827.500
26.936	22.713	1044.525	827.186
27.950	22.706	1042.281	825.300
28.965	22.584	1041.595	824.114
29.980	22.676	1040.594	823.678
30.994	22.961	1039.677	824.211
32.009	22.817	1038.615	822.625
33.023	22.495	1038.343	820.836
34.038	22.482	1036.823	819.499
35.053	22.411	1035.933	818.393
36.067	22.629	1035.369	818.891
37.082	22.379	1034.800	817.207
38.096	22.518	1033.227	816.535
39.111	22.724	1034.081	818.092
40.126	22.724	1031.577	816.040
41.140	22.182	1030.131	812.323
42.155	22.141	1028.639	810.881
43.169	21.822	1027.709	808.606
44.184	22.122	1025.603	808.259
45.199	22.177	1024.954	807.927
46.213	22.134	1026.011	808.493
47.228	22.668	1025.380	810.381
48.242	22.934	1024.154	810.561
49.257	22.846	1022.998	809.170
50.271	22.669	1023.139	808.400
51.286	22.772	1021.919	807.832
52.301	22.913	1021.081	807.747
53.315	22.800	1019.874	806.200
54.330	22.717	1019.122	805.157
55.344	22.492	1016.394	801.905
56.359	22.486	1016.793	802.121
57.374	22.352	1016.845	801.483
58.388	22.452	1015.678	800.949
59.403	21.719	1015.113	797.100
60.417	21.797	1014.019	796.521
61.432	22.147	1013.130	797.343
62.447	22.157	1011.812	796.280
63.461	21.830	1012.069	794.930
64.476	21.950	1010.610	794.258
65.490	21.836	1010.307	793.430
66.505	21.785	1009.308	792.346
67.520	21.845	1009.745	792.893
68.534	21.617	1007.967	790.397
69.549	21.550	1006.887	789.175
70.563	21.591	1005.454	788.167
71.578	21.588	1005.057	787.775
72.593	21.066	1004.286	784.752
73.607	21.074	1004.203	784.656
74.622	21.416	1003.535	785.601
75.636	21.768	1000.842	784.996
76.651	21.339	1001.970	783.888
77.666	21.645	1001.677	784.963
78.680	21.255	1001.185	782.761
79.695	21.794	998.584	783.066
80.709	21.860	998.488	783.218
81.724	21.872	998.595	783.282
82.739	22.199	997.953	784.169
83.753	22.647	997.830	786.001
84.768	22.837	998.676	787.445
85.782	23.061	997.548	787.487
86.797	23.286	995.342	786.675
87.812	22.798	995.151	784.285
88.826	23.256	993.469	784.921
89.841	23.044	993.517	783.950
90.855	23.311	991.965	783.836
91.870	22.920	992.508	782.466
92.884	22.971	991.189	781.584
93.899	23.137	989.253	780.720
94.914	23.112	989.827	780.992
95.928	22.967	988.018	778.857
96.943	22.735	987.061	777.011
97.957	22.506	986.720	775.666
98.972	22.726	986.311	776.245
99.987	22.895	985.173	776.021
101.001	22.752	983.584	774.076
102.016	22.920	981.688	773.251
103.030	22.802	981.911	772.842
104.045	22.796	982.376	773.113
105.060	22.843	980.303	771.619
106.074	22.555	979.209	769.430
107.089	22.319	977.940	767.337
108.103	22.169	976.679	765.626
109.118	21.930	975.229	763.382
110.133	21.418	974.622	760.614
111.147	21.447	974.790	760.804
112.162	21.786	973.229	760.992
113.176	21.787	973.204	760.908
114.191	22.047	972.826	761.671
115.206	22.065	970.639	759.971
116.220	22.048	970.072	759.384
117.235	21.701	969.924	757.702
118.249	21.527	968.465	755.746
119.264	21.664	967.082	755.187
120.279	21.640	966.206	754.337
121.293	21.560	965.733	753.554
122.308	21.218	965.538	751.862
123.322	21.300	963.604	750.642
124.337	21.235	963.124	749.921
125.352	21.502	961.431	749.682
126.366	21.311	961.340	748.726
127.381	21.776	960.046	749.645
128.395	21.911	958.952	749.297
129.410	21.609	959.307	748.219
130.424	22.045	957.925	748.936
131.439	22.306	957.082	749.321
132.454	22.209	956.967	748.753
133.468	22.168	956.775	748.363
134.483	22.189	955.315	747.243
135.497	22.117	955.121	746.717
136.512	22.291	953.492	746.117
137.527	22.208	953.209	745.478
138.541	22.271	951.301	744.185
139.556	22.175	951.982	744.247
140.570	22.307	951.663	744.490
141.585	22.703	950.610	745.272
142.600	22.963	950.024	745.848
143.614	22.860	949.756	745.133
144.629	23.346	948.208	745.902
145.643	22.934	947.276	743.368
146.658	22.785	946.330	741.935
147.673	22.776	943.770	739.822
148.687	22.137	944.104	737.338
149.702	22.041	942.530	735.643
150.716	22.247	941.162	735.371
151.731	22.339	940.845	735.443
152.746	22.497	940.493	735.763
153.760	22.641	940.036	735.941
154.775	22.953	939.630	736.861
155.789	22.622	938.798	734.764
156.804	22.885	937.675	734.915
157.819	22.876	937.003	734.285
158.833	22.507	937.379	732.980
159.848	23.015	936.294	734.176
160.862	22.850	935.451	732.768
161.877	22.564	933.965	730.352
162.892	22.438	931.888	728.143
163.906	22.143	931.584	726.620
164.921	22.009	930.980	725.531
165.935	22.236	930.599	726.107
166.950	22.566	928.991	726.151
167.964	22.495	927.813	724.873
168.979	22.126	927.686	723.190
169.994	22.124	926.012	721.812
171.008	22.150	926.557	722.280
172.023	22.833	925.696	724.348
173.037	23.104	924.413	724.390
174.052	22.645	924.074	722.184
175.067	22.040	923.356	719.079
176.081	21.951	922.248	717.789
177.096	21.736	922.413	716.976
178.110	22.147	920.569	717.155
179.125	22.188	920.057	716.863
180.140	22.300	920.691	717.750
181.154	22.384	919.542	717.131
182.169	22.597	919.793	718.134
183.183	22.815	918.990	718.327
184.198	22.446	918.148	716.108
185.213	22.512	917.963	716.167
186.227	22.844	916.720	716.480
187.242	23.036	916.009	716.641
188.256	22.795	915.735	715.388
189.271	23.175	914.568	715.948
190.286	22.717	913.062	712.855
191.300	21.776	913.029	708.964
192.315	21.688	912.104	707.827
193.329	21.864	911.531	708.032
194.344	22.426	910.175	709.178
195.359	22.317	910.882	709.230
196.373	22.437	910.367	709.250
197.388	22.688	909.764	709.727
198.402	23.219	909.189	711.347
199.417	23.200	909.429	711.398
200.432	23.629	908.425	712.268
201.446	23.226	908.350	710.531
202.461	23.466	907.837	711.028
203.475	23.127	906.945	708.910
204.490	22.897	906.266	707.397
205.504	22.645	904.972	705.315
206.519	22.579	904.739	704.808
207.534	22.568	903.525	703.756
208.548	23.044	902.670	704.925
209.563	22.932	901.780	703.721
210.577	22.859	901.131	702.861
211.592	23.235	902.052	705.017
212.607	23.319	900.807	704.315
213.621	23.064	900.203	702.767
214.636	23.107	899.736	702.512
215.650	23.187	898.463	701.772
216.665	23.013	897.756	700.468
217.680	23.025	897.457	700.221
218.694	23.043	897.147	699.989
219.709	22.893	896.539	698.859
220.723	22.790	895.747	697.770
221.738	22.839	894.542	696.965
222.753	22.626	894.926	696.361
223.767	23.094	894.349	697.697
224.782	23.018	894.146	697.179
225.796	23.207	893.271	697.178
226.811	22.734	892.577	694.713
227.826	22.763	891.824	694.178
228.840	22.683	890.412	692.706
229.855	22.909	889.586	692.888
230.869	22.807	888.376	691.482
231.884	22.384	888.658	689.984
232.899	22.877	887.866	691.239
233.913	22.447	887.207	688.982
234.928	22.508	885.700	687.990
235.942	22.166	885.444	686.394
236.957	22.222	884.731	685.999
237.972	22.059	885.238	685.697
238.986	22.252	884.472	685.793
240.001	22.131	883.917	684.833
241.015	22.179	882.962	684.219
242.030	22.389	882.839	684.877
243.045	22.879	882.238	686.257
244.059	22.801	881.925	685.650
245.074	22.708	881.615	684.985
246.088	22.814	880.525	684.493
247.103	23.370	880.797	686.795
248.117	23.801	879.688	687.542
249.132	23.660	880.493	687.562
250.147	24.126	880.189	689.066
251.161	24.232	879.116	688.575
252.176	24.183	879.223	688.409
253.190	24.149	877.400	686.791
254.205	24.262	877.097	686.926
255.220	23.848	876.757	685.004
256.234	23.938	875.877	684.605
257.249	23.655	875.769	683.369
258.263	23.686	875.096	682.902
259.278	23.707	874.290	682.295
260.293	23.908	873.230	682.179
261.307	23.820	873.412	681.921
262.322	24.146	871.758	681.820
263.336	23.858	870.993	680.058
264.351	23.776	871.177	679.830
265.366	23.916	870.666	679.904
266.380	24.145	870.442	680.543
267.395	23.997	869.388	679.097
268.409	23.566	868.126	676.408
269.424	23.934	867.006	676.875
270.439	23.384	868.080	675.557
271.453	23.809	866.594	675.960
272.468	23.705	865.649	674.765
273.482	23.821	865.080	674.703
274.497	23.608	863.806	672.843
275.512	23.378	864.235	672.243
276.526	23.738	863.276	672.801
277.541	23.879	863.136	673.169
278.555	24.061	862.477	673.285
279.570	24.435	862.108	674.351
280.585	24.152	861.913	673.067
281.599	23.756	860.412	670.342
282.614	23.821	858.914	669.363
283.628	23.412	859.516	668.227
284.643	23.422	859.193	667.956
285.657	23.748	857.482	667.793
286.672	23.550	857.979	667.374
287.687	23.517	857.435	666.768
288.701	23.846	856.492	667.212
289.716	23.694	855.616	665.899
290.730	23.785	854.904	665.628
291.745	23.780	854.240	665.034
292.760	23.702	855.431	665.610
293.774	24.281	854.147	666.718
294.789	24.402	852.855	666.102
295.803	23.766	851.822	662.865
296.818	24.035	851.103	663.249
297.833	23.621	850.198	660.943
298.847	23.574	850.982	661.321
299.862	23.961	850.509	662.336
300.876	23.909	850.219	661.858
301.891	24.287	849.569	662.699
302.906	24.130	849.560	662.050
303.920	24.274	848.898	662.009
304.935	24.669	847.888	662.627
305.949	24.365	847.699	661.293
306.964	24.068	846.496	659.199
307.979	23.783	846.737	658.270
308.993	24.156	845.908	658.949
310.008	24.066	845.613	658.326
311.022	24.336	843.564	657.670
312.037	23.569	843.808	654.973
313.052	23.935	842.594	655.320
314.066	23.665	841.810	653.659
315.081	23.513	840.792	652.253
316.095	23.388	840.808	651.746
317.110	23.571	841.070	652.564
318.125	23.337	840.323	651.067
319.139	23.292	838.573	649.490
320.154	23.436	837.537	649.159
321.168	23.498	838.049	649.725
322.183	23.581	837.910	649.861
323.197	23.206	837.550	648.154
324.212	23.594	836.351	648.587
325.227	23.829	835.532	648.752
326.241	23.649	834.526	647.256
327.256	23.761	834.755	647.785
328.270	23.687	834.621	647.353
329.285	23.220	834.098	645.189
330.300	23.170	832.907	644.028
331.314	23.134	832.845	643.792
332.329	23.436	833.943	645.684
333.343	23.821	831.764	645.340
334.358	24.085	831.171	645.780
335.373	23.985	831.608	645.701
336.387	24.049	831.546	645.827
337.402	24.144	831.402	646.002
338.416	24.468	831.033	646.832
339.431	24.965	830.900	648.473
340.446	24.813	830.682	647.693
341.460	24.670	830.902	647.289
342.475	25.049	829.709	647.672
343.489	24.763	829.772	646.631
344.504	25.207	829.879	648.264
345.519	24.948	829.732	647.156
346.533	24.675	828.178	644.900
347.548	24.392	827.483	643.283
348.562	24.192	826.795	641.971
349.577	23.902	825.840	640.126
350.592	24.207	824.335	640.002
351.606	24.065	823.781	639.005
352.621	24.179	823.706	639.298
353.635	24.363	822.372	638.867
354.650	24.023	822.715	637.855
355.665	23.699	822.297	636.313
356.679	24.311	820.945	637.401
357.694	24.554	820.646	637.982
358.708	24.254	819.724	636.135
359.723	24.131	819.883	635.765
360.738	23.969	818.962	634.417
361.752	24.480	817.671	635.181
362.767	24.618	817.987	635.861
363.781	24.904	817.817	636.688
364.796	24.898	818.344	637.020
365.810	25.117	818.203	637.635
366.825	25.223	816.942	636.972
367.840	24.981	816.132	635.426
368.854	24.783	814.958	633.754
369.869	24.780	814.278	633.160
370.883	24.683	814.729	633.108
371.898	24.610	814.548	632.654
372.913	24.793	814.143	632.929
373.927	24.716	813.731	632.282
374.942	24.762	812.103	631.124
375.956	24.763	812.508	631.387
376.971	24.795	812.114	631.138
377.986	25.532	812.397	633.903
379.000	24.945	812.142	631.575
380.015	25.196	810.466	631.101
381.029	25.081	810.366	630.563
382.044	25.575	808.788	631.012
383.059	25.161	808.683	629.421
384.073	25.043	808.119	628.514
385.088	24.743	806.727	626.324
386.102	24.519	806.312	625.161
387.117	24.422	806.290	624.751
388.132	24.038	806.131	623.230
389.146	24.433	805.457	624.032
390.161	24.784	804.364	624.358
391.175	25.056	804.803	625.593
392.190	25.102	803.482	624.670
393.205	24.538	802.092	621.571
394.219	24.164	802.115	620.233
395.234	23.967	802.526	619.810
396.248	24.079	802.136	619.844
397.263	24.203	801.131	619.443
398.278	24.119	800.557	618.654
399.292	24.077	800.372	618.310
400.307	24.276	799.146	617.998
401.321	23.862	798.822	616.256
402.336	24.404	798.815	618.074
403.350	24.646	798.924	618.944
404.365	25.215	798.054	620.182
405.380	25.191	798.907	620.708
406.394	25.761	796.853	621.022
407.409	25.599	797.527	620.933
408.423	25.584	797.138	620.523
409.438	25.628	796.786	620.346
410.453	25.383	797.037	619.643
411.467	25.385	796.221	618.959
412.482	25.759	795.676	619.769
413.496	25.757	795.187	619.326
414.511	25.218	794.813	617.128
415.526	25.800	793.423	617.991
416.540	25.392	794.045	617.020
417.555	25.754	792.950	617.355
418.569	25.558	793.280	616.884
419.584	25.685	792.413	616.591
420.599	25.608	791.350	615.448
421.613	162.545	1369.129	1794.489
422.628	140.894	1453.320	1794.545
