DTS Sentinel unit serial number:	SN413079Multiplexer serial number:	ORYXHardware model number:	OX4-SRSoftware version number:	ORYX F/W v4.00 Oryx Data Collector v3.7.2.0data status	okinstallation	princeton_trtdifferential loss correction	single-endedforward channel	channel 1reverse channel	N/Adate	2019/09/12time	20:50:35forward acquisition time	60.00reverse acquisition time	0.00gamma	496.2192k internal	0.2325k external	0.2325temperature offset calibration	1.0148default loss term (dB/km)	0.3790temperature slope calibration	1.0000multiplexer offset coefficient	1.0000multiplexer slope coefficient	1.0000fibre end	0.00T internal ref (°C)	30.98T ext. ref 1 (°C)	3.61T ext. ref 2 (°C)	25.50length (m)	temperature (°C)	Stokes	anti-Stokes-747.200	-77.610	-0.114	-0.040
-746.185	-170.883	-0.177	-0.006
-745.171	238.378	0.104	0.175
-744.156	800.000	-0.064	-0.184
-743.142	512.093	0.115	0.271
-742.127	-141.016	-0.361	0.037
-741.112	573.631	0.084	0.206
-740.098	-123.927	-0.270	0.043
-739.083	800.000	-0.066	0.265
-738.069	665.797	0.106	0.275
-737.054	-80.953	0.127	0.042
-736.039	800.000	0.070	-0.196
-735.025	48.143	0.330	0.311
-734.010	-63.549	-0.232	-0.096
-732.996	249.440	-0.194	-0.332
-731.981	-200.000	0.092	-0.550
-730.966	-200.000	-0.020	0.125
-729.952	-80.308	-0.258	0.087
-728.937	-88.222	-0.121	-0.037
-727.923	-41.216	-0.173	0.090
-726.908	-200.000	0.004	0.166
-725.894	154.192	0.110	-0.152
-724.879	-120.191	-0.399	-0.069
-723.864	-164.109	0.238	0.011
-722.850	-63.755	0.278	0.115
-721.835	-200.000	0.026	-0.408
-720.821	-107.256	0.309	0.069
-719.806	-200.000	0.021	-0.154
-718.791	-200.000	-0.009	-0.116
-717.777	-44.039	-0.094	0.048
-716.762	77.718	-0.114	-0.122
-715.748	-114.298	0.087	-0.017
-714.733	-3.188	-0.194	-0.136
-713.718	800.000	-0.046	-0.188
-712.704	237.430	0.064	-0.106
-711.689	-200.000	-0.009	-0.200
-710.675	-14.479	0.260	0.169
-709.660	-17.804	-0.122	-0.077
-708.645	-200.000	0.011	0.110
-707.631	613.392	0.097	0.245
-706.616	-87.728	0.181	-0.055
-705.602	95.023	-0.102	0.117
-704.587	-154.623	-0.156	0.010
-703.572	-130.072	0.314	0.043
-702.558	-142.409	0.231	0.023
-701.543	6.913	0.125	0.094
-700.529	335.610	-0.078	-0.153
-699.514	283.979	-0.085	-0.155
-698.499	-175.486	-0.187	0.005
-697.485	-148.969	0.138	-0.011
-696.470	250.246	-0.073	0.125
-695.456	-74.181	-0.161	-0.059
-694.441	-127.844	-0.104	-0.015
-693.426	-87.014	0.236	0.073
-692.412	-114.914	-0.571	-0.109
-691.397	-65.065	0.267	0.109
-690.383	-200.000	-0.037	-0.491
-689.368	38.078	-0.147	-0.132
-688.354	-113.965	-0.179	-0.035
-687.339	-0.102	0.337	0.241
-686.324	74.786	-0.064	0.067
-685.310	-10.499	-0.103	0.069
-684.295	348.535	0.049	0.096
-683.281	-48.580	0.109	-0.053
-682.266	800.000	-0.115	0.419
-681.251	89.183	-0.303	0.339
-680.237	800.000	-0.050	0.153
-679.222	-200.000	0.022	-0.386
-678.208	152.484	-0.167	0.229
-677.193	282.759	0.238	0.430
-676.178	-71.132	0.200	0.076
-675.164	725.645	-0.098	-0.263
-674.149	-200.000	-0.010	-0.050
-673.135	89.694	0.053	0.060
-672.120	-200.000	-0.001	-0.184
-671.105	-157.581	0.438	0.026
-670.091	-112.168	-0.099	-0.020
-669.076	800.000	-0.059	0.202
-668.062	34.212	-0.156	-0.137
-667.047	-113.108	-0.083	-0.017
-666.032	-55.652	0.230	0.103
-665.018	-84.842	-0.413	-0.131
-664.003	185.360	-0.170	0.254
-662.989	-171.562	0.135	-0.004
-661.974	-200.000	0.005	-0.244
-660.959	-22.129	0.271	-0.166
-659.945	-200.000	-0.022	-0.105
-658.930	-69.672	-0.094	-0.036
-657.916	9.415	-0.222	-0.169
-656.901	800.000	0.064	0.187
-655.886	65.572	0.100	-0.101
-654.872	800.000	0.046	-0.134
-653.857	-200.000	0.052	0.274
-652.843	167.029	-0.168	0.239
-651.828	39.714	0.188	-0.169
-650.814	3.647	0.234	-0.172
-649.799	-200.000	0.012	-0.231
-648.784	-200.000	-0.020	0.498
-647.770	106.047	0.232	-0.276
-646.755	-83.330	0.032	-0.010
-645.741	-200.000	-0.056	-0.275
-644.726	263.979	0.112	-0.196
-643.711	100.869	-0.190	-0.222
-642.697	-200.000	-0.025	-0.124
-641.682	-114.841	-0.186	0.036
-640.668	-200.000	0.051	0.245
-639.653	456.010	0.031	0.068
-638.638	-136.095	0.069	0.008
-637.624	-88.133	0.178	-0.054
-636.609	-200.000	0.070	-0.559
-635.595	-70.224	-0.264	0.101
-634.580	800.000	0.074	-0.265
-633.565	50.088	0.134	0.127
-632.551	311.286	0.049	-0.092
-631.536	793.434	0.053	0.148
-630.522	24.467	0.145	0.120
-629.507	22.161	-0.096	-0.079
-628.492	800.000	-0.041	0.153
-627.478	180.376	0.078	-0.115
-626.463	382.336	-0.187	-0.387
-625.449	-200.000	-0.020	-0.208
-624.434	91.233	-0.134	-0.151
-623.419	27.802	0.075	0.063
-622.405	397.080	-0.037	-0.077
-621.390	800.000	0.113	0.368
-620.376	-91.629	-0.331	0.095
-619.361	-200.000	0.013	-0.099
-618.346	-35.936	0.077	0.042
-617.332	800.000	0.038	0.107
-616.317	-80.236	-0.247	-0.083
-615.303	-19.106	-0.178	-0.111
-614.288	-158.082	-0.031	-0.002
-613.273	-36.220	0.030	-0.016
-612.259	75.118	-0.216	-0.229
-611.244	-200.000	0.002	-0.066
-610.230	800.000	0.019	-0.062
-609.215	-110.956	-0.015	-0.003
-608.201	-112.065	0.262	0.053
-607.186	-200.000	0.008	0.081
-606.171	55.253	0.070	0.068
-605.157	800.000	0.045	-0.134
-604.142	-200.000	-0.041	-0.206
-603.128	33.857	-0.259	0.226
-602.113	-111.156	-0.133	-0.027
-601.098	-146.391	-0.073	-0.006
-600.084	-200.000	-0.077	-0.719
-599.069	79.004	0.097	0.104
-598.055	331.963	-0.273	0.529
-597.040	-24.603	-0.090	0.054
-596.025	6.658	0.273	-0.204
-595.011	220.702	0.078	-0.126
-593.996	-200.000	-0.034	0.161
-592.982	-130.910	-0.276	0.037
-591.967	163.593	-0.097	-0.138
-590.952	800.000	-0.054	0.191
-589.938	8.824	0.239	0.181
-588.923	-22.385	-0.138	0.084
-587.909	-43.191	-0.141	-0.072
-586.894	81.311	0.089	0.097
-585.879	-200.000	0.083	0.000
-584.865	-60.854	-0.168	-0.071
-583.850	55.075	0.162	0.157
-582.836	800.000	0.066	-0.195
-581.821	-200.000	-0.017	-0.123
-580.806	-85.006	-0.099	0.031
-579.792	-65.398	-0.132	0.053
-578.777	-77.842	0.351	0.122
-577.763	800.000	-0.023	0.085
-576.748	-68.289	-0.028	-0.011
-575.733	248.881	-0.222	0.377
-574.719	800.000	-0.020	0.070
-573.704	-76.648	0.300	0.106
-572.690	-95.818	-0.373	0.100
-571.675	-161.983	-0.152	0.008
-570.661	800.000	-0.078	-0.295
-569.646	-94.991	-0.244	-0.066
-568.631	-200.000	0.042	-0.211
-567.617	9.111	0.189	-0.143
-566.602	-145.827	0.179	0.016
-565.588	220.693	0.203	-0.326
-564.573	-200.000	-0.051	-0.232
-563.558	70.932	-0.021	0.022
-562.544	-200.000	0.016	-0.217
-561.529	-89.074	-0.072	-0.021
-560.515	248.153	-0.207	-0.352
-559.500	43.071	-0.152	-0.139
-558.485	-56.980	0.150	0.066
-557.471	244.298	-0.136	0.229
-556.456	-200.000	-0.017	-0.113
-555.442	-200.000	0.020	-0.274
-554.427	800.000	-0.170	-0.537
-553.412	184.653	0.138	0.206
-552.398	-104.348	0.171	-0.040
-551.383	56.577	-0.317	0.309
-550.369	93.923	-0.127	0.144
-549.354	32.037	-0.153	-0.132
-548.339	-200.000	0.020	0.300
-547.325	8.771	-0.107	-0.081
-546.310	-39.859	0.415	-0.217
-545.296	73.124	-0.256	-0.268
-544.281	800.000	-0.034	0.119
-543.266	-133.218	-0.263	-0.033
-542.252	157.259	-0.247	0.342
-541.237	461.903	-0.131	-0.292
-540.223	-200.000	-0.029	-0.353
-539.208	-129.117	-0.093	-0.013
-538.193	-200.000	0.010	-0.046
-537.179	-15.944	0.150	-0.096
-536.164	40.050	-0.133	0.120
-535.150	800.000	-0.036	0.125
-534.135	-134.301	-0.408	-0.050
-533.121	-87.459	0.185	0.056
-532.106	-52.560	-0.247	-0.114
-531.091	-200.000	-0.058	-0.331
-530.077	314.335	-0.075	-0.141
-529.062	-104.724	-0.142	0.033
-528.048	505.090	-0.035	-0.081
-527.033	30.140	-0.093	0.079
-526.018	-123.112	-0.426	-0.068
-525.004	336.503	-0.126	-0.244
-523.989	107.733	-0.238	-0.283
-522.975	-31.906	0.196	0.110
-521.960	-38.575	-0.123	0.065
-520.945	-200.000	0.009	-0.148
-519.931	-200.000	0.006	0.083
-518.916	139.854	-0.166	-0.219
-517.902	90.700	0.175	-0.196
-516.887	800.000	-0.074	-0.242
-515.872	-46.735	-0.238	-0.117
-514.858	359.896	0.102	-0.203
-513.843	-200.000	-0.051	-0.277
-512.829	58.642	-0.162	0.160
-511.814	359.734	0.052	-0.104
-510.799	281.469	-0.095	-0.170
-509.785	800.000	-0.063	0.261
-508.770	-40.692	0.296	-0.153
-507.756	-200.000	0.019	0.132
-506.741	138.248	-0.099	-0.129
-505.726	13.372	0.201	-0.156
-504.712	-59.438	0.251	0.108
-503.697	800.000	0.091	-0.350
-502.683	-118.662	0.227	-0.040
-501.668	800.000	-0.112	0.486
-500.653	117.873	-0.068	0.084
-499.639	-109.622	-0.289	0.061
-498.624	-108.032	-0.064	0.014
-497.610	-15.880	-0.165	-0.105
-496.595	23.326	-0.037	0.030
-495.581	-145.857	0.222	0.020
-494.566	-181.372	-0.482	0.009
-493.551	-24.578	-0.193	-0.115
-492.537	-200.000	-0.003	0.102
-491.522	20.500	-0.149	-0.120
-490.508	-185.092	0.211	-0.003
-489.493	-136.438	0.416	-0.048
-488.478	-163.295	-0.217	0.010
-487.464	16.549	0.180	-0.142
-486.449	-103.040	-0.330	0.078
-485.435	-168.255	0.310	0.012
-484.420	324.686	0.027	0.051
-483.405	-200.000	0.022	-0.177
-482.391	-79.054	0.205	0.070
-481.376	-18.487	-0.165	-0.103
-480.362	211.220	-0.076	-0.119
-479.347	5.855	0.116	0.086
-478.332	60.698	0.271	-0.268
-477.318	-72.955	0.269	0.099
-476.303	800.000	-0.096	-0.341
-475.289	358.335	0.150	-0.300
-474.274	-122.833	0.341	-0.055
-473.259	7.804	0.256	0.191
-472.245	-29.160	-0.085	0.049
-471.230	-200.000	0.007	0.055
-470.216	-46.658	0.386	-0.189
-469.201	75.071	-0.241	0.254
-468.186	-14.973	0.285	0.182
-467.172	658.896	-0.107	0.274
-466.157	287.536	0.175	-0.315
-465.143	409.769	-0.022	0.046
-464.128	239.821	-0.204	0.339
-463.113	-192.379	-0.244	-0.002
-462.099	-122.333	-0.013	-0.002
-461.084	218.407	0.140	0.223
-460.070	166.555	-0.098	0.139
-459.055	325.414	0.166	-0.316
-458.040	38.338	-0.064	0.057
-457.026	-30.288	0.191	0.108
-456.011	-9.312	-0.115	-0.077
-454.997	-52.955	-0.185	0.085
-453.982	-200.000	0.035	-0.290
-452.968	-134.621	0.255	0.031
-451.953	-200.000	0.079	-0.504
-450.938	101.913	-0.092	-0.107
-449.924	203.662	0.067	0.103
-448.909	-51.716	0.226	0.105
-447.895	-56.096	-0.223	-0.099
-446.880	-87.027	-0.151	-0.046
-445.865	-171.173	-0.049	-0.002
-444.851	-200.000	-0.042	0.304
-443.836	-200.000	-0.010	0.115
-442.822	-200.000	-0.005	0.182
-441.807	800.000	0.097	0.269
-440.792	-132.654	0.327	0.042
-439.778	-87.505	-0.033	0.010
-438.763	206.339	0.180	0.279
-437.749	800.000	0.016	0.051
-436.734	-105.787	0.196	-0.044
-435.719	61.752	-0.178	0.177
-434.705	10.418	0.209	0.159
-433.690	-26.206	0.137	-0.080
-432.676	-82.360	-0.363	0.118
-431.661	-40.767	0.262	-0.135
-430.646	24.766	-0.186	-0.154
-429.632	800.000	-0.109	0.337
-428.617	-200.000	-0.011	0.081
-427.603	-48.228	0.348	-0.167
-426.588	36.456	-0.168	0.148
-425.573	-122.459	-0.360	0.058
-424.559	64.266	0.193	0.193
-423.544	800.000	0.035	0.125
-422.530	161.665	0.155	0.216
-421.515	252.277	0.044	-0.075
-420.500	-93.990	0.325	-0.089
-419.486	800.000	0.115	0.385
-418.471	2.759	-0.243	0.176
-417.457	112.758	-0.193	-0.233
-416.442	136.042	0.148	0.192
-415.428	676.255	-0.127	-0.328
-414.413	800.000	0.030	0.124
-413.398	593.682	0.210	0.517
-412.384	-65.485	-0.215	0.086
-411.369	-5.519	0.160	-0.109
-410.355	4.878	0.161	-0.118
-409.340	-106.571	0.308	0.068
-408.325	188.234	0.100	0.149
-407.311	-80.748	-0.296	0.098
-406.296	-27.872	-0.206	-0.119
-405.282	-42.727	-0.275	0.140
-404.267	325.138	-0.064	0.121
-403.252	556.766	-0.072	-0.173
-402.238	-200.000	0.013	0.067
-401.223	350.634	-0.178	0.351
-400.209	1.304	-0.118	-0.085
-399.194	763.047	0.050	-0.135
-398.179	-60.506	0.348	0.147
-397.165	-200.000	-0.003	0.033
-396.150	22.349	-0.274	-0.223
-395.136	800.000	-0.044	-0.121
-394.121	-96.017	-0.047	-0.012
-393.106	600.469	0.091	0.225
-392.092	-167.352	0.273	0.011
-391.077	79.480	-0.154	0.165
-390.063	202.085	0.101	-0.154
-389.048	13.684	-0.072	-0.056
-388.033	363.503	0.153	-0.307
-387.019	-86.698	-0.193	0.059
-386.004	-74.148	0.219	-0.079
-384.990	135.764	0.173	0.224
-383.975	-79.940	0.505	0.169
-382.960	0.308	-0.100	-0.071
-381.946	-65.119	-0.068	0.027
-380.931	-162.595	0.149	-0.007
-379.917	-80.721	-0.398	-0.132
-378.902	-62.122	0.096	-0.040
-377.888	56.711	-0.096	0.093
-376.873	114.065	0.117	0.141
-375.858	-46.351	-0.213	-0.104
-374.844	-68.615	0.407	0.157
-373.829	98.276	-0.299	0.343
-372.815	-176.692	-0.408	0.010
-371.800	686.256	0.038	0.100
-370.785	430.276	0.101	-0.218
-369.771	-161.147	0.184	-0.010
-368.756	-200.000	0.008	-0.101
-367.742	-105.523	-0.314	-0.071
-366.727	105.019	0.109	-0.128
-365.712	168.855	0.275	-0.390
-364.698	58.448	-0.198	0.193
-363.683	348.816	-0.243	-0.477
-362.669	-200.000	0.066	-0.309
-361.654	-200.000	0.019	0.150
-360.639	-155.946	0.082	0.005
-359.625	-190.163	0.479	0.005
-358.610	-24.270	-0.329	-0.195
-357.596	20.160	0.218	-0.175
-356.581	800.000	-0.032	-0.101
-355.566	-39.228	-0.137	-0.072
-354.552	-21.441	-0.101	-0.061
-353.537	800.000	-0.048	-0.155
-352.523	28.187	-0.177	0.148
-351.508	-97.567	-0.190	-0.049
-350.493	800.000	0.072	-0.307
-349.479	347.396	0.058	-0.114
-348.464	800.000	0.044	0.180
-347.450	145.788	-0.203	0.270
-346.435	-139.498	0.289	0.031
-345.420	-165.435	-0.254	-0.011
-344.406	-180.665	0.155	-0.003
-343.391	-200.000	-0.015	-0.165
-342.377	615.174	-0.112	0.278
-341.362	232.513	0.138	0.225
-340.348	-200.000	0.025	0.121
-339.333	-74.043	-0.307	0.111
-338.318	-77.767	0.296	-0.102
-337.304	-145.304	0.322	-0.029
-336.289	-51.239	0.086	-0.040
-335.275	151.693	0.076	-0.103
-334.260	800.000	0.044	0.175
-333.245	-200.000	0.024	-0.157
-332.231	229.631	0.062	0.100
-331.216	289.907	-0.072	-0.129
-330.202	-110.706	0.211	0.043
-329.187	-34.073	-0.265	0.145
-328.172	-200.000	-0.044	0.503
-327.158	236.434	-0.041	0.068
-326.143	-123.364	0.210	0.033
-325.129	15.107	0.175	0.136
-324.114	-152.887	-0.420	0.030
-323.099	174.395	-0.022	0.032
-322.085	65.209	-0.163	-0.164
-321.070	268.830	0.229	0.399
-320.056	196.740	0.072	0.110
-319.041	-177.343	0.312	-0.008
-318.026	140.790	-0.074	-0.097
-317.012	-86.989	0.323	0.098
-315.997	800.000	-0.075	-0.311
-314.983	-155.378	0.541	0.035
-313.968	-30.840	-0.038	-0.021
-312.953	430.398	0.049	-0.106
-311.939	-24.872	0.171	0.101
-310.924	187.686	0.061	-0.091
-309.910	-85.636	0.192	-0.059
-308.895	-2.542	-0.201	0.139
-307.880	-23.164	-0.097	0.058
-306.866	-156.521	-0.039	-0.002
-305.851	-132.808	-0.224	0.028
-304.837	-97.662	-0.108	-0.028
-303.822	51.937	0.104	0.098
-302.807	-176.425	-0.170	-0.004
-301.793	-15.659	0.197	-0.125
-300.778	-37.019	-0.212	-0.113
-299.764	800.000	-0.047	0.137
-298.749	-200.000	0.013	-0.109
-297.735	-145.799	0.180	-0.016
-296.720	145.102	0.113	-0.150
-295.705	-200.000	0.045	-0.245
-294.691	49.825	0.122	0.114
-293.676	605.285	0.110	0.271
-292.662	132.117	-0.088	-0.113
-291.647	-200.000	-0.005	0.181
-290.632	-185.424	0.280	0.004
-289.618	-102.281	0.108	-0.026
-288.603	-1.914	0.188	-0.131
-287.589	-200.000	0.000	-0.092
-286.574	20.586	0.097	0.078
-285.559	-200.000	-0.034	0.193
-284.545	-65.863	-0.198	0.079
-283.530	-200.000	0.020	0.111
-282.516	83.803	0.168	-0.182
-281.501	67.373	0.007	-0.007
-280.486	-133.492	0.080	-0.010
-279.472	-71.758	-0.197	-0.073
-278.457	193.342	0.090	-0.135
-277.443	-200.000	0.089	0.525
-276.428	57.424	0.219	0.212
-275.413	264.767	0.046	-0.080
-274.399	-114.269	0.137	0.026
-273.384	-149.950	-0.071	-0.006
-272.370	-93.040	0.108	0.030
-271.355	582.458	0.291	-0.707
-270.340	43.759	0.113	-0.102
-269.326	-190.578	0.192	0.002
-268.311	-49.236	0.253	-0.120
-267.297	592.521	0.022	-0.054
-266.282	-40.536	-0.038	0.020
-265.267	582.061	0.074	0.181
-264.253	292.593	-0.028	-0.050
-263.238	168.656	-0.069	0.098
-262.224	88.784	-0.200	0.220
-261.209	-200.000	-0.003	0.153
-260.195	-200.000	-0.002	-0.029
-259.180	-64.626	-0.532	-0.214
-258.165	145.249	-0.262	0.347
-257.151	-200.000	-0.006	-0.299
-256.136	89.689	0.152	0.168
-255.122	-40.305	-0.368	0.190
-254.107	15.657	0.148	-0.115
-253.092	-17.270	-0.124	-0.077
-252.078	-200.000	0.013	-0.195
-251.063	-200.000	-0.024	0.167
-250.049	-200.000	0.072	0.341
-249.034	701.689	-0.054	0.141
-248.019	136.321	0.087	0.112
-247.005	-200.000	-0.014	-0.069
-245.990	358.887	-0.149	0.294
-244.976	-200.000	0.006	0.189
-243.961	-200.000	-0.085	-0.425
-242.946	271.620	0.168	0.293
-241.932	-109.777	-0.146	-0.030
-240.917	150.387	0.218	-0.293
-239.903	-200.000	-0.007	0.079
-238.888	-31.195	0.116	-0.064
-237.873	-109.216	-0.459	-0.096
-236.859	-167.534	-0.279	-0.011
-235.844	-57.154	-0.246	0.107
-234.830	800.000	-0.021	-0.068
-233.815	-177.631	-0.109	0.003
-232.800	360.805	0.093	0.184
-231.786	136.071	0.168	-0.217
-230.771	172.780	0.072	-0.103
-229.757	-200.000	-0.039	-0.215
-228.742	-154.427	-0.086	-0.006
-227.727	26.508	-0.070	0.058
-226.713	800.000	-0.111	0.460
-225.698	439.632	0.037	0.079
-224.684	-47.924	-0.148	0.071
-223.669	-200.000	0.009	0.059
-222.655	-86.809	0.268	-0.081
-221.640	-9.877	0.317	-0.209
-220.625	447.744	0.138	-0.300
-219.611	-108.435	0.217	-0.046
-218.596	-200.000	0.050	-0.262
-217.582	-105.760	-0.362	0.081
-216.567	20.501	0.236	-0.189
-215.552	614.243	0.095	0.234
-214.538	-94.728	0.011	0.003
-213.523	351.084	-0.156	0.305
-212.509	37.122	0.006	-0.006
-211.494	800.000	-0.049	0.133
-210.479	800.000	0.111	0.327
-209.465	-11.597	0.124	-0.081
-208.450	-59.715	-0.040	0.017
-207.436	-94.358	0.292	-0.079
-206.421	82.960	-0.231	0.249
-205.406	247.816	-0.091	-0.152
-204.392	280.692	0.105	0.186
-203.377	203.227	0.128	0.196
-202.363	-65.738	-0.094	-0.037
-201.348	-121.149	0.331	0.055
-200.333	-200.000	-0.064	0.277
-199.319	-64.298	-0.253	-0.102
-198.304	-37.812	0.125	0.065
-197.290	-65.551	-0.084	0.033
-196.275	-50.605	-0.329	-0.153
-195.260	566.496	0.113	-0.270
-194.246	-200.000	-0.325	-0.000
-193.231	90.872	-0.204	0.226
-192.217	21.883	0.209	0.168
-191.202	0.303	0.110	-0.078
-190.187	56.308	0.044	0.042
-189.173	453.804	0.134	0.293
-188.158	-14.974	0.202	0.128
-187.144	-133.897	-0.095	0.012
-186.129	-200.000	-0.019	0.162
-185.114	239.684	0.164	-0.270
-184.100	-200.000	-0.019	-0.311
-183.085	-133.263	-0.426	0.053
-182.071	-200.000	0.069	0.400
-181.056	-200.000	-0.003	0.074
-180.042	273.892	-0.081	-0.141
-179.027	92.571	0.121	-0.134
-178.012	107.034	-0.092	-0.108
-176.998	-167.452	0.175	0.007
-175.983	-200.000	-0.012	0.099
-174.969	277.079	-0.170	0.298
-173.954	47.452	-0.186	0.171
-172.939	-48.628	0.321	0.152
-171.925	-47.956	-0.082	-0.039
-170.910	21.870	-0.232	0.186
-169.896	800.000	0.051	0.172
-168.881	-200.000	-0.023	-0.202
-167.866	-20.886	-0.138	0.084
-166.852	-77.797	-0.178	-0.061
-165.837	-24.670	0.293	0.172
-164.823	-105.507	-0.229	-0.051
-163.808	-99.593	0.247	-0.061
-162.793	-71.499	-0.311	-0.115
-161.779	-128.155	0.310	-0.044
-160.764	-200.000	0.005	0.402
-159.750	420.010	-0.085	-0.180
-158.735	63.905	-0.075	0.075
-157.720	800.000	-0.050	0.193
-156.706	-135.038	0.108	0.013
-155.691	-30.767	0.242	-0.135
-154.677	-46.739	-0.251	-0.121
-153.662	-200.000	0.434	0.000
-152.647	800.000	0.094	0.308
-151.633	154.770	0.205	0.277
-150.618	461.348	0.081	-0.178
-149.604	-128.666	-0.352	0.049
-148.589	-51.977	0.329	0.151
-147.574	457.255	-0.176	-0.384
-146.560	589.337	-0.083	-0.203
-145.545	-88.428	-0.101	-0.030
-144.531	-13.308	-0.176	-0.113
-143.516	-200.000	0.075	-0.327
-142.502	129.955	0.149	0.187
-141.487	-200.000	0.013	0.347
-140.472	213.760	-0.071	0.111
-139.458	-200.000	0.021	0.215
-138.443	268.807	0.111	-0.192
-137.429	-78.335	0.171	0.058
-136.414	-200.000	-0.000	0.008
-135.399	-106.747	-0.205	0.045
-134.385	800.000	-0.164	-0.468
-133.370	-80.619	0.075	-0.025
-132.356	800.000	-0.113	0.312
-131.341	775.230	-0.124	0.333
-130.326	-142.559	-0.160	-0.016
-129.312	-82.093	0.063	-0.020
-128.297	114.451	-0.176	-0.212
-127.283	-200.000	0.031	-0.148
-126.268	-77.009	0.496	0.171
-125.253	116.315	0.049	0.059
-124.239	325.634	0.070	-0.133
-123.224	-28.796	-0.215	0.122
-122.210	-90.040	0.272	-0.078
-121.195	-1.982	-0.046	-0.032
-120.180	-75.112	-0.332	0.117
-119.166	-200.000	0.040	-0.333
-118.151	-156.760	-0.243	-0.015
-117.137	-200.000	-0.035	0.317
-116.122	-200.000	-0.024	-0.133
-115.107	-166.589	-0.249	0.010
-114.093	-200.000	-0.003	0.227
-113.078	-102.900	-0.192	0.045
-112.064	307.234	0.063	0.115
-111.049	97.870	-0.157	-0.178
-110.034	-72.166	0.310	0.113
-109.020	-48.085	-0.317	-0.151
-108.005	-64.432	0.676	-0.270
-106.991	-21.582	-0.300	0.180
-105.976	112.176	-0.048	0.057
-104.962	-53.051	0.232	0.105
-103.947	-200.000	0.005	0.052
-102.932	-3.201	-0.155	-0.106
-101.918	267.547	-0.110	0.190
-100.903	519.379	-0.040	-0.093
-99.889	-67.939	0.145	0.056
-98.874	-3.807	-0.179	0.122
-97.859	98.388	-0.253	0.287
-96.845	193.796	0.097	0.145
-95.830	-76.244	-0.151	-0.052
-94.816	159.312	0.217	0.297
-93.801	-200.000	0.056	0.427
-92.786	101.221	-0.141	-0.161
-91.772	-117.641	0.340	-0.060
-90.757	-139.275	-0.117	0.012
-89.743	541.094	0.176	-0.413
-88.728	190.350	0.150	0.222
-87.713	-85.855	0.091	-0.028
-86.699	-152.550	-0.226	-0.016
-85.684	-23.287	0.353	0.209
-84.670	-200.000	-0.018	-0.103
-83.655	-20.009	0.159	0.097
-82.640	319.635	0.116	-0.217
-81.626	7.380	0.131	-0.096
-80.611	-29.409	-0.170	0.096
-79.597	158.434	-0.131	-0.179
-78.582	800.000	-0.068	-0.200
-77.567	800.000	0.042	0.146
-76.553	-96.304	0.247	0.064
-75.538	2.749	0.223	0.159
-74.524	-72.943	-0.255	0.092
-73.509	-103.737	0.168	-0.039
-72.494	91.605	0.100	0.111
-71.480	-147.757	0.286	-0.024
-70.465	140.391	-0.111	-0.144
-69.451	-200.000	0.006	-0.079
-68.436	268.365	0.021	-0.037
-67.422	261.347	0.168	0.285
-66.407	-200.000	0.015	0.083
-65.392	-50.671	0.208	-0.096
-64.378	157.977	0.154	0.210
-63.363	299.379	-0.156	-0.283
-62.349	-94.039	0.095	0.026
-61.334	91.827	-0.674	-0.745
-60.319	-86.041	0.667	0.203
-59.305	-200.000	-0.122	-0.940
-58.290	215.948	0.667	1.041
-57.276	511.961	0.843	1.929
-56.261	-200.000	100.814	599.329
-55.246	583.196	1411.032	3402.477
-54.232	192.714	2589.961	3842.365
-53.217	117.936	2131.171	2579.029
-52.203	42.840	1586.213	1419.794
-51.188	34.501	1323.058	1134.849
-50.173	31.295	1281.187	1080.384
-49.159	54.966	1332.207	1263.537
-48.144	56.623	1348.985	1289.159
-47.130	34.645	1305.304	1120.292
-46.115	31.099	1287.914	1084.746
-45.100	30.950	1282.789	1079.521
-44.086	30.915	1280.294	1077.179
-43.071	30.869	1278.333	1075.222
-42.057	30.924	1275.994	1073.529
-41.042	30.868	1274.453	1071.867
-40.027	30.948	1273.051	1071.104
-39.013	30.912	1271.140	1069.245
-37.998	31.005	1269.038	1067.967
-36.984	31.035	1267.713	1066.984
-35.969	31.045	1265.823	1065.406
-34.954	31.055	1264.275	1064.118
-33.940	31.046	1263.176	1063.101
-32.925	31.030	1261.725	1061.744
-31.911	31.045	1260.410	1060.684
-30.896	30.995	1258.900	1059.088
-29.881	31.106	1257.621	1058.596
-28.867	31.119	1255.823	1057.114
-27.852	31.129	1254.400	1055.934
-26.838	31.106	1253.097	1054.665
-25.823	31.002	1252.086	1053.183
-24.809	31.046	1250.804	1052.311
-23.794	30.947	1249.514	1050.629
-22.779	31.046	1248.101	1049.956
-21.765	31.140	1246.453	1049.056
-20.750	31.134	1245.170	1047.903
-19.736	30.875	1244.696	1046.005
-18.721	30.912	1243.228	1044.940
-17.706	30.888	1242.196	1043.896
-16.692	31.014	1240.152	1042.838
-15.677	30.879	1239.755	1041.709
-14.663	30.988	1238.236	1041.000
-13.648	30.959	1237.354	1040.057
-12.633	30.957	1236.544	1039.322
-11.619	30.911	1235.557	1038.194
-10.604	30.914	1235.216	1037.884
-9.590	30.889	1234.134	1036.798
-8.575	30.926	1233.195	1036.170
-7.560	30.861	1232.220	1034.951
-6.546	30.880	1230.909	1033.912
-5.531	30.906	1230.567	1033.727
-4.517	30.999	1229.564	1033.360
-3.502	31.025	1228.484	1032.554
-2.487	30.829	1227.827	1030.878
-1.473	30.812	1223.344	1026.982
-0.458	29.241	1209.162	1006.463
0.556	27.279	1191.300	968.129
1.571	23.379	1196.294	951.212
2.586	22.357	1210.571	956.927
3.600	21.890	1199.281	945.403
4.615	16.623	1129.108	863.209
5.629	7.934	1055.649	765.370
6.644	3.993	1036.092	732.505
7.659	3.552	1033.932	728.828
8.673	3.455	1032.382	727.213
9.688	3.432	1031.280	726.265
10.702	3.937	1029.817	727.546
11.717	9.359	1036.999	758.174
12.731	18.512	1049.504	810.724
13.746	23.353	1055.187	838.001
14.761	24.165	1056.105	842.496
15.775	23.548	1054.915	838.560
16.790	22.953	1053.467	834.523
17.804	22.685	1051.994	832.021
18.819	22.464	1051.857	830.793
19.834	22.603	1051.216	830.871
20.848	22.750	1050.611	831.009
21.863	22.476	1050.473	829.540
22.877	22.521	1048.858	828.401
23.892	22.286	1048.582	827.003
24.907	22.206	1047.778	825.923
25.921	22.122	1046.531	824.474
26.936	22.174	1045.089	823.506
27.950	22.147	1043.942	822.405
28.965	22.205	1042.998	821.858
29.980	22.445	1041.073	821.390
30.994	22.404	1040.015	820.292
32.009	22.572	1039.000	820.197
33.023	22.357	1038.447	818.688
34.038	22.317	1037.731	817.867
35.053	22.267	1036.568	816.646
36.067	22.128	1035.489	815.080
37.082	22.208	1035.277	815.208
38.096	22.369	1034.238	815.066
39.111	22.429	1033.574	814.749
40.126	22.356	1032.161	813.224
41.140	21.822	1030.836	809.642
42.155	21.819	1028.894	808.032
43.169	21.621	1028.352	806.622
44.184	21.631	1027.152	805.657
45.199	21.523	1026.339	804.454
46.213	21.735	1026.245	805.284
47.228	22.225	1025.391	806.791
48.242	22.328	1025.259	807.087
49.257	22.283	1023.912	805.750
50.271	22.533	1022.973	806.081
51.286	22.511	1022.541	805.572
52.301	22.528	1021.598	804.832
53.315	22.362	1020.144	802.858
54.330	22.062	1019.783	801.138
55.344	22.043	1018.757	800.174
56.359	22.024	1017.867	799.315
57.374	22.019	1016.274	797.972
58.388	21.841	1015.673	796.623
59.403	21.656	1015.182	795.327
60.417	21.668	1014.407	794.704
61.432	21.618	1013.864	793.978
62.447	21.517	1013.057	792.818
63.461	21.518	1012.138	792.036
64.476	21.498	1011.083	791.048
65.490	21.332	1010.566	789.827
66.505	21.532	1009.991	790.210
67.520	21.658	1009.003	789.936
68.534	21.465	1008.295	788.442
69.549	21.431	1006.977	787.187
70.563	21.160	1006.305	785.375
71.578	20.865	1005.433	783.294
72.593	20.803	1004.251	782.029
73.607	20.846	1004.424	782.286
74.622	21.030	1003.815	782.567
75.636	21.120	1002.983	782.255
76.651	21.179	1002.378	781.975
77.666	21.266	1002.361	782.283
78.680	21.159	1001.500	781.063
79.695	21.180	1000.440	780.261
80.709	21.350	1000.723	781.176
81.724	21.564	999.808	781.346
82.739	21.667	999.405	781.423
83.753	22.200	999.035	783.437
84.768	22.695	998.518	785.167
85.782	22.800	998.179	785.301
86.797	22.866	996.792	784.432
87.812	22.615	995.986	782.614
88.826	22.539	995.154	781.556
89.841	22.676	994.123	781.281
90.855	22.704	993.305	780.696
91.870	22.772	992.508	780.299
92.884	22.784	991.535	779.518
93.899	22.602	990.671	777.968
94.914	22.727	989.823	777.786
95.928	22.600	989.060	776.556
96.943	22.435	987.700	774.696
97.957	22.307	986.887	773.427
98.972	22.488	985.938	773.409
99.987	22.486	985.291	772.824
101.001	22.325	984.566	771.479
102.016	22.407	983.306	770.783
103.030	22.588	982.656	770.997
104.045	22.560	981.953	770.255
105.060	22.396	981.260	768.929
106.074	22.164	979.641	766.578
107.089	21.929	979.134	765.088
108.103	21.727	977.622	762.961
109.118	21.481	976.823	761.201
110.133	21.327	975.333	759.302
111.147	21.337	974.320	758.490
112.162	21.356	973.947	758.215
113.176	21.701	973.082	758.968
114.191	21.681	972.669	758.495
115.206	21.541	972.046	757.334
116.220	21.495	971.202	756.413
117.235	21.500	970.080	755.493
118.249	21.457	968.956	754.366
119.264	21.318	968.294	753.183
120.279	21.156	967.572	751.855
121.293	21.151	966.783	751.156
122.308	21.028	965.449	749.523
123.322	21.079	964.298	748.783
124.337	20.959	963.697	747.735
125.352	21.089	962.273	747.121
126.366	21.053	961.933	746.636
127.381	21.178	961.085	746.446
128.395	21.258	960.606	746.352
129.410	21.291	959.451	745.529
130.424	21.622	958.862	746.416
131.439	21.692	958.510	746.375
132.454	21.717	957.962	745.989
133.468	21.781	956.669	745.188
134.483	21.720	955.840	744.215
135.497	21.713	955.273	743.679
136.512	21.774	954.156	743.004
137.527	21.741	953.284	742.120
138.541	21.806	952.789	741.942
139.556	21.762	952.401	741.389
140.570	22.093	951.901	742.332
141.585	22.473	950.863	743.060
142.600	22.585	950.039	742.825
143.614	22.691	949.305	742.629
144.629	22.751	949.032	742.601
145.643	22.495	947.642	740.373
146.658	22.150	946.603	738.050
147.673	22.117	945.312	736.839
148.687	21.889	944.470	735.162
149.702	21.662	943.616	733.481
150.716	21.846	942.174	733.066
151.731	21.959	941.818	733.196
152.746	22.075	941.049	733.015
153.760	22.043	940.668	732.521
154.775	21.974	940.935	732.377
155.789	22.250	939.799	732.576
156.804	22.204	938.878	731.602
157.819	22.359	937.974	731.478
158.833	22.492	937.702	731.753
159.848	22.646	937.202	731.936
160.862	22.369	936.003	729.789
161.877	21.952	934.203	726.595
162.892	21.740	933.203	724.873
163.906	21.628	932.092	723.485
164.921	21.686	931.168	722.942
165.935	21.731	930.804	722.784
166.950	21.901	930.319	723.043
167.964	21.715	929.617	721.668
168.979	21.750	927.724	720.276
169.994	21.861	926.902	720.034
171.008	22.054	926.426	720.389
172.023	22.297	926.548	721.419
173.037	22.505	925.584	721.454
174.052	22.258	924.727	719.714
175.067	21.814	923.400	716.803
176.081	21.460	922.665	714.720
177.096	21.446	921.892	714.000
178.110	21.601	921.307	714.119
179.125	21.573	921.056	713.747
180.140	21.724	920.562	713.914
181.154	22.053	920.721	715.315
182.169	22.281	920.487	715.999
183.183	22.351	919.346	715.331
184.198	22.213	918.607	714.133
185.213	22.181	918.341	713.734
186.227	22.356	917.477	713.710
187.242	22.571	916.885	714.056
188.256	22.624	916.545	713.941
189.271	22.559	916.050	713.233
190.286	22.402	914.550	711.368
191.300	21.594	913.405	707.149
192.315	21.320	912.734	705.463
193.329	21.601	912.101	706.046
194.344	21.580	912.349	706.088
195.359	22.018	911.487	707.124
196.373	21.996	911.262	706.797
197.388	22.271	911.227	707.815
198.402	22.696	910.835	709.156
199.417	22.849	910.353	709.333
200.432	22.956	909.850	709.308
201.446	23.050	909.366	709.246
202.461	23.006	908.814	708.575
203.475	22.758	907.852	706.771
204.490	22.356	906.790	704.274
205.504	22.317	905.685	703.197
206.519	22.309	905.046	702.604
207.534	22.315	904.448	702.102
208.548	22.292	904.360	701.882
209.563	22.272	903.370	700.970
210.577	22.376	902.658	700.772
211.592	22.689	902.859	702.111
212.607	22.975	901.672	702.263
213.621	22.679	901.147	700.616
214.636	22.575	900.479	699.623
215.650	22.767	899.618	699.652
216.665	22.746	899.015	699.040
217.680	22.819	898.484	698.852
218.694	22.816	897.926	698.345
219.709	22.749	897.115	697.386
220.723	22.590	896.533	696.243
221.738	22.568	895.728	695.470
222.753	22.471	895.389	694.766
223.767	22.698	894.529	694.929
224.782	22.777	894.677	695.295
225.796	22.927	894.152	695.415
226.811	22.703	893.321	693.825
227.826	22.338	892.263	691.508
228.840	22.375	891.462	690.971
229.855	22.415	890.368	690.218
230.869	22.251	890.046	689.268
231.884	22.232	889.137	688.429
232.899	22.261	888.750	688.181
233.913	22.131	887.599	686.719
234.928	22.029	886.655	685.533
235.942	21.811	886.216	684.282
236.957	21.816	886.058	684.118
237.972	21.868	885.426	683.770
238.986	21.840	884.658	683.010
240.001	21.913	884.215	682.891
241.015	21.995	884.104	683.064
242.030	22.169	883.256	683.022
243.045	22.217	882.758	682.765
244.059	22.323	882.463	682.886
245.074	22.439	881.902	682.844
246.088	22.454	881.605	682.609
247.103	22.705	881.200	683.209
248.117	23.094	880.788	684.336
249.132	23.618	880.687	686.221
250.147	23.763	880.238	686.370
251.161	23.811	879.935	686.261
252.176	23.832	879.314	685.797
253.190	23.859	878.948	685.555
254.205	23.987	878.229	685.425
255.220	23.609	877.994	683.727
256.234	23.523	877.001	682.560
257.249	23.448	876.905	682.136
258.263	23.423	875.321	680.748
259.278	23.612	874.467	680.748
260.293	23.577	874.601	680.658
261.307	23.769	873.861	680.760
262.322	23.694	873.456	680.096
263.336	23.738	872.545	679.493
264.351	23.582	871.756	678.226
265.366	23.515	871.136	677.426
266.380	23.732	870.992	678.082
267.395	23.681	869.996	677.053
268.409	23.504	868.960	675.511
269.424	23.501	868.679	675.224
270.439	23.382	867.636	673.899
271.453	23.144	866.813	672.295
272.468	23.239	866.617	672.445
273.482	23.401	865.865	672.418
274.497	23.268	865.411	671.501
275.512	23.108	864.977	670.499
276.526	23.277	864.231	670.499
277.541	23.419	864.099	670.877
278.555	23.680	863.906	671.656
279.570	23.940	863.272	672.085
280.585	23.915	862.480	671.315
281.599	23.512	861.512	668.981
282.614	23.163	860.909	667.138
283.628	23.112	859.918	666.121
284.643	23.242	858.942	665.793
285.657	23.213	858.935	665.621
286.672	23.273	858.373	665.350
287.687	23.296	857.886	665.001
288.701	23.432	857.136	664.871
289.716	23.446	856.409	664.301
290.730	23.498	856.360	664.400
291.745	23.493	855.689	663.800
292.760	23.541	855.596	663.851
293.774	23.875	855.243	664.767
294.789	23.839	854.105	663.687
295.803	23.446	853.294	661.534
296.818	23.328	852.696	660.572
297.833	23.264	851.781	659.567
298.847	23.261	851.494	659.274
299.862	23.295	851.211	659.122
300.876	23.600	850.815	659.891
301.891	23.893	850.322	660.540
302.906	23.989	849.746	660.391
303.920	24.272	849.537	661.218
304.935	24.275	849.058	660.800
305.949	24.047	848.183	659.217
306.964	23.649	847.415	657.089
307.979	23.606	847.120	656.642
308.993	23.804	846.706	656.996
310.008	24.080	845.871	657.307
311.022	23.951	845.014	656.109
312.037	23.639	844.427	654.446
313.052	23.293	843.326	652.260
314.066	23.165	842.753	651.288
315.081	23.140	842.340	650.819
316.095	23.370	841.556	651.000
317.110	23.287	840.860	650.098
318.125	22.989	840.982	649.041
319.139	22.924	839.792	647.827
320.154	22.955	839.399	647.581
321.168	23.117	839.188	647.955
322.183	23.359	838.881	648.546
323.197	23.342	838.194	647.894
324.212	23.234	837.838	647.166
325.227	23.211	837.129	646.479
326.241	23.279	836.455	646.149
327.256	23.112	835.912	645.065
328.270	23.222	834.971	644.681
329.285	23.091	834.496	643.780
330.300	22.942	834.190	642.947
331.314	23.161	833.863	643.432
332.329	23.385	833.711	644.074
333.343	23.819	833.145	645.154
334.358	23.570	832.861	643.976
335.373	23.694	832.454	644.053
336.387	23.831	831.835	644.013
337.402	23.883	832.070	644.325
338.416	24.057	832.120	644.937
339.431	24.446	831.765	646.015
340.446	24.576	831.564	646.273
341.460	24.377	831.302	645.292
342.475	24.415	830.912	645.069
343.489	24.593	830.509	645.340
344.504	24.711	829.948	645.273
345.519	24.724	829.415	644.849
346.533	24.583	829.063	644.011
347.548	24.359	827.946	642.280
348.562	23.977	827.138	640.223
349.577	23.834	826.552	639.196
350.592	23.787	825.452	638.119
351.606	23.729	824.770	637.328
352.621	23.818	824.120	637.089
353.635	23.757	823.638	636.441
354.650	23.770	823.034	635.964
355.665	23.918	822.366	635.921
356.679	23.847	822.256	635.526
357.694	24.062	821.188	635.415
358.708	24.037	820.672	634.867
359.723	23.853	820.401	633.945
360.738	23.749	820.022	633.229
361.752	24.048	819.293	633.674
362.767	24.471	818.855	634.780
363.781	24.607	818.518	634.948
364.796	24.759	818.362	635.312
365.810	24.806	818.179	635.279
366.825	24.782	817.565	634.661
367.840	24.672	817.116	633.868
368.854	24.364	816.423	632.180
369.869	24.363	815.835	631.666
370.883	24.341	815.673	631.407
371.898	24.592	815.277	631.933
372.913	24.673	815.150	632.063
373.927	24.380	814.425	630.410
374.942	24.369	813.797	629.832
375.956	24.692	813.548	630.724
376.971	24.771	813.419	630.844
377.986	25.031	812.953	631.345
379.000	24.992	812.409	630.728
380.015	24.849	811.903	629.778
381.029	24.943	811.111	629.437
382.044	25.138	809.891	629.119
383.059	25.001	809.882	628.578
384.073	25.036	808.807	627.807
385.088	24.513	808.008	625.300
386.102	24.240	807.498	623.895
387.117	24.212	807.044	623.394
388.132	24.110	806.220	622.343
389.146	24.254	805.831	622.492
390.161	24.690	805.859	623.980
391.175	24.839	805.445	624.124
392.190	24.628	804.611	622.689
393.205	24.241	803.889	620.726
394.219	23.911	803.324	619.086
395.234	23.850	802.794	618.412
396.248	24.001	802.365	618.549
397.263	23.860	802.396	618.030
398.278	24.014	801.148	617.548
399.292	23.841	800.813	616.634
400.307	23.862	800.174	616.161
401.321	23.846	799.930	615.863
402.336	23.965	799.932	616.222
403.350	24.452	799.661	617.647
404.365	24.660	799.992	618.566
405.380	25.095	799.646	619.750
406.394	25.187	798.674	619.258
407.409	25.185	798.649	619.178
408.423	25.285	798.150	619.080
409.438	25.203	798.303	618.862
410.453	25.338	797.202	618.417
411.467	25.313	796.813	617.977
412.482	25.293	796.319	617.470
413.496	25.509	796.218	618.077
414.511	25.449	795.623	617.354
415.526	25.176	794.982	615.868
416.540	25.249	794.445	615.648
417.555	25.154	794.257	615.121
418.569	25.101	793.994	614.680
419.584	25.083	793.419	614.120
420.599	24.870	793.333	613.267
421.613	163.168	1370.147	1795.269
422.628	141.520	1454.157	1795.357
