DTS Sentinel unit serial number:	SN413079Multiplexer serial number:	ORYXHardware model number:	OX4-SRSoftware version number:	ORYX F/W v4.00 Oryx Data Collector v3.7.2.0data status	okinstallation	princeton_trtdifferential loss correction	single-endedforward channel	channel 1reverse channel	N/Adate	2019/09/14time	08:42:35forward acquisition time	60.00reverse acquisition time	0.00gamma	496.2192k internal	0.2326k external	0.2326temperature offset calibration	1.0072default loss term (dB/km)	0.3790temperature slope calibration	1.0000multiplexer offset coefficient	1.0000multiplexer slope coefficient	1.0000fibre end	0.00T internal ref (°C)	29.00T ext. ref 1 (°C)	3.66T ext. ref 2 (°C)	26.46length (m)	temperature (°C)	Stokes	anti-Stokes-747.200	25.829	0.134	-0.113
-746.185	72.736	-0.047	-0.049
-745.171	-29.399	-0.371	-0.214
-744.156	-114.408	-0.232	-0.045
-743.142	-48.813	0.030	0.014
-742.127	-110.312	-0.457	0.096
-741.112	-170.586	0.181	-0.006
-740.098	77.542	-0.126	0.135
-739.083	63.788	0.114	0.115
-738.069	-73.646	-0.189	0.070
-737.054	604.106	0.029	0.072
-736.039	800.000	-0.078	-0.329
-735.025	-20.113	0.038	-0.024
-734.010	-200.000	-0.079	-0.379
-732.996	92.647	-0.236	-0.268
-731.981	-26.497	0.214	-0.127
-730.966	-105.644	0.119	-0.027
-729.952	-55.968	-0.402	-0.181
-728.937	-124.563	-0.639	-0.100
-727.923	109.135	0.163	-0.197
-726.908	172.385	0.141	0.205
-725.894	-51.776	-0.134	0.063
-724.879	758.192	-0.052	0.143
-723.864	-4.255	-0.224	-0.156
-722.850	7.979	0.257	0.194
-721.835	-138.765	0.353	0.039
-720.821	16.208	-0.048	0.038
-719.806	277.674	-0.125	0.224
-718.791	-118.019	0.139	0.025
-717.777	-89.694	0.189	-0.056
-716.762	385.621	0.028	0.059
-715.748	-49.787	0.155	0.074
-714.733	-33.225	-0.077	-0.043
-713.718	-26.015	0.143	-0.085
-712.704	504.301	-0.053	-0.124
-711.689	73.258	-0.452	-0.477
-710.675	46.013	-0.095	-0.088
-709.660	-200.000	-0.013	0.358
-708.645	264.675	0.106	-0.186
-707.631	-200.000	0.101	-0.490
-706.616	-131.762	-0.173	0.023
-705.602	-27.673	-0.111	-0.065
-704.587	-94.269	-0.037	0.010
-703.572	156.986	-0.081	-0.113
-702.558	-185.810	-0.125	-0.002
-701.543	30.672	-0.241	-0.208
-700.529	-122.672	-0.104	-0.017
-699.514	48.584	-0.056	-0.053
-698.499	800.000	-0.087	-0.383
-697.485	94.878	-0.154	-0.176
-696.470	-200.000	0.019	-0.184
-695.456	-131.434	-0.193	-0.026
-694.441	5.262	-0.127	-0.095
-693.426	354.819	-0.146	0.292
-692.412	800.000	-0.031	0.108
-691.397	-142.715	0.074	-0.007
-690.383	87.071	-0.273	0.304
-689.368	201.220	-0.065	-0.101
-688.354	62.242	0.117	-0.117
-687.339	11.412	0.168	-0.129
-686.324	-70.230	-0.264	-0.101
-685.310	80.662	0.152	-0.165
-684.295	-200.000	0.052	-0.304
-683.281	800.000	0.031	0.103
-682.266	197.750	0.198	-0.304
-681.251	105.504	0.131	-0.156
-680.237	-16.426	0.046	-0.029
-679.222	-138.312	-0.300	0.033
-678.208	-113.364	0.237	-0.047
-677.193	25.562	-0.201	-0.168
-676.178	-44.404	-0.335	-0.169
-675.164	104.890	0.034	0.040
-674.149	-200.000	-0.017	-0.181
-673.135	800.000	0.089	-0.313
-672.120	433.301	-0.257	0.562
-671.105	-57.619	0.165	0.073
-670.091	-40.712	-0.173	-0.090
-669.076	86.864	0.083	-0.092
-668.062	-200.000	-0.091	0.466
-667.047	-43.231	-0.142	-0.072
-666.032	-19.079	0.110	0.069
-665.018	-200.000	-0.023	-0.323
-664.003	-200.000	0.017	-0.111
-662.989	-108.841	-0.168	0.036
-661.974	528.454	-0.077	-0.182
-660.959	10.192	0.100	0.077
-659.945	453.487	0.029	0.065
-658.930	800.000	-0.062	0.193
-657.916	-126.835	0.260	-0.039
-656.901	116.992	0.275	0.340
-655.886	-200.000	0.011	0.385
-654.872	800.000	-0.046	-0.196
-653.857	-200.000	0.037	0.186
-652.843	49.066	0.121	0.115
-651.828	-60.722	-0.274	0.117
-650.814	23.116	-0.190	0.156
-649.799	-55.632	-0.326	-0.147
-648.784	66.184	-0.201	0.205
-647.770	-16.853	0.073	-0.046
-646.755	216.632	0.103	0.164
-645.741	-25.459	0.006	-0.004
-644.726	-145.210	0.089	-0.008
-643.711	71.205	-0.165	0.171
-642.697	3.321	0.050	0.036
-641.682	-103.668	0.040	-0.009
-640.668	74.819	0.037	0.039
-639.653	-200.000	-0.030	-0.365
-638.638	-178.302	-0.187	-0.004
-637.624	-125.627	-0.098	0.015
-636.609	307.341	0.070	-0.132
-635.595	-37.338	-0.232	-0.125
-634.580	-15.484	-0.070	0.045
-633.565	460.332	0.026	-0.059
-632.551	-200.000	-0.066	-0.352
-631.536	800.000	-0.082	-0.275
-630.522	-36.256	-0.239	-0.130
-629.507	242.850	0.172	0.290
-628.492	-174.180	0.211	-0.006
-627.478	58.572	-0.046	0.046
-626.463	228.710	-0.042	0.069
-625.449	-123.353	0.220	-0.035
-624.434	800.000	0.012	0.053
-623.419	765.912	-0.115	-0.315
-622.405	-35.361	0.170	-0.093
-621.390	-200.000	0.027	0.239
-620.376	-59.469	-0.154	-0.066
-619.361	-75.812	-0.128	0.046
-618.346	-102.867	-0.216	-0.052
-617.332	98.393	0.195	-0.225
-616.317	307.702	-0.011	0.021
-615.303	-159.068	-0.289	-0.016
-614.288	-159.331	0.233	0.013
-613.273	-200.000	0.057	0.336
-612.259	-131.796	-0.180	-0.024
-611.244	172.283	0.049	-0.070
-610.230	505.719	-0.069	-0.161
-609.215	-72.996	-0.223	-0.082
-608.201	-95.383	-0.398	-0.107
-607.186	685.368	-0.069	-0.181
-606.171	-200.000	-0.005	0.107
-605.157	9.918	-0.170	0.129
-604.142	-139.376	-0.362	0.039
-603.128	-200.000	0.005	0.041
-602.113	-106.892	-0.349	-0.078
-601.098	93.501	0.090	0.102
-600.084	-167.289	-0.112	-0.005
-599.069	-200.000	-0.012	-0.265
-598.055	46.883	-0.161	0.150
-597.040	122.841	0.069	0.086
-596.025	-200.000	-0.006	0.232
-595.011	-37.578	-0.167	0.089
-593.996	-200.000	-0.063	-0.352
-592.982	49.588	-0.156	0.147
-591.967	37.151	0.208	-0.185
-590.952	561.865	-0.133	0.323
-589.938	187.270	-0.158	0.236
-588.923	-200.000	-0.033	-0.187
-587.909	-101.175	-0.113	0.028
-586.894	-96.643	0.203	0.054
-585.879	-137.699	0.072	-0.008
-584.865	-118.342	0.182	-0.032
-583.850	-122.642	0.309	-0.050
-582.836	50.371	-0.018	0.017
-581.821	-200.000	0.026	-0.113
-580.806	225.624	-0.179	0.291
-579.792	86.910	0.093	-0.102
-578.777	157.727	0.268	-0.373
-577.763	536.893	0.108	-0.257
-576.748	148.849	0.166	-0.225
-575.733	326.502	-0.124	0.239
-574.719	160.164	0.118	-0.164
-573.704	-46.741	0.398	-0.195
-572.690	-145.698	0.112	-0.010
-571.675	-200.000	-0.009	0.234
-570.661	623.014	0.052	-0.131
-569.646	800.000	-0.036	-0.147
-568.631	49.403	-0.058	0.055
-567.617	-148.299	-0.181	0.015
-566.602	-153.086	-0.201	0.014
-565.588	800.000	0.048	-0.167
-564.573	800.000	0.126	-0.413
-563.558	482.625	-0.100	-0.227
-562.544	550.625	0.065	-0.155
-561.529	-47.477	0.216	0.105
-560.515	532.784	-0.067	-0.158
-559.500	76.138	-0.245	-0.259
-558.485	82.847	-0.167	0.182
-557.471	-200.000	0.020	0.674
-556.456	-136.694	-0.248	0.029
-555.442	-200.000	0.001	-0.118
-554.427	-70.804	-0.244	0.092
-553.412	-93.444	0.135	0.037
-552.398	248.083	0.090	0.152
-551.383	-18.159	-0.135	-0.084
-550.369	-47.792	0.212	0.103
-549.354	-13.728	-0.143	-0.093
-548.339	-200.000	0.023	-0.140
-547.325	-41.860	0.215	-0.110
-546.310	-200.000	0.062	0.324
-545.296	-200.000	-0.018	-0.337
-544.281	130.575	0.071	-0.091
-543.266	800.000	0.018	0.075
-542.252	-131.625	-0.372	0.049
-541.237	113.284	0.289	-0.351
-540.223	-200.000	0.047	-0.238
-539.208	-116.804	0.097	0.018
-538.193	610.518	-0.096	0.241
-537.179	-200.000	0.061	0.302
-536.164	-98.363	-0.196	-0.050
-535.150	5.503	-0.287	-0.212
-534.135	-51.528	0.095	-0.044
-533.121	18.608	0.175	-0.140
-532.106	83.996	-0.297	0.324
-531.091	-200.000	0.016	0.383
-530.077	-0.657	0.128	-0.091
-529.062	-122.019	0.128	0.021
-528.048	19.404	-0.124	0.100
-527.033	800.000	-0.064	-0.246
-526.018	-187.677	0.364	0.005
-525.004	-5.999	0.080	0.055
-523.989	-168.014	0.192	-0.008
-522.975	800.000	-0.047	0.157
-521.960	634.161	0.120	0.304
-520.945	-200.000	0.017	-0.080
-519.931	-200.000	0.007	-0.121
-518.916	-200.000	0.003	-0.267
-517.902	-200.000	-0.005	0.289
-516.887	-11.522	-0.303	0.199
-515.872	161.476	-0.030	-0.042
-514.858	-200.000	0.024	-0.158
-513.843	800.000	0.040	-0.116
-512.829	-200.000	0.004	-0.020
-511.814	-77.925	-0.078	-0.027
-510.799	50.058	-0.195	0.184
-509.785	761.941	-0.116	-0.315
-508.770	-45.191	0.172	-0.085
-507.756	26.419	-0.262	0.219
-506.741	221.660	0.165	0.265
-505.726	21.570	-0.402	-0.327
-504.712	-136.693	-0.266	0.031
-503.697	-200.000	0.022	-0.139
-502.683	307.714	0.197	-0.368
-501.668	800.000	-0.064	0.245
-500.653	-200.000	0.033	-0.287
-499.639	-200.000	0.010	-0.125
-498.624	263.897	-0.057	-0.099
-497.610	-6.412	0.107	-0.073
-496.595	151.112	-0.080	0.108
-495.581	-122.840	-0.154	-0.025
-494.566	-49.441	-0.143	-0.068
-493.551	52.306	-0.045	-0.042
-492.537	-49.852	-0.011	-0.005
-491.522	-200.000	0.063	-0.397
-490.508	135.860	-0.164	-0.213
-489.493	-11.775	0.329	0.216
-488.478	800.000	0.093	-0.353
-487.464	-39.567	0.344	-0.180
-486.449	-200.000	0.011	-0.315
-485.435	390.403	-0.035	0.072
-484.420	226.775	0.168	-0.273
-483.405	-160.138	0.254	-0.014
-482.391	-29.237	-0.100	0.057
-481.376	84.483	0.181	-0.198
-480.362	19.822	-0.187	0.150
-479.347	-142.300	-0.218	-0.021
-478.332	100.176	-0.019	-0.021
-477.318	125.578	0.198	0.249
-476.303	-83.105	-0.156	-0.050
-475.289	109.637	0.316	0.378
-474.274	-11.133	0.192	0.127
-473.259	1.637	-0.128	-0.092
-472.245	207.690	-0.148	-0.230
-471.230	800.000	0.046	-0.166
-470.216	320.082	0.130	-0.246
-469.201	71.297	0.219	0.227
-468.186	35.716	-0.148	-0.129
-467.172	-200.000	0.010	-0.117
-466.157	-15.687	-0.076	0.048
-465.143	82.533	-0.142	-0.154
-464.128	-200.000	-0.000	-0.029
-463.113	-200.000	0.047	0.263
-462.099	-32.563	0.282	0.157
-461.084	639.543	-0.126	-0.320
-460.070	-82.798	0.187	-0.060
-459.055	-95.199	0.247	0.066
-458.040	-75.701	-0.134	-0.047
-457.026	3.126	-0.262	-0.190
-456.011	-11.077	-0.237	0.156
-454.997	-80.176	0.218	0.073
-453.982	9.481	-0.168	-0.126
-452.968	-14.359	-0.202	-0.130
-451.953	-39.786	0.269	0.140
-450.938	334.603	-0.057	0.110
-449.924	47.346	-0.114	0.106
-448.909	49.340	0.259	-0.243
-447.895	54.368	0.005	-0.005
-446.880	-200.000	-0.002	0.065
-445.865	-147.834	0.144	-0.012
-444.851	277.107	0.146	0.260
-443.836	-136.119	-0.066	-0.008
-442.822	48.502	-0.147	0.137
-441.807	162.761	-0.162	-0.227
-440.792	9.092	0.129	0.097
-439.778	74.578	0.376	0.394
-438.763	459.863	-0.101	0.225
-437.749	-102.094	0.212	0.051
-436.734	-74.624	0.143	0.051
-435.719	412.899	0.121	-0.256
-434.705	-200.000	-0.040	-0.291
-433.690	-110.509	-0.146	-0.030
-432.676	29.985	0.102	-0.087
-431.661	332.489	0.172	-0.330
-430.646	203.315	-0.213	0.328
-429.632	800.000	0.104	0.337
-428.617	211.088	0.157	-0.245
-427.603	-94.776	-0.233	0.063
-426.588	-21.901	-0.077	-0.047
-425.573	7.417	-0.111	0.082
-424.559	800.000	-0.034	-0.112
-423.544	398.127	-0.185	0.385
-422.530	-200.000	-0.001	-0.227
-421.515	-147.515	0.260	0.022
-420.500	90.294	0.194	-0.217
-419.486	-23.959	-0.032	-0.019
-418.471	-37.891	-0.131	0.069
-417.457	588.560	0.056	-0.137
-416.442	-200.000	0.003	0.474
-415.428	9.074	0.081	-0.061
-414.413	38.411	0.231	0.205
-413.398	-150.324	-0.202	-0.016
-412.384	-93.330	-0.074	0.021
-411.369	372.540	-0.128	-0.259
-410.355	-99.836	-0.205	-0.051
-409.340	-39.769	-0.359	-0.187
-408.325	-142.570	-0.093	0.009
-407.311	800.000	0.018	0.059
-406.296	83.893	0.086	0.093
-405.282	636.623	-0.075	0.189
-404.267	454.137	-0.025	0.056
-403.252	70.233	-0.041	-0.042
-402.238	-9.098	-0.393	-0.262
-401.223	-46.192	0.389	0.191
-400.209	61.667	0.140	0.138
-399.194	-200.000	-0.075	-0.395
-398.179	385.875	-0.032	0.067
-397.165	-23.328	0.051	-0.030
-396.150	-200.000	0.019	-0.386
-395.136	543.570	-0.084	-0.200
-394.121	333.313	-0.078	0.150
-393.106	186.280	0.040	0.059
-392.092	-200.000	-0.051	-0.332
-391.077	-133.838	0.087	-0.011
-390.063	-171.071	0.086	-0.003
-389.048	-33.021	0.244	0.135
-388.033	5.178	-0.278	-0.204
-387.019	-93.989	-0.411	-0.112
-386.004	345.737	0.088	-0.172
-384.990	-150.875	-0.093	0.007
-383.975	-52.443	0.163	0.075
-382.960	705.878	-0.111	0.292
-381.946	-200.000	0.036	0.165
-380.931	50.079	0.200	0.188
-379.917	-16.513	-0.359	0.226
-378.902	-72.156	-0.104	0.039
-377.888	-56.896	0.410	-0.180
-376.873	-200.000	-0.035	0.234
-375.858	236.535	-0.129	-0.213
-374.844	-200.000	0.002	-0.017
-373.829	800.000	-0.050	-0.209
-372.815	208.782	0.095	-0.147
-371.800	60.056	0.134	0.132
-370.785	75.142	0.079	-0.083
-369.771	51.662	-0.123	0.117
-368.756	-104.330	0.202	0.047
-367.742	234.012	-0.116	-0.190
-366.727	-166.778	0.331	0.014
-365.712	800.000	0.024	0.092
-364.698	-120.711	0.097	0.016
-363.683	-125.094	-0.471	0.072
-362.669	-200.000	-0.084	0.488
-361.654	67.543	0.173	0.176
-360.639	533.737	0.042	-0.098
-359.625	-200.000	0.012	-0.294
-358.610	-200.000	-0.000	0.084
-357.596	-21.637	0.168	0.102
-356.581	145.560	-0.075	-0.100
-355.566	-62.589	0.051	0.021
-354.552	-35.791	0.268	0.144
-353.537	444.230	-0.031	-0.069
-352.523	192.041	0.159	0.238
-351.508	-37.442	0.413	-0.219
-350.493	47.404	-0.157	0.145
-349.479	-3.369	0.039	-0.027
-348.464	198.038	-0.118	0.180
-347.450	315.797	0.049	0.093
-346.435	161.279	0.066	-0.092
-345.420	417.255	-0.059	-0.125
-344.406	253.930	-0.087	0.147
-343.391	800.000	-0.058	0.180
-342.377	-200.000	0.016	-0.299
-341.362	-28.127	-0.321	0.184
-340.348	-46.185	0.265	0.129
-339.333	-200.000	0.078	0.375
-338.318	378.811	0.035	-0.070
-337.304	96.026	0.065	-0.073
-336.289	-153.830	0.117	-0.008
-335.275	376.884	-0.042	0.085
-334.260	800.000	-0.098	-0.307
-333.245	317.629	0.117	-0.221
-332.231	-94.274	0.259	0.070
-331.216	-37.871	0.119	0.063
-330.202	547.912	-0.063	0.150
-329.187	164.194	-0.136	0.190
-328.172	-168.491	-0.104	-0.004
-327.158	-123.324	0.119	-0.019
-326.143	-174.809	-0.103	0.003
-325.129	-200.000	-0.006	0.194
-324.114	-76.706	0.175	-0.061
-323.099	30.617	0.088	-0.075
-322.085	554.649	-0.046	-0.111
-321.070	-119.860	0.060	0.010
-320.056	345.089	-0.059	0.114
-319.041	-53.989	0.119	0.054
-318.026	265.698	0.058	-0.100
-317.012	575.712	0.121	-0.294
-315.997	-76.226	-0.235	-0.082
-314.983	-122.894	-0.394	0.063
-313.968	763.734	-0.106	0.286
-312.953	-200.000	0.021	-0.148
-311.939	800.000	-0.095	0.390
-310.924	18.263	-0.151	0.119
-309.910	-141.918	0.225	0.022
-308.895	4.724	0.145	-0.106
-307.880	-54.259	0.136	0.061
-306.866	-62.296	-0.046	0.019
-305.851	800.000	-0.037	-0.159
-304.837	800.000	0.086	0.283
-303.822	-162.790	0.210	-0.010
-302.807	241.983	0.247	0.409
-301.793	569.628	0.080	-0.193
-300.778	-80.171	0.079	0.026
-299.764	-200.000	-0.017	0.139
-298.749	-200.000	-0.117	0.000
-297.735	-129.765	0.123	0.017
-296.720	-200.000	-0.001	-0.179
-295.705	542.951	-0.055	-0.130
-294.691	174.272	-0.088	0.126
-293.676	-200.000	-0.034	-0.189
-292.662	-135.130	0.305	-0.036
-291.647	-93.527	0.162	-0.044
-290.632	-73.464	0.130	-0.047
-289.618	-110.769	-0.221	0.045
-288.603	-145.481	-0.291	0.026
-287.589	352.348	0.205	0.402
-286.574	441.570	-0.102	-0.220
-285.559	250.509	0.026	-0.044
-284.545	573.054	-0.140	-0.337
-283.530	-90.557	0.215	-0.062
-282.516	800.000	0.062	-0.237
-281.501	122.770	-0.176	-0.218
-280.486	-76.585	-0.228	-0.079
-279.472	162.885	0.111	-0.154
-278.457	-200.000	-0.036	0.306
-277.443	-76.745	-0.460	0.160
-276.428	211.324	0.115	0.179
-275.413	-141.261	0.397	-0.040
-274.399	4.006	0.279	0.202
-273.384	800.000	-0.076	0.295
-272.370	-113.364	0.153	-0.030
-271.355	598.638	0.025	0.060
-270.340	800.000	-0.088	0.281
-269.326	-86.431	0.097	0.029
-268.311	-44.863	-0.132	-0.065
-267.297	-200.000	0.008	0.064
-266.282	-90.969	0.224	0.064
-265.267	-29.632	0.086	0.049
-264.253	-73.969	-0.173	0.062
-263.238	-91.043	-0.375	-0.107
-262.224	324.372	-0.183	0.346
-261.209	-119.435	0.350	-0.060
-260.195	570.233	0.121	0.292
-259.180	190.792	-0.047	-0.070
-258.165	-74.009	0.067	-0.024
-257.151	-80.261	-0.086	-0.029
-256.136	14.402	0.175	-0.135
-255.122	-45.637	-0.162	-0.079
-254.107	-5.051	-0.213	-0.145
-253.092	167.337	-0.024	0.033
-252.078	228.746	0.180	0.290
-251.063	-200.000	0.015	-0.243
-250.049	-23.738	-0.300	-0.178
-249.034	-24.869	0.266	-0.156
-248.019	17.791	-0.148	0.117
-247.005	-6.142	0.167	0.113
-245.990	800.000	0.005	-0.017
-244.976	14.272	-0.135	0.104
-243.961	800.000	0.015	-0.065
-242.946	241.238	0.219	0.362
-241.932	427.928	0.123	0.262
-240.917	-155.881	-0.084	-0.005
-239.903	-200.000	-0.053	-0.348
-238.888	-200.000	0.039	0.284
-237.873	159.812	0.165	-0.228
-236.859	-18.899	-0.094	0.058
-235.844	392.488	-0.082	-0.169
-234.830	-173.136	0.242	0.007
-233.815	748.949	0.052	-0.137
-232.800	-102.912	-0.077	-0.018
-231.786	-104.001	0.479	0.110
-230.771	-11.993	-0.105	-0.068
-229.757	-84.776	0.301	-0.094
-228.742	-200.000	-0.026	0.201
-227.727	716.789	-0.080	0.210
-226.713	596.448	0.129	0.316
-225.698	-78.313	0.274	-0.093
-224.684	-93.551	-0.238	0.065
-223.669	-95.825	-0.280	-0.074
-222.655	-200.000	0.004	0.296
-221.640	72.131	0.134	0.138
-220.625	221.152	0.129	-0.205
-219.611	208.659	-0.085	-0.132
-218.596	75.729	0.179	0.187
-217.582	211.907	0.142	0.221
-216.567	66.864	0.210	-0.211
-215.552	-23.959	-0.273	0.161
-214.538	-200.000	-0.011	0.280
-213.523	57.944	-0.092	0.089
-212.509	-56.706	-0.375	-0.164
-211.494	407.287	0.101	-0.210
-210.479	800.000	-0.085	-0.233
-209.465	224.166	-0.168	0.268
-208.450	-200.000	-0.031	0.170
-207.436	212.983	0.180	0.281
-206.421	-30.015	-0.295	-0.166
-205.406	-177.454	-0.204	0.005
-204.392	-112.127	-0.036	-0.007
-203.377	92.600	-0.232	-0.259
-202.363	175.550	-0.168	-0.241
-201.348	-16.575	0.032	0.020
-200.333	-67.952	-0.187	0.072
-199.319	-114.036	-0.139	-0.027
-198.304	-5.914	-0.172	-0.116
-197.290	-62.358	0.147	-0.060
-196.275	39.207	0.090	-0.079
-195.260	80.717	-0.045	0.048
-194.246	-89.203	-0.555	0.162
-193.231	378.880	0.107	0.216
-192.217	359.728	0.146	0.287
-191.202	164.829	0.019	0.027
-190.187	596.365	-0.084	0.205
-189.173	224.711	0.022	0.035
-188.158	-200.000	-0.026	0.170
-187.144	113.441	-0.063	0.076
-186.129	-200.000	0.038	0.352
-185.114	-200.000	0.017	0.232
-184.100	-48.320	-0.224	0.107
-183.085	721.234	0.057	-0.149
-182.071	-57.035	0.255	0.111
-181.056	420.876	-0.158	-0.333
-180.042	-200.000	-0.024	-0.383
-179.027	-111.524	0.139	-0.028
-178.012	-63.048	-0.397	-0.162
-176.998	445.739	0.114	-0.246
-175.983	800.000	-0.063	0.243
-174.969	-200.000	0.013	-0.188
-173.954	-39.442	0.072	0.037
-172.939	-9.890	-0.036	0.024
-171.925	-47.225	0.128	0.061
-170.910	485.893	-0.080	0.179
-169.896	61.670	0.028	-0.027
-168.881	-97.116	-0.084	-0.022
-167.866	40.690	0.200	-0.178
-166.852	800.000	0.100	0.321
-165.837	-75.793	0.340	-0.119
-164.823	88.519	-0.150	0.164
-163.808	-106.907	0.113	-0.025
-162.793	52.123	-0.053	0.050
-161.779	-127.461	0.158	-0.023
-160.764	149.086	0.123	-0.163
-159.750	-11.051	-0.109	0.071
-158.735	-56.268	-0.063	-0.028
-157.720	289.929	0.168	0.300
-156.706	-8.381	0.099	-0.066
-155.691	325.683	0.153	-0.288
-154.677	19.061	0.283	0.224
-153.662	-18.735	0.238	0.146
-152.647	102.805	-0.155	-0.179
-151.633	300.651	0.069	0.125
-150.618	-37.809	0.337	0.177
-149.604	15.040	-0.071	-0.055
-148.589	-200.000	-0.012	0.246
-147.574	635.537	0.029	0.072
-146.560	213.428	0.142	-0.222
-145.545	-40.760	0.162	0.083
-144.531	26.467	-0.205	0.169
-143.516	-72.985	-0.173	-0.063
-142.502	57.504	0.216	-0.208
-141.487	150.940	0.091	-0.122
-140.472	-200.000	-0.002	-0.032
-139.458	-200.000	0.019	0.096
-138.443	102.829	-0.202	0.233
-137.429	800.000	0.059	0.181
-136.414	-200.000	0.001	-0.179
-135.399	48.608	0.231	0.214
-134.385	-136.134	0.130	-0.015
-133.370	-21.614	0.188	-0.113
-132.356	-6.178	-0.302	0.203
-131.341	-7.986	-0.175	-0.116
-130.326	199.931	0.184	-0.278
-129.312	-78.639	-0.217	-0.073
-128.297	17.304	0.121	0.095
-127.283	-200.000	-0.063	0.319
-126.268	-200.000	-0.304	-0.001
-125.253	-200.000	0.013	0.084
-124.239	110.876	-0.246	-0.291
-123.224	185.444	0.058	-0.085
-122.210	-200.000	-0.020	0.198
-121.195	-200.000	0.025	-0.212
-120.180	-138.280	-0.277	0.030
-119.166	62.711	0.184	-0.181
-118.151	75.285	-0.272	-0.282
-117.137	800.000	0.037	0.103
-116.122	-63.726	0.358	0.144
-115.107	-109.420	-0.294	-0.061
-114.093	-200.000	-0.026	-0.378
-113.078	246.526	-0.081	-0.135
-112.064	-61.696	0.170	-0.070
-111.049	229.891	0.132	-0.212
-110.034	35.793	0.118	-0.102
-109.020	-30.266	-0.193	-0.108
-108.005	-145.156	0.129	0.011
-106.991	-200.000	-0.002	0.010
-105.976	0.103	0.118	-0.083
-104.962	800.000	-0.039	-0.120
-103.947	-15.695	0.083	-0.052
-102.932	102.357	0.166	-0.191
-101.918	-53.821	-0.223	0.100
-100.903	6.222	0.183	0.134
-99.889	401.184	0.080	0.166
-98.874	85.176	-0.243	0.263
-97.859	800.000	0.058	-0.169
-96.845	-36.868	0.495	-0.261
-95.830	800.000	-0.072	-0.288
-94.816	-65.993	-0.117	-0.046
-93.801	-120.255	-0.221	0.037
-92.786	-59.870	0.429	-0.181
-91.772	-157.284	-0.269	-0.016
-90.757	800.000	0.087	-0.240
-89.743	-200.000	-0.003	-0.071
-88.728	612.943	-0.031	-0.076
-87.713	9.994	0.022	-0.016
-86.699	-18.387	-0.075	0.046
-85.684	-86.346	0.416	0.126
-84.670	40.125	-0.130	0.115
-83.655	-71.222	0.108	-0.040
-82.640	-25.362	0.124	-0.072
-81.626	-200.000	-0.047	-0.244
-80.611	598.675	0.010	0.025
-79.597	-29.222	0.406	-0.228
-78.582	39.293	0.207	-0.182
-77.567	800.000	-0.057	0.218
-76.553	234.978	0.167	-0.271
-75.538	800.000	0.041	-0.124
-74.524	628.932	0.049	0.121
-73.509	-37.333	0.344	0.180
-72.494	171.223	0.199	-0.280
-71.480	-106.704	-0.051	-0.011
-70.465	21.671	-0.282	0.226
-69.451	687.998	-0.048	0.124
-68.436	39.649	0.132	0.116
-67.422	101.695	-0.098	0.112
-66.407	-200.000	-0.039	-0.166
-65.392	-135.151	-0.282	0.033
-64.378	-116.244	0.213	-0.039
-63.363	-83.058	-0.142	0.045
-62.349	-200.000	0.270	0.001
-61.334	103.487	-0.809	-0.933
-60.319	151.806	0.420	0.563
-59.305	635.638	-0.450	-1.121
-58.290	179.518	0.735	1.056
-57.276	800.000	0.444	1.595
-56.261	-200.000	105.089	593.535
-55.246	510.947	1487.838	3399.400
-54.232	176.280	2693.364	3841.157
-53.217	111.301	2176.948	2576.035
-52.203	40.771	1612.624	1427.833
-51.188	32.413	1346.379	1141.610
-50.173	29.330	1305.336	1088.594
-49.159	53.521	1358.389	1279.122
-48.144	53.766	1374.053	1295.292
-47.130	32.593	1329.344	1128.063
-46.115	29.224	1311.337	1092.796
-45.100	28.964	1306.493	1087.181
-44.086	28.930	1304.324	1085.133
-43.071	28.927	1302.096	1083.221
-42.057	28.803	1299.612	1080.377
-41.042	28.857	1297.890	1079.220
-40.027	28.953	1295.957	1078.135
-39.013	28.817	1294.630	1076.191
-37.998	28.917	1292.341	1074.829
-36.984	29.068	1290.569	1074.194
-35.969	29.139	1288.290	1072.673
-34.954	28.996	1287.198	1070.889
-33.940	28.965	1285.901	1069.587
-32.925	29.103	1284.638	1069.291
-31.911	29.067	1283.234	1067.872
-30.896	29.071	1281.897	1066.744
-29.881	29.065	1280.793	1065.745
-28.867	29.134	1279.014	1064.620
-27.852	29.132	1277.404	1063.226
-26.838	29.222	1275.992	1062.529
-25.823	29.043	1275.164	1060.764
-24.809	29.042	1273.466	1059.305
-23.794	29.001	1272.578	1058.290
-22.779	29.062	1270.961	1057.255
-21.765	29.073	1269.746	1056.263
-20.750	29.093	1268.076	1054.946
-19.736	28.963	1267.014	1053.276
-18.721	28.953	1265.650	1052.047
-17.706	28.941	1264.805	1051.229
-16.692	28.878	1263.584	1049.816
-15.677	29.013	1262.382	1049.545
-14.663	29.057	1261.255	1048.820
-13.648	28.952	1260.313	1047.397
-12.633	28.978	1259.164	1046.545
-11.619	28.967	1258.472	1045.868
-10.604	28.861	1257.863	1044.718
-9.590	28.911	1256.756	1044.037
-8.575	28.874	1255.416	1042.678
-7.560	28.934	1254.829	1042.485
-6.546	28.997	1253.537	1041.728
-5.531	28.947	1253.221	1041.140
-4.517	28.874	1252.158	1039.803
-3.502	28.947	1251.253	1039.425
-2.487	28.902	1250.134	1038.198
-1.473	28.934	1246.567	1035.378
-0.458	28.075	1232.450	1018.827
0.556	25.700	1216.871	987.205
1.571	22.558	1222.785	974.568
2.586	21.665	1237.437	981.159
3.600	20.712	1224.743	965.722
4.615	15.227	1152.069	879.626
5.629	7.229	1077.958	783.550
6.644	3.771	1059.904	753.520
7.659	3.606	1057.066	750.633
8.673	3.647	1055.958	749.976
9.688	3.636	1055.422	749.477
10.702	3.961	1052.807	749.129
11.717	8.496	1059.869	776.145
12.731	16.327	1070.674	822.258
13.746	19.720	1074.131	841.385
14.761	19.541	1073.553	839.988
15.775	18.654	1071.579	834.059
16.790	17.819	1069.226	828.103
17.804	17.059	1067.804	823.243
18.819	16.738	1067.062	821.041
19.834	16.572	1065.946	819.306
20.848	16.324	1065.468	817.669
21.863	16.115	1064.505	815.848
22.877	16.062	1063.632	814.846
23.892	16.006	1063.249	814.212
24.907	15.915	1062.347	813.009
25.921	15.987	1060.945	812.213
26.936	15.987	1059.762	811.235
27.950	15.874	1058.640	809.761
28.965	16.013	1057.595	809.559
29.980	16.221	1055.497	808.879
30.994	16.295	1054.440	808.348
32.009	16.308	1053.668	807.747
33.023	16.266	1052.364	806.477
34.038	16.097	1051.533	804.960
35.053	16.109	1050.567	804.208
36.067	16.146	1049.715	803.663
37.082	16.040	1049.069	802.589
38.096	16.150	1048.311	802.465
39.111	16.185	1047.318	801.800
40.126	16.030	1046.148	800.097
41.140	15.859	1044.664	798.082
42.155	15.809	1043.055	796.542
43.169	15.672	1042.586	795.468
44.184	15.787	1041.690	795.255
45.199	15.835	1040.398	794.426
46.213	15.845	1039.373	793.618
47.228	15.916	1038.679	793.353
48.242	16.043	1037.351	792.865
49.257	15.983	1036.499	791.866
50.271	16.048	1035.891	791.634
51.286	16.083	1034.782	790.881
52.301	16.006	1033.908	789.784
53.315	15.931	1032.845	788.549
54.330	15.832	1031.829	787.240
55.344	15.815	1030.971	786.437
56.359	15.909	1030.163	786.191
57.374	15.919	1029.032	785.303
58.388	15.840	1028.559	784.504
59.403	15.787	1027.611	783.466
60.417	15.734	1026.763	782.504
61.432	15.669	1025.963	781.520
62.447	15.682	1025.025	780.799
63.461	15.543	1024.731	779.862
64.476	15.575	1023.580	779.065
65.490	15.565	1022.523	778.146
66.505	15.759	1022.234	778.754
67.520	15.784	1021.579	778.301
68.534	15.833	1020.538	777.665
69.549	15.689	1020.324	776.771
70.563	15.475	1019.634	775.188
71.578	15.518	1018.438	774.406
72.593	15.454	1017.489	773.322
73.607	15.502	1017.040	773.135
74.622	15.542	1016.068	772.511
75.636	15.449	1016.030	771.986
76.651	15.475	1015.138	771.358
77.666	15.603	1014.509	771.401
78.680	15.656	1013.650	770.921
79.695	15.674	1013.114	770.530
80.709	15.765	1012.665	770.538
81.724	15.833	1011.955	770.241
82.739	15.909	1011.219	769.958
83.753	16.020	1010.588	769.916
84.768	16.309	1009.057	770.002
85.782	16.166	1008.957	769.203
86.797	16.336	1007.365	768.697
87.812	15.941	1007.249	766.741
88.826	16.044	1005.993	766.184
89.841	16.088	1005.199	765.713
90.855	16.181	1004.377	765.442
91.870	16.181	1003.584	764.771
92.884	16.182	1002.559	763.924
93.899	16.228	1001.756	763.452
94.914	16.256	1000.818	762.798
95.928	16.348	1000.283	762.740
96.943	16.208	999.218	761.227
97.957	16.176	998.269	760.294
98.972	16.156	997.516	759.562
99.987	16.274	996.099	758.944
101.001	16.120	995.607	757.811
102.016	16.056	994.676	756.748
103.030	16.306	994.075	757.348
104.045	16.157	993.337	756.047
105.060	16.133	992.312	755.097
106.074	15.835	991.508	753.085
107.089	15.834	990.038	751.895
108.103	15.806	989.380	751.204
109.118	15.711	988.329	749.918
110.133	15.839	987.274	749.618
111.147	15.792	986.378	748.662
112.162	15.764	986.267	748.387
113.176	15.947	984.838	748.051
114.191	15.994	984.559	747.984
115.206	15.805	983.782	746.486
116.220	15.914	982.999	746.311
117.235	15.883	981.960	745.318
118.249	15.797	980.907	744.070
119.264	15.785	980.274	743.474
120.279	15.721	979.929	742.864
121.293	15.646	978.934	741.711
122.308	15.838	977.799	741.630
123.322	15.695	976.572	740.008
124.337	15.547	975.914	738.793
125.352	15.721	974.863	738.696
126.366	15.722	973.782	737.815
127.381	15.659	972.505	736.506
128.395	15.630	972.440	736.265
129.410	15.680	971.113	735.412
130.424	15.833	970.273	735.382
131.439	16.029	969.400	735.508
132.454	15.982	968.656	734.677
133.468	15.851	968.229	733.714
134.483	15.855	967.250	732.924
135.497	15.919	966.572	732.627
136.512	16.005	965.214	731.904
137.527	15.941	964.716	731.184
138.541	15.929	964.332	730.777
139.556	16.016	963.247	730.270
140.570	16.051	963.338	730.422
141.585	16.297	961.942	730.363
142.600	16.224	961.392	729.566
143.614	16.328	960.358	729.167
144.629	16.458	959.571	729.066
145.643	16.272	958.482	727.373
146.658	16.094	957.452	725.759
147.673	16.231	956.063	725.232
148.687	15.951	955.837	723.793
149.702	15.900	954.554	722.540
150.716	15.878	954.079	722.023
151.731	15.960	953.223	721.662
152.746	15.973	952.958	721.452
153.760	16.122	951.982	721.287
154.775	16.243	951.260	721.192
155.789	16.339	950.337	720.838
156.804	16.141	949.976	719.657
157.819	16.213	949.418	719.477
158.833	16.241	949.016	719.228
159.848	16.337	948.267	719.008
160.862	16.361	947.002	718.084
161.877	16.122	945.868	716.148
162.892	16.143	944.652	715.250
163.906	15.972	944.441	714.304
164.921	16.004	943.391	713.582
165.935	16.216	942.320	713.605
166.950	16.206	941.245	712.687
167.964	16.267	940.355	712.207
168.979	16.167	939.258	710.891
169.994	16.220	939.085	710.919
171.008	16.243	938.294	710.354
172.023	16.361	937.551	710.225
173.037	16.350	937.399	710.001
174.052	16.386	936.368	709.308
175.067	16.204	935.544	707.862
176.081	16.082	934.722	706.661
177.096	16.116	934.797	706.798
178.110	16.019	934.265	705.927
179.125	16.160	933.425	705.824
180.140	16.359	932.598	705.967
181.154	16.269	932.627	705.549
182.169	16.362	932.162	705.525
183.183	16.537	931.365	705.589
184.198	16.348	930.723	704.250
185.213	16.513	929.790	704.169
186.227	16.533	929.189	703.737
187.242	16.513	928.663	703.193
188.256	16.614	928.097	703.122
189.271	16.658	927.169	702.537
190.286	16.316	926.473	700.531
191.300	16.123	925.743	699.115
192.315	16.145	924.736	698.385
193.329	16.267	923.808	698.126
194.344	16.254	923.493	697.775
195.359	16.244	923.292	697.518
196.373	16.328	922.752	697.397
197.388	16.372	922.923	697.646
198.402	16.655	921.970	698.030
199.417	16.769	920.957	697.672
200.432	16.837	920.488	697.534
201.446	16.819	920.271	697.234
202.461	16.916	919.480	696.970
203.475	16.779	919.041	696.013
204.490	16.697	917.939	694.780
205.504	16.596	917.483	693.958
206.519	16.582	916.582	693.162
207.534	16.551	916.130	692.631
208.548	16.535	915.715	692.188
209.563	16.691	914.830	692.097
210.577	16.761	914.015	691.707
211.592	16.791	913.873	691.660
212.607	16.982	912.540	691.369
213.621	16.908	911.620	690.307
214.636	16.823	911.144	689.542
215.650	16.945	910.435	689.440
216.665	16.879	909.836	688.659
217.680	16.957	909.271	688.483
218.694	16.944	908.468	687.763
219.709	16.984	908.324	687.753
220.723	17.019	907.293	687.055
221.738	17.040	906.320	686.342
222.753	17.029	905.980	685.982
223.767	16.940	905.611	685.280
224.782	17.100	904.881	685.313
225.796	17.022	904.652	684.765
226.811	16.995	904.012	684.111
227.826	16.818	903.070	682.624
228.840	16.950	902.188	682.427
229.855	17.102	901.224	682.250
230.869	16.951	900.717	681.197
231.884	16.911	899.881	680.347
232.899	16.898	899.388	679.860
233.913	16.830	898.474	678.836
234.928	16.965	897.539	678.613
235.942	16.908	897.166	678.042
236.957	16.840	896.726	677.378
237.972	16.756	896.394	676.729
238.986	16.847	895.706	676.515
240.001	16.882	894.851	675.948
241.015	16.921	894.341	675.660
242.030	17.138	893.725	675.998
243.045	16.935	893.352	674.846
244.059	17.026	892.621	674.598
245.074	17.044	892.090	674.209
246.088	17.266	891.573	674.640
247.103	17.337	890.602	674.124
248.117	17.246	890.537	673.658
249.132	17.528	889.883	674.219
250.147	17.586	889.577	674.159
251.161	17.715	888.749	673.981
252.176	17.642	888.283	673.277
253.190	17.771	887.513	673.146
254.205	17.690	886.977	672.360
255.220	17.607	886.382	671.522
256.234	17.481	885.525	670.318
257.249	17.644	884.792	670.345
258.263	17.665	884.115	669.852
259.278	17.699	883.241	669.267
260.293	17.851	882.787	669.459
261.307	17.816	882.521	669.061
262.322	17.966	881.784	669.029
263.336	17.898	880.815	667.971
264.351	17.931	880.379	667.709
265.366	17.910	879.644	667.009
266.380	17.935	879.274	666.768
267.395	17.825	878.529	665.714
268.409	17.749	877.525	664.601
269.424	17.672	876.920	663.783
270.439	17.763	876.205	663.539
271.453	17.635	875.725	662.618
272.468	17.667	874.866	662.032
273.482	17.771	874.462	662.072
274.497	17.741	873.927	661.491
275.512	17.767	873.432	661.159
276.526	17.729	873.404	660.931
277.541	17.753	872.475	660.265
278.555	17.897	872.063	660.453
279.570	17.970	871.515	660.260
280.585	17.949	870.613	659.438
281.599	17.841	869.883	658.408
282.614	17.974	868.949	658.158
283.628	17.803	868.666	657.223
284.643	17.916	867.864	656.994
285.657	17.876	867.488	656.500
286.672	17.969	866.337	655.927
287.687	18.030	865.797	655.692
288.701	17.900	865.358	654.806
289.716	17.889	864.882	654.346
290.730	18.019	864.273	654.325
291.745	18.081	863.813	654.156
292.760	18.168	863.385	654.104
293.774	18.025	863.064	653.259
294.789	18.139	861.974	652.811
295.803	18.037	861.247	651.814
296.818	17.914	860.619	650.811
297.833	18.027	859.677	650.470
298.847	18.081	859.253	650.297
299.862	18.181	858.836	650.307
300.876	18.098	858.068	649.352
301.891	18.184	857.738	649.370
302.906	18.238	857.309	649.192
303.920	18.437	856.757	649.471
304.935	18.391	856.493	649.042
305.949	18.336	855.435	647.972
306.964	18.224	854.906	647.093
307.979	18.351	854.265	647.029
308.993	18.421	853.799	646.883
310.008	18.442	853.124	646.392
311.022	18.320	852.662	645.528
312.037	18.418	851.854	645.228
313.052	18.107	851.387	643.646
314.066	18.104	850.794	643.129
315.081	18.264	850.017	643.085
316.095	18.230	849.548	642.547
317.110	18.206	848.945	641.942
318.125	18.260	848.443	641.710
319.139	18.094	848.418	641.011
320.154	18.229	847.593	640.837
321.168	18.358	846.917	640.751
322.183	18.263	846.552	640.064
323.197	18.229	846.116	639.550
324.212	18.335	845.531	639.445
325.227	18.479	844.702	639.300
326.241	18.283	844.104	638.061
327.256	18.290	843.741	637.758
328.270	18.240	843.069	637.004
329.285	18.304	842.410	636.689
330.300	18.345	841.984	636.464
331.314	18.489	841.360	636.469
332.329	18.472	841.093	636.147
333.343	18.361	840.630	635.332
334.358	18.439	840.449	635.427
335.373	18.452	840.139	635.185
336.387	18.653	840.088	635.835
337.402	18.520	840.014	635.230
338.416	18.705	839.413	635.402
339.431	18.798	839.093	635.448
340.446	18.889	838.093	634.972
341.460	18.708	838.216	634.342
342.475	18.834	837.515	634.219
343.489	18.894	837.232	634.168
344.504	19.108	836.548	634.385
345.519	18.925	836.656	633.736
346.533	18.921	835.755	632.982
347.548	18.826	834.653	631.741
348.562	18.702	834.340	630.992
349.577	18.656	833.691	630.277
350.592	18.549	833.263	629.505
351.606	18.658	832.423	629.213
352.621	18.791	831.416	628.886
353.635	18.660	831.340	628.294
354.650	18.822	830.116	627.903
355.665	18.809	829.966	627.687
356.679	18.843	829.458	627.373
357.694	18.928	828.905	627.211
358.708	18.851	828.363	626.462
359.723	18.948	827.555	626.151
360.738	18.879	826.956	625.390
361.752	18.963	826.437	625.246
362.767	19.016	826.160	625.174
363.781	19.085	825.578	624.929
364.796	19.330	824.532	624.970
365.810	19.412	824.853	625.458
366.825	19.411	823.929	624.696
367.840	19.352	823.350	623.988
368.854	19.172	823.376	623.302
369.869	19.207	823.262	623.287
370.883	19.132	822.708	622.540
371.898	19.247	822.241	622.547
372.913	19.534	821.485	622.955
373.927	19.332	820.924	621.748
374.942	19.294	820.580	621.295
375.956	19.391	820.178	621.284
376.971	19.455	819.780	621.160
377.986	19.608	819.290	621.285
379.000	19.528	818.936	620.673
380.015	19.441	818.652	620.089
381.029	19.450	817.855	619.464
382.044	19.514	817.246	619.177
383.059	19.554	816.714	618.861
384.073	19.605	815.911	618.382
385.088	19.549	815.059	617.483
386.102	19.328	815.081	616.654
387.117	19.431	814.071	616.200
388.132	19.346	813.614	615.499
389.146	19.302	813.203	614.975
390.161	19.496	812.548	615.119
391.175	19.703	812.174	615.516
392.190	19.492	811.554	614.243
393.205	19.539	811.054	613.976
394.219	19.441	811.061	613.579
395.234	19.400	810.229	612.748
396.248	19.319	810.039	612.263
397.263	19.297	809.395	611.644
398.278	19.418	808.652	611.458
399.292	19.312	808.974	611.272
400.307	19.340	808.334	610.835
401.321	19.306	807.521	610.044
402.336	19.355	807.568	610.200
403.350	19.451	807.282	610.269
404.365	19.525	806.974	610.245
405.380	19.724	805.861	610.051
406.394	19.745	805.486	609.786
407.409	19.762	804.908	609.355
408.423	19.765	805.196	609.530
409.438	19.985	804.295	609.567
410.453	19.720	804.469	608.712
411.467	19.956	803.647	608.867
412.482	19.897	803.509	608.500
413.496	19.987	803.223	608.548
414.511	20.007	802.720	608.182
415.526	19.874	802.030	607.140
416.540	19.967	801.620	607.100
417.555	20.081	801.377	607.262
418.569	20.020	801.115	606.798
419.584	20.082	800.537	606.522
420.599	20.073	799.625	605.745
421.613	160.102	1371.180	1794.737
422.628	138.940	1454.472	1794.853
