DTS Sentinel unit serial number:	SN413079Multiplexer serial number:	ORYXHardware model number:	OX4-SRSoftware version number:	ORYX F/W v4.00 Oryx Data Collector v3.7.2.0data status	okinstallation	princeton_trtdifferential loss correction	single-endedforward channel	channel 1reverse channel	N/Adate	2019/09/13time	20:18:35forward acquisition time	60.00reverse acquisition time	0.00gamma	496.2192k internal	0.2330k external	0.2330temperature offset calibration	1.0086default loss term (dB/km)	0.3790temperature slope calibration	1.0000multiplexer offset coefficient	1.0000multiplexer slope coefficient	1.0000fibre end	0.00T internal ref (°C)	29.34T ext. ref 1 (°C)	3.20T ext. ref 2 (°C)	23.86length (m)	temperature (°C)	Stokes	anti-Stokes-747.200	128.706	0.043	0.056
-746.185	800.000	0.068	0.198
-745.171	800.000	0.091	-0.316
-744.156	-83.271	-0.095	0.031
-743.142	286.382	-0.089	0.161
-742.127	-200.000	-0.042	0.336
-741.112	-200.000	-0.038	0.269
-740.098	-70.331	-0.437	0.167
-739.083	-121.366	0.132	0.022
-738.069	-64.088	-0.133	0.055
-737.054	-48.591	0.122	-0.059
-736.039	-100.928	-0.246	-0.061
-735.025	-24.030	0.127	0.076
-734.010	-36.353	-0.089	0.048
-732.996	-33.838	-0.212	-0.118
-731.981	-200.000	-0.046	0.441
-730.966	-47.794	0.104	0.051
-729.952	-200.000	-0.019	-0.273
-728.937	37.583	0.064	0.057
-727.923	800.000	-0.097	0.279
-726.908	-114.935	-0.149	0.028
-725.894	-156.976	0.186	-0.011
-724.879	226.569	0.063	0.103
-723.864	-143.790	0.183	-0.017
-722.850	-200.000	-0.054	-0.295
-721.835	-200.000	0.047	-0.260
-720.821	38.393	-0.278	0.249
-719.806	-84.669	-0.136	-0.043
-718.791	120.375	0.160	0.200
-717.777	-200.000	-0.039	0.291
-716.762	-109.889	-0.284	-0.060
-715.748	-62.956	0.439	-0.182
-714.733	94.806	0.214	-0.244
-713.718	158.482	0.172	-0.240
-712.704	331.641	0.087	-0.170
-711.689	9.409	0.345	0.262
-710.675	800.000	-0.045	-0.170
-709.660	-77.711	0.078	0.027
-708.645	125.349	-0.223	0.282
-707.631	-46.103	-0.354	-0.175
-706.616	-88.407	-0.217	0.065
-705.602	-200.000	-0.026	0.320
-704.587	-200.000	-0.006	0.256
-703.572	83.152	-0.020	-0.022
-702.558	-200.000	0.062	0.342
-701.543	-200.000	0.000	0.099
-700.529	-76.758	-0.278	-0.098
-699.514	219.624	0.073	-0.117
-698.499	-5.788	-0.173	-0.119
-697.485	132.018	0.171	-0.221
-696.470	-170.965	0.257	-0.009
-695.456	75.930	0.009	-0.009
-694.441	-102.729	-0.238	-0.057
-693.426	-200.000	-0.031	-0.266
-692.412	-27.650	0.043	0.025
-691.397	69.081	-0.218	0.225
-690.383	-128.686	-0.217	0.031
-689.368	630.601	0.063	0.161
-688.354	-93.307	-0.155	0.043
-687.339	-163.455	0.189	0.009
-686.324	-164.574	-0.159	0.007
-685.310	-61.729	0.095	0.040
-684.295	523.452	-0.069	-0.163
-683.281	287.960	-0.028	-0.050
-682.266	194.750	0.126	-0.192
-681.251	-200.000	-0.002	-0.225
-680.237	-200.000	0.035	-0.314
-679.222	1.179	-0.236	0.170
-678.208	37.610	-0.241	0.215
-677.193	-173.359	0.108	-0.003
-676.178	-118.945	-0.139	0.024
-675.164	-103.234	-0.186	-0.044
-674.149	539.129	0.088	0.209
-673.135	10.364	0.060	-0.046
-672.120	-200.000	0.043	-0.289
-671.105	74.663	0.065	-0.069
-670.091	-200.000	-0.010	0.205
-669.076	-160.943	-0.298	0.016
-668.062	-151.388	0.284	0.021
-667.047	-132.836	0.248	0.032
-666.032	0.046	-0.082	-0.059
-665.018	43.511	0.116	-0.107
-664.003	-64.935	0.084	0.034
-662.989	-18.039	0.247	-0.155
-661.974	-98.015	0.104	0.027
-660.959	122.090	-0.157	0.196
-659.945	134.493	0.095	-0.124
-658.930	-200.000	0.011	-0.257
-657.916	-200.000	0.003	0.260
-656.901	427.674	0.085	0.184
-655.886	800.000	-0.056	0.229
-654.872	6.652	-0.144	-0.107
-653.857	-150.989	0.463	-0.035
-652.843	-200.000	0.023	0.372
-651.828	-78.630	-0.146	-0.050
-650.814	-69.257	-0.316	-0.122
-649.799	678.405	-0.026	-0.069
-648.784	-200.000	0.028	-0.142
-647.770	-200.000	-0.019	-0.216
-646.755	800.000	-0.049	0.181
-645.741	-166.816	-0.342	-0.014
-644.726	-200.000	-0.061	-0.353
-643.711	-200.000	0.047	-0.330
-642.697	765.292	0.020	0.055
-641.682	67.853	-0.122	-0.125
-640.668	166.294	-0.056	-0.079
-639.653	149.093	0.068	0.093
-638.638	-52.059	0.114	0.053
-637.624	43.872	0.122	0.112
-636.609	298.560	0.075	-0.139
-635.595	-200.000	0.017	-0.356
-634.580	269.090	0.072	0.126
-633.565	366.726	0.086	0.173
-632.551	-85.009	-0.232	-0.073
-631.536	-62.229	0.132	-0.055
-630.522	-48.637	-0.054	-0.026
-629.507	-99.321	0.133	0.034
-628.492	-36.707	-0.227	0.122
-627.478	800.000	-0.059	0.213
-626.463	-200.000	0.205	-0.000
-625.449	59.277	-0.086	0.085
-624.434	-200.000	-0.006	-0.102
-623.419	-200.000	0.012	0.343
-622.405	-146.924	-0.277	0.024
-621.390	-200.000	-0.021	0.153
-620.376	-77.301	-0.287	-0.100
-619.361	800.000	0.085	-0.268
-618.346	-76.817	0.163	0.057
-617.332	-98.134	-0.124	0.032
-616.317	136.055	-0.041	0.053
-615.303	800.000	0.115	0.359
-614.288	-6.532	-0.203	-0.138
-613.273	-136.101	0.110	0.013
-612.259	1.103	0.063	0.045
-611.244	800.000	-0.042	0.117
-610.230	253.060	-0.166	-0.284
-609.215	-200.000	-0.011	-0.385
-608.201	-200.000	-0.033	0.286
-607.186	-106.707	0.178	-0.040
-606.171	183.361	0.108	-0.159
-605.157	-200.000	-0.010	-0.115
-604.142	611.533	-0.081	0.203
-603.128	300.740	-0.040	-0.075
-602.113	800.000	-0.046	-0.184
-601.098	238.673	-0.077	0.129
-600.084	-94.736	-0.288	0.078
-599.069	-200.000	-0.023	-0.348
-598.055	728.590	0.081	-0.217
-597.040	45.793	0.097	-0.090
-596.025	-26.122	0.081	0.047
-595.011	-169.162	0.165	-0.006
-593.996	21.987	0.109	0.089
-592.982	-200.000	-0.029	-0.137
-591.967	-51.657	0.190	-0.089
-590.952	-81.863	-0.210	0.069
-589.938	-200.000	-0.006	0.186
-588.923	142.196	0.125	0.167
-587.909	234.707	0.158	-0.260
-586.894	-41.078	0.060	-0.031
-585.879	-200.000	-0.049	-0.235
-584.865	206.337	-0.182	-0.283
-583.850	-111.198	0.052	-0.011
-582.836	573.673	-0.108	-0.264
-581.821	25.426	0.195	-0.162
-580.806	-200.000	-0.009	0.068
-579.792	57.589	-0.063	-0.062
-578.777	50.907	0.192	0.182
-577.763	-152.900	-0.252	-0.018
-576.748	143.306	-0.214	0.285
-575.733	65.590	-0.075	-0.076
-574.719	-9.791	-0.091	0.061
-573.704	-121.224	0.383	-0.064
-572.690	5.703	-0.265	-0.196
-571.675	-33.783	0.042	-0.023
-570.661	-84.776	0.257	0.081
-569.646	-83.455	0.061	-0.019
-568.631	88.791	0.265	0.295
-567.617	617.194	0.087	0.219
-566.602	-200.000	0.002	0.223
-565.588	-140.725	-0.368	0.038
-564.573	800.000	0.050	-0.210
-563.558	70.222	0.148	-0.153
-562.544	-70.091	-0.359	0.137
-561.529	225.462	0.084	0.135
-560.515	309.866	-0.089	-0.166
-559.500	-109.932	-0.302	0.063
-558.485	245.456	0.009	-0.015
-557.471	160.296	-0.138	-0.193
-556.456	297.898	-0.287	-0.528
-555.442	152.534	0.138	0.188
-554.427	-121.885	0.281	0.046
-553.412	-69.304	-0.597	0.229
-552.398	-200.000	-0.002	-0.294
-551.383	-95.805	0.051	-0.014
-550.369	-200.000	-0.009	-0.159
-549.354	-200.000	0.036	-0.191
-548.339	-200.000	-0.061	-0.272
-547.325	-154.495	-0.107	-0.007
-546.310	-31.362	-0.139	-0.078
-545.296	-200.000	-0.102	0.471
-544.281	2.144	-0.269	0.194
-543.266	-157.308	-0.276	-0.017
-542.252	-200.000	0.137	-0.000
-541.237	-38.601	0.456	0.240
-540.223	-46.027	-0.363	-0.179
-539.208	56.670	-0.175	0.171
-538.193	-200.000	-0.027	0.274
-537.179	575.151	-0.094	0.230
-536.164	-82.585	0.422	0.137
-535.150	-102.585	0.147	0.035
-534.135	-17.137	-0.272	0.171
-533.121	25.283	0.302	0.251
-532.106	171.835	-0.082	0.118
-531.091	800.000	0.111	0.323
-530.077	-11.989	-0.130	0.085
-529.062	-7.258	-0.234	0.158
-528.048	-17.980	-0.046	0.029
-527.033	181.245	-0.044	0.065
-526.018	-112.337	0.300	-0.060
-525.004	-137.061	-0.224	0.026
-523.989	-2.426	-0.228	-0.160
-522.975	-143.426	-0.124	0.012
-521.960	-67.159	0.166	-0.065
-520.945	472.648	-0.097	-0.219
-519.931	-92.124	-0.235	0.066
-518.916	701.284	-0.095	-0.248
-517.902	-36.605	-0.182	-0.098
-516.887	-88.191	-0.281	-0.084
-515.872	-92.707	0.069	-0.019
-514.858	-96.833	-0.070	0.018
-513.843	28.180	-0.142	-0.120
-512.829	-11.614	0.092	-0.061
-511.814	800.000	0.037	0.123
-510.799	-120.104	-0.529	0.090
-509.785	339.344	0.057	-0.111
-508.770	92.841	0.048	0.055
-507.756	-182.861	0.060	-0.001
-506.741	-200.000	0.001	-0.433
-505.726	33.712	-0.038	-0.033
-504.712	-200.000	-0.064	0.295
-503.697	310.454	0.036	0.067
-502.683	156.955	-0.163	-0.225
-501.668	-116.959	-0.296	-0.054
-500.653	-200.000	0.058	-0.269
-499.639	-200.000	-0.047	0.261
-498.624	-68.716	0.176	-0.068
-497.610	-108.116	-0.158	-0.034
-496.595	-61.796	0.171	-0.072
-495.581	-38.712	0.109	-0.058
-494.566	-185.317	-0.436	-0.007
-493.551	-93.142	-0.165	0.046
-492.537	372.477	0.069	0.139
-491.522	-125.051	0.073	0.011
-490.508	30.575	0.159	0.136
-489.493	-8.407	-0.184	0.123
-488.478	409.367	-0.169	-0.357
-487.464	-200.000	-0.048	-0.222
-486.449	353.504	0.110	-0.218
-485.435	-27.245	-0.116	0.068
-484.420	91.764	0.160	0.179
-483.405	57.019	0.192	-0.186
-482.391	-25.963	0.148	0.087
-481.376	800.000	0.045	0.166
-480.362	48.553	0.091	0.085
-479.347	-126.548	-0.013	-0.002
-478.332	444.919	-0.090	-0.197
-477.318	134.759	0.263	-0.340
-476.303	-69.571	0.083	0.032
-475.289	-69.977	-0.392	-0.149
-474.274	-83.651	-0.442	-0.141
-473.259	-65.988	0.194	0.077
-472.245	93.557	0.196	0.221
-471.230	-200.000	-0.070	0.359
-470.216	-100.634	0.175	0.043
-469.201	35.009	-0.161	-0.140
-468.186	86.721	-0.183	-0.201
-467.172	196.378	-0.100	0.151
-466.157	-66.218	-0.158	-0.063
-465.143	75.135	0.129	-0.136
-464.128	255.419	0.210	-0.358
-463.113	800.000	-0.049	0.140
-462.099	109.029	0.291	-0.347
-461.084	-100.979	-0.161	0.039
-460.070	800.000	0.022	-0.069
-459.055	71.426	-0.123	-0.127
-458.040	-43.626	0.141	0.071
-457.026	40.180	-0.224	0.200
-456.011	393.795	0.039	-0.081
-454.997	1.472	0.230	-0.165
-453.982	189.811	-0.087	-0.129
-452.968	306.307	-0.086	0.160
-451.953	713.660	0.045	0.120
-450.938	15.728	0.045	0.035
-449.924	800.000	0.067	-0.276
-448.909	743.835	0.106	-0.285
-447.895	-22.952	-0.061	0.037
-446.880	800.000	-0.054	0.170
-445.865	210.699	0.186	0.291
-444.851	-200.000	-0.042	0.333
-443.836	154.286	0.157	-0.214
-442.822	-200.000	-0.014	0.123
-441.807	110.674	0.075	-0.090
-440.792	-200.000	0.015	0.161
-439.778	-166.480	-0.296	0.012
-438.763	-128.412	0.362	-0.051
-437.749	-200.000	0.052	-0.304
-436.734	654.125	0.105	-0.267
-435.719	-37.703	0.399	0.211
-434.705	-3.488	0.062	0.043
-433.690	-200.000	0.014	-0.154
-432.676	-110.809	-0.128	-0.026
-431.661	-116.642	-0.472	-0.086
-430.646	217.270	0.139	-0.220
-429.632	-200.000	0.002	0.214
-428.617	-29.009	0.157	0.090
-427.603	-30.837	-0.130	-0.073
-426.588	-200.000	-0.038	-0.180
-425.573	611.587	0.077	0.193
-424.559	-200.000	-0.008	0.403
-423.544	-13.488	0.261	0.168
-422.530	-113.506	-0.085	-0.017
-421.515	-69.059	-0.214	0.082
-420.500	51.449	0.107	0.101
-419.486	701.703	0.061	0.160
-418.471	85.005	-0.043	-0.047
-417.457	-200.000	0.044	-0.203
-416.442	78.387	-0.323	0.343
-415.428	15.135	0.337	-0.262
-414.413	-79.328	-0.124	-0.042
-413.398	27.808	0.200	0.167
-412.384	-90.145	0.197	-0.057
-411.369	-129.499	0.246	-0.034
-410.355	28.355	-0.184	-0.154
-409.340	-56.190	0.284	0.126
-408.325	-105.692	0.075	-0.017
-407.311	-120.047	-0.157	-0.027
-406.296	76.188	0.191	0.201
-405.282	217.541	0.143	-0.227
-404.267	89.011	0.123	0.136
-403.252	-200.000	0.007	0.504
-402.238	196.613	0.199	0.301
-401.223	110.533	0.158	0.189
-400.209	-133.414	0.230	-0.029
-399.194	-97.173	0.071	-0.018
-398.179	93.656	0.162	-0.182
-397.165	-169.724	-0.344	-0.012
-396.150	-200.000	0.020	0.154
-395.136	800.000	-0.075	-0.291
-394.121	-153.125	0.066	-0.005
-393.106	-125.038	-0.338	0.052
-392.092	-56.867	-0.318	-0.139
-391.077	-85.861	0.269	-0.083
-390.063	60.582	-0.157	-0.154
-389.048	347.828	0.054	-0.106
-388.033	-7.808	-0.166	-0.111
-387.019	-140.742	-0.191	-0.020
-386.004	-200.000	0.011	0.219
-384.990	-125.108	0.151	-0.023
-383.975	239.717	-0.144	-0.237
-382.960	107.782	0.239	0.282
-381.946	-92.051	0.040	-0.011
-380.931	-200.000	-0.012	0.057
-379.917	58.604	0.159	0.155
-378.902	324.589	-0.063	-0.120
-377.888	-128.885	0.148	-0.021
-376.873	800.000	0.085	0.364
-375.858	-4.189	0.108	-0.074
-374.844	451.699	-0.054	0.117
-373.829	-200.000	0.029	0.174
-372.815	167.719	-0.150	-0.211
-371.800	-200.000	-0.050	0.328
-370.785	800.000	0.079	0.272
-369.771	-10.191	-0.127	0.084
-368.756	-74.771	0.515	-0.183
-367.742	-39.864	-0.176	-0.091
-366.727	-200.000	0.089	-0.439
-365.712	-109.093	-0.191	-0.040
-364.698	-74.151	-0.335	0.120
-363.683	800.000	-0.069	0.192
-362.669	-158.119	0.210	-0.012
-361.654	-164.709	-0.230	-0.010
-360.639	126.499	0.192	0.242
-359.625	-105.510	-0.250	0.056
-358.610	-166.243	-0.212	0.009
-357.596	-200.000	0.038	0.187
-356.581	-72.238	-0.117	0.043
-355.566	-53.329	0.246	-0.112
-354.552	-200.000	-0.057	-0.250
-353.537	11.534	-0.093	-0.071
-352.523	800.000	-0.016	-0.060
-351.508	579.844	-0.032	-0.078
-350.493	0.373	0.293	0.208
-349.479	-122.768	0.266	-0.043
-348.464	-67.929	-0.182	0.071
-347.450	-54.415	-0.063	0.028
-346.435	-87.779	-0.380	-0.113
-345.420	-200.000	0.038	-0.568
-344.406	625.638	0.088	-0.220
-343.391	-73.991	0.219	-0.079
-342.377	-38.207	0.206	-0.108
-341.362	-130.294	0.123	-0.017
-340.348	-67.946	-0.175	-0.068
-339.333	84.170	0.204	0.221
-338.318	334.217	-0.146	0.281
-337.304	-200.000	-0.013	0.060
-336.289	431.938	-0.063	0.135
-335.275	-200.000	-0.014	-0.181
-334.260	-69.236	0.201	0.076
-333.245	-75.766	-0.214	-0.075
-332.231	244.310	0.115	0.191
-331.216	110.360	0.199	0.237
-330.202	131.207	-0.204	-0.259
-329.187	-200.000	-0.008	-0.151
-328.172	58.701	0.086	0.084
-327.158	36.613	-0.108	0.095
-326.143	-200.000	0.013	0.270
-325.129	-27.760	-0.132	0.076
-324.114	800.000	-0.040	-0.111
-323.099	-84.333	-0.381	0.119
-322.085	-200.000	0.024	0.239
-321.070	-200.000	-0.029	-0.194
-320.056	340.689	-0.051	-0.100
-319.041	279.836	0.099	-0.174
-318.026	86.854	0.144	-0.158
-317.012	10.676	0.111	0.084
-315.997	800.000	-0.092	0.290
-314.983	48.804	0.155	0.144
-313.968	-55.795	0.143	-0.063
-312.953	-200.000	-0.003	-0.118
-311.939	-200.000	0.068	-0.350
-310.924	-200.000	-0.026	0.420
-309.910	-37.517	0.227	-0.120
-308.895	800.000	-0.085	0.263
-307.880	373.062	-0.125	0.252
-306.866	-51.340	-0.130	0.060
-305.851	-5.877	0.012	-0.008
-304.837	345.877	-0.031	-0.060
-303.822	451.690	0.067	-0.146
-302.807	79.421	-0.144	0.152
-301.793	94.979	0.080	0.090
-300.778	-200.000	-0.035	-0.170
-299.764	-200.000	0.012	-0.065
-298.749	-200.000	0.001	-0.295
-297.735	-69.160	0.108	0.041
-296.720	2.544	-0.086	-0.062
-295.705	-200.000	0.003	0.029
-294.691	-200.000	-0.005	-0.137
-293.676	-164.750	0.051	-0.002
-292.662	-200.000	0.010	0.164
-291.647	309.050	0.080	-0.148
-290.632	800.000	0.092	0.257
-289.618	316.919	0.132	0.247
-288.603	371.663	-0.081	0.163
-287.589	498.539	-0.093	0.211
-286.574	-127.512	-0.065	0.009
-285.559	-6.523	0.059	-0.040
-284.545	43.784	0.141	-0.127
-283.530	-58.944	-0.207	0.089
-282.516	-200.000	-0.015	-0.203
-281.501	800.000	-0.065	-0.180
-280.486	800.000	0.137	-0.406
-279.472	94.239	-0.086	0.097
-278.457	-34.382	0.197	0.107
-277.443	81.191	0.246	-0.263
-276.428	201.943	-0.087	0.133
-275.413	543.508	-0.069	-0.163
-274.399	21.670	0.354	-0.285
-273.384	25.304	0.212	-0.174
-272.370	-13.374	-0.182	0.117
-271.355	-39.783	-0.200	-0.103
-270.340	-66.576	0.310	-0.122
-269.326	53.536	0.076	0.072
-268.311	-200.000	-0.030	0.305
-267.297	800.000	0.025	0.077
-266.282	371.817	-0.154	-0.310
-265.267	-200.000	0.025	-0.116
-264.253	56.920	0.082	-0.079
-263.238	51.108	-0.276	-0.259
-262.224	246.917	0.180	0.301
-261.209	-40.203	0.304	0.157
-260.195	-120.447	0.116	0.019
-259.180	78.541	-0.094	-0.100
-258.165	86.638	0.057	-0.062
-257.151	105.846	0.209	0.244
-256.136	112.896	0.036	-0.043
-255.122	-140.482	-0.203	-0.021
-254.107	-200.000	0.003	0.113
-253.092	134.468	0.191	0.245
-252.078	-142.531	0.043	0.004
-251.063	-150.138	-0.418	0.032
-250.049	-200.000	0.001	-0.193
-249.034	-200.000	-0.021	0.142
-248.019	-4.064	0.258	0.177
-247.005	-73.747	-0.261	-0.094
-245.990	-136.039	0.217	0.025
-244.976	274.450	-0.103	-0.180
-243.961	500.633	0.136	0.309
-242.946	-200.000	0.073	-0.490
-241.932	-136.139	-0.288	-0.033
-240.917	506.614	0.111	-0.255
-239.903	-148.642	0.233	-0.019
-238.888	339.658	0.051	-0.098
-237.873	-105.356	0.335	0.075
-236.859	37.889	-0.213	0.187
-235.844	-10.088	-0.059	-0.039
-234.830	11.946	0.169	0.128
-233.815	24.235	-0.343	-0.279
-232.800	590.998	0.134	0.327
-231.786	540.516	-0.081	0.190
-230.771	211.239	0.070	0.108
-229.757	795.633	-0.029	-0.080
-228.742	218.361	-0.068	0.107
-227.727	-22.819	0.132	-0.079
-226.713	-169.584	0.111	0.004
-225.698	63.011	0.281	-0.277
-224.684	-59.324	0.473	-0.201
-223.669	98.452	0.176	-0.200
-222.655	-200.000	0.081	0.455
-221.640	-95.158	0.089	0.024
-220.625	-200.000	-0.099	0.457
-219.611	557.562	0.186	0.441
-218.596	-200.000	0.004	-0.187
-217.582	-160.248	-0.178	0.009
-216.567	-127.474	-0.072	-0.010
-215.552	800.000	0.032	0.103
-214.538	70.119	-0.108	0.110
-213.523	126.662	0.190	-0.237
-212.509	-94.293	-0.082	-0.022
-211.494	-110.748	0.170	0.035
-210.479	-154.310	-0.346	0.023
-209.465	-200.000	-0.043	-0.210
-208.450	-83.899	-0.238	-0.075
-207.436	214.018	0.051	-0.079
-206.421	-176.156	-0.350	-0.009
-205.406	102.342	0.108	0.125
-204.392	800.000	-0.037	0.115
-203.377	-106.821	-0.198	0.043
-202.363	-140.004	0.282	-0.029
-201.348	-200.000	0.030	0.230
-200.333	126.870	0.339	-0.424
-199.319	-200.000	-0.032	-0.156
-198.304	164.766	0.071	0.099
-197.290	-200.000	0.049	0.269
-196.275	157.000	0.135	0.184
-195.260	-99.575	-0.350	-0.087
-194.246	255.171	0.150	0.253
-193.231	37.795	-0.134	0.117
-192.217	340.092	0.155	0.299
-191.202	373.342	-0.152	0.305
-190.187	-117.741	0.165	-0.029
-189.173	-136.232	-0.424	0.049
-188.158	40.016	-0.193	0.170
-187.144	-165.248	0.216	-0.009
-186.129	-51.474	-0.066	-0.030
-185.114	-142.041	0.165	-0.016
-184.100	-200.000	-0.004	-0.296
-183.085	73.926	0.149	-0.154
-182.071	-200.000	0.025	0.112
-181.056	112.874	-0.099	0.119
-180.042	0.156	-0.325	0.228
-179.027	-200.000	0.023	-0.283
-178.012	-61.841	0.300	-0.124
-176.998	800.000	0.030	-0.096
-175.983	141.570	0.231	-0.301
-174.969	-200.000	-0.039	0.171
-173.954	228.731	0.157	0.251
-172.939	800.000	-0.060	-0.245
-171.925	67.530	-0.115	0.116
-170.910	171.768	-0.178	0.252
-169.896	176.861	0.245	-0.350
-168.881	388.482	0.073	-0.149
-167.866	296.046	-0.055	-0.100
-166.852	-94.736	0.175	0.047
-165.837	-200.000	0.017	-0.096
-164.823	111.325	0.148	-0.175
-163.808	-105.882	-0.236	-0.052
-162.793	-157.630	0.286	-0.017
-161.779	215.142	-0.087	0.136
-160.764	173.014	-0.127	-0.181
-159.750	-87.733	0.247	0.073
-158.735	-147.579	0.091	0.008
-157.720	68.126	-0.183	0.185
-156.706	122.935	0.088	0.108
-155.691	243.404	-0.132	0.217
-154.677	6.921	-0.095	-0.069
-153.662	-18.085	0.038	-0.023
-152.647	-200.000	-0.018	0.232
-151.633	-158.562	-0.246	-0.014
-150.618	-43.630	0.198	0.098
-149.604	-200.000	0.005	0.234
-148.589	-20.113	-0.123	0.075
-147.574	122.211	0.065	-0.080
-146.560	251.468	0.025	0.042
-145.545	-106.404	-0.225	-0.049
-144.531	-8.247	0.119	-0.079
-143.516	21.027	-0.047	-0.037
-142.502	-200.000	0.037	0.435
-141.487	-200.000	0.039	0.280
-140.472	-97.767	0.200	-0.051
-139.458	-27.961	-0.221	0.126
-138.443	-177.418	0.331	0.008
-137.429	-60.744	0.127	-0.053
-136.414	170.162	-0.124	-0.174
-135.399	-200.000	-0.056	0.381
-134.385	-47.844	-0.140	-0.067
-133.370	-97.070	-0.159	-0.041
-132.356	-42.549	0.236	0.118
-131.341	-175.180	0.230	-0.006
-130.326	-89.633	-0.296	-0.085
-129.312	-200.000	0.004	0.071
-128.297	-136.942	0.226	-0.025
-127.283	-14.397	0.184	-0.116
-126.268	189.379	-0.092	0.135
-125.253	-43.735	0.416	0.206
-124.239	85.035	-0.048	-0.051
-123.224	38.839	0.071	0.062
-122.210	10.570	-0.066	0.049
-121.195	-18.317	-0.193	-0.118
-120.180	-23.118	0.399	0.236
-119.166	58.187	-0.039	0.038
-118.151	182.442	0.126	0.182
-117.137	186.448	0.119	-0.174
-116.122	-42.691	0.135	0.068
-115.107	-200.000	-0.008	0.124
-114.093	108.238	0.236	0.276
-113.078	87.831	-0.076	0.082
-112.064	-192.573	0.274	0.002
-111.049	-131.332	-0.177	-0.023
-110.034	-92.884	0.387	0.106
-109.020	114.968	-0.089	-0.106
-108.005	-200.000	-0.129	0.555
-106.991	214.972	0.074	-0.115
-105.976	58.846	-0.108	-0.104
-104.962	-44.212	0.158	0.078
-103.947	-200.000	-0.026	0.231
-102.932	129.878	-0.106	-0.134
-101.918	-124.818	0.204	-0.031
-100.903	-16.031	-0.369	0.230
-99.889	-152.523	0.181	0.013
-98.874	266.785	0.136	0.234
-97.859	164.972	0.069	-0.096
-96.845	183.842	0.193	0.281
-95.830	-40.944	-0.574	0.291
-94.816	200.635	0.098	0.148
-93.801	-11.709	0.137	-0.088
-92.786	-200.000	-0.005	0.241
-91.772	176.235	-0.194	0.277
-90.757	10.347	0.156	0.117
-89.743	-192.789	-0.279	0.002
-88.728	163.496	0.120	-0.165
-87.713	800.000	0.075	0.297
-86.699	-96.648	-0.118	-0.030
-85.684	-200.000	0.023	0.284
-84.670	736.889	0.105	0.277
-83.655	-47.780	0.129	-0.061
-82.640	5.022	-0.055	0.040
-81.626	339.603	0.151	0.290
-80.611	2.800	-0.290	0.207
-79.597	29.380	0.088	-0.073
-78.582	112.539	-0.095	0.113
-77.567	56.280	-0.331	0.316
-76.553	-61.413	0.217	-0.089
-75.538	245.893	0.105	0.174
-74.524	87.675	-0.018	0.019
-73.509	-200.000	-0.074	0.493
-72.494	800.000	0.040	-0.142
-71.480	354.024	0.145	0.283
-70.465	144.610	0.052	-0.068
-69.451	-200.000	0.011	-0.222
-68.436	-140.908	-0.218	-0.022
-67.422	-118.447	-0.071	0.012
-66.407	-200.000	0.035	0.302
-65.392	-46.486	-0.308	-0.148
-64.378	-72.916	0.049	0.018
-63.363	65.825	0.062	-0.062
-62.349	-118.675	-0.198	-0.034
-61.334	83.483	-1.120	-1.197
-60.319	68.216	0.748	0.751
-59.305	800.000	-0.293	-0.979
-58.290	199.771	0.732	1.101
-57.276	800.000	0.491	1.375
-56.261	-200.000	110.760	625.359
-55.246	519.602	1508.009	3463.629
-54.232	178.016	2688.053	3843.523
-53.217	111.640	2151.121	2544.152
-52.203	40.886	1599.303	1414.512
-51.188	32.951	1340.941	1138.358
-50.173	29.794	1301.292	1086.149
-49.159	54.575	1357.041	1281.981
-48.144	54.577	1372.359	1296.414
-47.130	32.917	1326.287	1125.536
-46.115	29.497	1308.573	1090.301
-45.100	29.402	1303.352	1085.349
-44.086	29.117	1301.789	1082.328
-43.071	29.123	1298.939	1079.951
-42.057	29.107	1296.750	1077.998
-41.042	29.264	1294.574	1077.060
-40.027	29.108	1293.792	1075.458
-39.013	29.235	1291.354	1074.126
-37.998	29.304	1289.533	1072.971
-36.984	29.402	1287.608	1071.897
-35.969	29.274	1286.086	1069.847
-34.954	29.337	1284.322	1068.700
-33.940	29.264	1283.662	1067.686
-32.925	29.358	1282.439	1067.168
-31.911	29.516	1279.959	1065.978
-30.896	29.531	1278.894	1065.133
-29.881	29.445	1277.573	1063.493
-28.867	29.531	1276.116	1062.734
-27.852	29.469	1274.348	1060.862
-26.838	29.452	1273.539	1060.051
-25.823	29.418	1272.172	1058.677
-24.809	29.416	1270.641	1057.349
-23.794	29.403	1269.879	1056.599
-22.779	29.399	1268.197	1055.136
-21.765	29.456	1267.138	1054.539
-20.750	29.406	1265.442	1052.798
-19.736	29.337	1264.117	1051.262
-18.721	29.397	1262.895	1050.545
-17.706	29.220	1262.561	1049.217
-16.692	29.225	1261.306	1048.163
-15.677	29.314	1259.845	1047.412
-14.663	29.374	1258.332	1046.450
-13.648	29.351	1257.947	1045.959
-12.633	29.285	1257.097	1044.837
-11.619	29.200	1256.495	1043.813
-10.604	29.304	1255.225	1043.309
-9.590	29.147	1254.747	1041.981
-8.575	29.366	1252.434	1041.253
-7.560	29.319	1252.118	1040.688
-6.546	29.236	1251.769	1039.886
-5.531	29.224	1250.603	1038.809
-4.517	29.205	1250.020	1038.176
-3.502	29.276	1249.126	1037.789
-2.487	29.224	1247.936	1036.470
-1.473	29.238	1243.868	1033.125
-0.458	27.569	1228.141	1010.779
0.556	24.220	1210.527	971.013
1.571	20.197	1215.158	952.589
2.586	19.126	1229.630	957.895
3.600	18.609	1217.541	945.543
4.615	14.017	1147.470	867.143
5.629	6.613	1074.961	775.967
6.644	3.386	1056.955	747.269
7.659	3.223	1054.167	744.443
8.673	3.044	1053.590	743.106
9.688	3.168	1051.964	742.495
10.702	3.432	1049.778	742.153
11.717	7.479	1055.244	765.504
12.731	15.125	1066.546	810.784
13.746	19.601	1071.436	836.147
14.761	19.994	1071.825	838.282
15.775	19.172	1070.029	832.826
16.790	18.174	1067.753	826.166
17.804	17.475	1066.409	821.677
18.819	17.178	1065.606	819.553
19.834	17.028	1064.645	818.018
20.848	16.968	1063.740	816.963
21.863	16.724	1063.265	815.352
22.877	16.569	1062.866	814.226
23.892	16.597	1061.707	813.403
24.907	16.568	1060.854	812.538
25.921	16.603	1059.574	811.652
26.936	16.524	1058.861	810.653
27.950	16.601	1057.394	809.830
28.965	16.742	1055.840	809.240
29.980	16.860	1054.409	808.638
30.994	16.895	1053.285	807.869
32.009	16.991	1052.132	807.373
33.023	16.818	1051.578	806.052
34.038	16.685	1050.405	804.447
35.053	16.833	1049.179	804.141
36.067	16.617	1048.867	802.805
37.082	16.687	1048.300	802.630
38.096	16.903	1047.174	802.721
39.111	16.813	1046.520	801.725
40.126	16.686	1045.168	800.016
41.140	16.344	1044.196	797.590
42.155	16.388	1042.442	796.385
43.169	16.244	1041.598	794.992
44.184	16.354	1040.501	794.599
45.199	16.305	1039.279	793.369
46.213	16.404	1038.691	793.314
47.228	16.645	1037.481	793.449
48.242	16.664	1036.888	793.012
49.257	16.681	1036.051	792.382
50.271	16.789	1034.792	791.856
51.286	16.811	1034.362	791.558
52.301	16.669	1033.466	790.141
53.315	16.688	1032.196	789.187
54.330	16.479	1031.121	787.321
55.344	16.483	1030.222	786.587
56.359	16.515	1029.709	786.272
57.374	16.334	1029.035	784.846
58.388	16.385	1027.859	784.119
59.403	16.340	1026.790	783.025
60.417	16.318	1025.982	782.238
61.432	16.236	1025.149	781.156
62.447	16.244	1024.339	780.506
63.461	16.084	1024.105	779.516
64.476	16.096	1022.846	778.547
65.490	16.103	1022.063	777.911
66.505	16.230	1020.844	777.501
67.520	16.087	1021.021	776.907
68.534	16.280	1019.903	776.879
69.549	16.289	1019.078	776.223
70.563	16.227	1018.345	775.309
71.578	16.071	1017.223	773.670
72.593	15.973	1016.756	772.796
73.607	15.959	1016.338	772.345
74.622	16.043	1015.436	771.978
75.636	16.199	1014.823	772.160
76.651	16.245	1014.066	771.723
77.666	16.262	1013.426	771.246
78.680	16.075	1013.157	770.121
79.695	16.185	1012.508	770.059
80.709	16.100	1012.452	769.561
81.724	16.402	1011.509	770.155
82.739	16.464	1010.878	769.888
83.753	16.555	1010.501	769.947
84.768	16.881	1009.142	770.323
85.782	16.985	1008.316	770.096
86.797	16.886	1007.545	768.993
87.812	16.728	1006.514	767.419
88.826	16.639	1005.877	766.464
89.841	16.807	1004.639	766.214
90.855	16.988	1003.878	766.383
91.870	16.973	1003.219	765.745
92.884	16.855	1002.475	764.577
93.899	16.882	1001.352	763.774
94.914	16.873	1000.818	763.259
95.928	16.907	999.538	762.368
96.943	16.833	998.570	761.229
97.957	16.885	997.608	760.660
98.972	16.746	997.489	759.881
99.987	16.860	996.119	759.279
101.001	16.801	995.024	758.114
102.016	16.716	994.890	757.564
103.030	16.860	993.570	757.134
104.045	16.829	992.840	756.376
105.060	16.714	992.118	755.244
106.074	16.473	990.836	753.129
107.089	16.428	989.489	751.836
108.103	16.202	988.765	750.214
109.118	16.287	987.816	749.808
110.133	16.260	986.674	748.753
111.147	16.286	986.148	748.402
112.162	16.261	985.168	747.485
113.176	16.418	984.554	747.647
114.191	16.431	984.184	747.358
115.206	16.329	983.566	746.369
116.220	16.304	982.502	745.385
117.235	16.380	981.308	744.751
118.249	16.407	980.257	744.004
119.264	16.344	979.491	743.080
120.279	16.308	979.120	742.575
121.293	16.202	978.297	741.420
122.308	16.087	977.203	740.020
123.322	16.226	975.837	739.531
124.337	16.215	974.817	738.643
125.352	16.119	974.343	737.799
126.366	16.109	973.327	736.919
127.381	16.096	972.058	735.840
128.395	16.112	971.641	735.526
129.410	16.249	970.681	735.332
130.424	16.189	969.903	734.417
131.439	16.326	969.141	734.368
132.454	16.462	967.912	733.962
133.468	16.484	967.248	733.489
134.483	16.446	966.507	732.700
135.497	16.371	965.974	731.906
136.512	16.512	964.891	731.629
137.527	16.406	963.958	730.398
138.541	16.297	964.096	729.970
139.556	16.501	962.796	729.799
140.570	16.723	962.164	730.212
141.585	16.819	961.796	730.283
142.600	16.791	960.727	729.286
143.614	17.094	960.034	729.999
144.629	17.031	959.116	728.967
145.643	16.876	958.401	727.693
146.658	16.777	957.026	726.162
147.673	16.715	956.182	725.190
148.687	16.549	954.950	723.481
149.702	16.476	954.704	722.918
150.716	16.445	953.792	722.032
151.731	16.588	952.809	721.833
152.746	16.600	952.214	721.373
153.760	16.749	951.474	721.383
154.775	16.701	951.221	720.921
155.789	16.758	950.684	720.693
156.804	16.806	949.702	720.089
157.819	16.848	949.011	719.680
158.833	16.889	948.434	719.354
159.848	17.134	947.644	719.726
160.862	17.001	946.076	717.912
161.877	16.727	945.334	716.126
162.892	16.416	944.910	714.425
163.906	16.457	943.367	713.368
164.921	16.569	942.535	713.150
165.935	16.550	941.917	712.540
166.950	16.720	941.074	712.553
167.964	16.765	939.818	711.727
168.979	16.547	939.507	710.516
169.994	16.648	938.590	710.184
171.008	16.752	938.082	710.173
172.023	16.914	937.647	710.457
173.037	16.988	936.694	709.980
174.052	16.932	935.855	709.048
175.067	16.546	935.578	707.164
176.081	16.608	934.740	706.725
177.096	16.638	933.873	706.134
178.110	16.695	933.406	705.957
179.125	16.604	933.095	705.278
180.140	16.804	931.863	705.117
181.154	16.906	932.141	705.692
182.169	16.827	931.869	705.093
183.183	17.186	930.650	705.601
184.198	17.077	929.949	704.554
185.213	17.032	929.322	703.830
186.227	17.154	928.455	703.616
187.242	17.046	928.367	703.040
188.256	17.290	926.997	702.950
189.271	17.160	926.571	702.027
190.286	16.820	925.722	699.916
191.300	16.583	924.835	698.207
192.315	16.447	924.173	697.084
193.329	16.603	923.722	697.323
194.344	16.820	922.903	697.540
195.359	16.779	922.777	697.212
196.373	16.886	921.928	696.948
197.388	17.071	921.751	697.513
198.402	17.164	921.452	697.607
199.417	17.224	920.853	697.340
200.432	17.362	920.387	697.491
201.446	17.448	919.922	697.427
202.461	17.587	919.098	697.312
203.475	17.396	918.692	696.161
204.490	17.143	918.207	694.698
205.504	17.110	917.132	693.687
206.519	17.137	916.121	692.970
207.534	16.929	915.708	691.747
208.548	17.169	914.905	692.058
209.563	17.130	914.227	691.326
210.577	17.165	913.536	690.885
211.592	17.384	913.090	691.378
212.607	17.529	911.961	691.050
213.621	17.432	911.371	690.147
214.636	17.224	911.012	688.971
215.650	17.301	910.370	688.735
216.665	17.302	909.647	688.131
217.680	17.617	908.777	688.686
218.694	17.607	908.232	688.172
219.709	17.499	907.491	687.115
220.723	17.554	906.604	686.606
221.738	17.528	906.171	686.110
222.753	17.488	905.487	685.371
223.767	17.632	904.943	685.479
224.782	17.688	904.287	685.145
225.796	17.650	904.058	684.759
226.811	17.564	903.566	683.980
227.826	17.503	902.582	682.929
228.840	17.426	902.036	682.147
229.855	17.591	901.208	682.121
230.869	17.505	900.232	680.979
231.884	17.447	899.297	679.981
232.899	17.409	898.996	679.541
233.913	17.286	898.444	678.570
234.928	17.360	897.384	678.006
235.942	17.389	896.818	677.632
236.957	17.434	896.236	677.313
237.972	17.248	896.151	676.450
238.986	17.323	895.327	676.063
240.001	17.212	894.902	675.244
241.015	17.324	894.263	675.148
242.030	17.395	893.580	674.852
243.045	17.526	893.102	674.953
244.059	17.527	892.193	674.207
245.074	17.587	891.696	674.011
246.088	17.643	890.998	673.643
247.103	17.778	890.241	673.546
248.117	17.798	890.158	673.501
249.132	17.921	889.868	673.709
250.147	18.262	889.162	674.460
251.161	18.138	888.850	673.676
252.176	18.294	887.984	673.573
253.190	18.332	887.004	672.918
254.205	18.489	886.525	673.112
255.220	18.296	885.875	671.803
256.234	18.299	885.348	671.352
257.249	18.122	884.647	670.071
258.263	18.247	883.714	669.793
259.278	18.249	883.059	669.246
260.293	18.258	882.492	668.791
261.307	18.468	882.061	669.227
262.322	18.474	881.568	668.816
263.336	18.497	880.608	668.120
264.351	18.524	880.029	667.724
265.366	18.534	879.216	667.089
266.380	18.377	878.913	666.187
267.395	18.334	878.194	665.418
268.409	18.299	877.303	664.548
269.424	18.398	876.518	664.279
270.439	18.362	875.865	663.585
271.453	18.265	875.118	662.586
272.468	18.119	874.792	661.714
273.482	18.236	874.378	661.795
274.497	18.155	873.580	660.820
275.512	18.097	873.230	660.271
276.526	18.293	872.620	660.508
277.541	18.235	872.219	659.922
278.555	18.470	871.667	660.352
279.570	18.606	870.792	660.155
280.585	18.619	869.868	659.447
281.599	18.349	869.385	657.984
282.614	18.288	868.872	657.303
283.628	18.367	867.837	656.765
284.643	18.386	867.437	656.479
285.657	18.424	866.843	656.115
286.672	18.395	866.260	655.505
287.687	18.524	865.616	655.455
288.701	18.465	865.149	654.815
289.716	18.473	864.718	654.461
290.730	18.384	864.314	653.761
291.745	18.569	863.396	653.711
292.760	18.664	862.563	653.387
293.774	18.799	862.168	653.543
294.789	18.662	861.698	652.605
295.803	18.650	860.417	651.532
296.818	18.541	860.086	650.813
297.833	18.713	859.149	650.695
298.847	18.547	858.734	649.696
299.862	18.665	858.589	649.976
300.876	18.678	858.108	649.602
301.891	18.822	857.595	649.701
302.906	18.858	856.963	649.302
303.920	19.025	856.368	649.426
304.935	18.947	855.965	648.766
305.949	18.924	855.366	648.170
306.964	18.897	854.533	647.378
307.979	18.898	854.229	647.095
308.993	19.090	853.657	647.326
310.008	19.013	852.717	646.265
311.022	18.873	852.465	645.492
312.037	18.763	851.820	644.534
313.052	18.651	851.265	643.638
314.066	18.685	850.459	643.098
315.081	18.692	850.107	642.802
316.095	18.664	849.430	642.129
317.110	18.665	848.983	641.737
318.125	18.702	848.416	641.391
319.139	18.515	848.051	640.358
320.154	18.695	847.212	640.341
321.168	18.658	846.833	639.858
322.183	18.831	846.401	640.120
323.197	18.768	846.052	639.567
324.212	18.807	845.341	639.115
325.227	18.839	844.612	638.629
326.241	18.681	844.517	637.914
327.256	18.723	843.634	637.343
328.270	18.935	842.513	637.229
329.285	18.845	842.244	636.633
330.300	18.808	841.428	635.822
331.314	18.917	841.234	636.025
332.329	18.831	841.480	635.837
333.343	18.885	840.663	635.361
334.358	19.148	840.001	635.776
335.373	19.004	839.698	634.959
336.387	18.997	839.748	634.917
337.402	19.069	839.423	634.879
338.416	19.231	839.053	635.141
339.431	19.337	838.384	634.970
340.446	19.355	838.326	634.935
341.460	19.344	838.107	634.671
342.475	19.381	837.539	634.322
343.489	19.553	837.476	634.850
344.504	19.434	836.722	633.784
345.519	19.597	836.291	634.000
346.533	19.527	835.746	633.274
347.548	19.375	834.883	632.009
348.562	19.366	834.230	631.423
349.577	19.052	833.617	629.756
350.592	19.103	832.764	629.240
351.606	19.112	832.139	628.747
352.621	19.187	831.673	628.614
353.635	19.110	831.087	627.834
354.650	19.321	830.523	628.122
355.665	19.318	829.908	627.591
356.679	19.379	829.483	627.435
357.694	19.380	828.539	626.667
358.708	19.401	828.122	626.376
359.723	19.320	827.554	625.596
360.738	19.416	826.838	625.347
361.752	19.395	826.581	625.022
362.767	19.575	825.774	625.007
363.781	19.825	825.496	625.644
364.796	19.680	824.951	624.653
365.810	19.823	824.663	624.896
366.825	19.983	824.123	625.009
367.840	19.743	823.632	623.715
368.854	19.752	823.420	623.532
369.869	19.715	822.697	622.796
370.883	19.802	822.390	622.823
371.898	19.735	822.368	622.509
372.913	20.089	821.459	623.038
373.927	19.814	821.244	621.833
374.942	19.837	820.279	621.128
375.956	19.853	820.412	621.232
376.971	20.020	820.313	621.701
377.986	20.103	819.061	620.994
379.000	20.149	818.815	620.918
380.015	20.052	817.948	619.861
381.029	20.031	817.595	619.462
382.044	20.072	817.297	619.329
383.059	20.140	816.666	619.040
384.073	20.076	816.044	618.282
385.088	19.686	815.462	616.396
386.102	19.677	814.921	615.902
387.117	19.783	814.185	615.669
388.132	19.826	813.231	615.045
389.146	19.768	813.124	614.702
390.161	19.999	812.532	615.023
391.175	19.961	812.503	614.810
392.190	19.970	811.603	614.108
393.205	19.920	811.113	613.506
394.219	20.015	810.352	613.212
395.234	19.793	810.422	612.423
396.248	19.676	809.606	611.339
397.263	19.630	809.225	610.834
398.278	19.589	808.819	610.331
399.292	19.613	808.597	610.193
400.307	19.703	808.237	610.184
401.321	19.819	807.705	610.139
402.336	19.833	807.292	609.822
403.350	19.988	806.983	610.082
404.365	20.031	806.502	609.814
405.380	20.122	806.292	609.920
406.394	20.252	805.533	609.750
407.409	20.282	805.167	609.524
408.423	20.438	804.580	609.575
409.438	20.308	804.729	609.177
410.453	20.413	804.322	609.181
411.467	20.501	803.823	609.058
412.482	20.626	803.333	609.073
413.496	20.666	802.910	608.837
414.511	20.543	802.534	608.068
415.526	20.453	802.130	607.395
416.540	20.422	801.860	607.027
417.555	20.594	800.916	606.858
418.569	20.504	800.738	606.355
419.584	20.608	800.102	606.186
420.599	20.474	799.764	605.406
421.613	161.466	1372.274	1797.156
422.628	140.156	1455.678	1797.235
