DTS Sentinel unit serial number:	SN413079Multiplexer serial number:	ORYXHardware model number:	OX4-SRSoftware version number:	ORYX F/W v4.00 Oryx Data Collector v3.7.2.0data status	okinstallation	princeton_trtdifferential loss correction	single-endedforward channel	channel 1reverse channel	N/Adate	2019/09/12time	18:58:34forward acquisition time	15.00reverse acquisition time	0.00gamma	496.2192k internal	0.2319k external	0.2319temperature offset calibration	1.0104default loss term (dB/km)	0.3790temperature slope calibration	1.0000multiplexer offset coefficient	1.0000multiplexer slope coefficient	1.0000fibre end	0.00T internal ref (°C)	32.81T ext. ref 1 (°C)	2.98T ext. ref 2 (°C)	27.32length (m)	temperature (°C)	Stokes	anti-Stokes-747.200	-131.036	-0.602	0.081
-746.185	310.463	-0.385	0.728
-745.171	-42.476	-0.724	0.373
-744.156	-130.466	-0.927	-0.127
-743.142	475.264	0.342	-0.780
-742.127	-200.000	0.004	-0.315
-741.112	-145.309	0.181	-0.017
-740.098	30.179	-0.398	-0.344
-739.083	-160.229	0.531	0.029
-738.069	-200.000	0.093	0.596
-737.054	213.990	0.044	0.071
-736.039	-200.000	0.071	0.351
-735.025	-200.000	0.046	0.456
-734.010	-200.000	-0.017	-0.567
-732.996	-25.432	0.164	0.098
-731.981	166.947	0.641	0.920
-730.966	-35.034	-0.809	0.446
-729.952	-40.102	0.789	0.416
-728.937	-200.000	-0.063	-0.301
-727.923	5.264	-0.549	-0.409
-726.908	145.211	0.159	-0.215
-725.894	82.414	-0.447	-0.490
-724.879	-141.334	-0.652	-0.067
-723.864	-200.000	0.047	0.696
-722.850	-200.000	-0.167	-1.216
-721.835	800.000	-0.097	-0.385
-720.821	34.984	-0.754	-0.667
-719.806	-200.000	0.023	0.329
-718.791	-76.877	0.435	0.154
-717.777	800.000	0.324	-0.926
-716.762	-92.643	-0.755	-0.214
-715.748	273.887	-0.240	-0.429
-714.733	213.278	-0.394	-0.629
-713.718	84.640	0.296	0.327
-712.704	302.389	-0.044	-0.082
-711.689	800.000	0.051	0.172
-710.675	314.177	0.183	0.348
-709.660	-105.283	-0.815	0.188
-708.645	34.356	-0.300	0.264
-707.631	-31.240	0.404	0.230
-706.616	-200.000	0.082	0.537
-705.602	182.916	-0.507	0.755
-704.587	-7.688	-0.447	-0.305
-703.572	-87.224	0.502	0.154
-702.558	-200.000	0.206	-0.921
-701.543	149.688	-0.061	0.083
-700.529	-85.111	0.145	0.046
-699.514	-76.259	0.822	0.293
-698.499	429.806	0.386	0.843
-697.485	611.987	-0.219	-0.553
-696.470	235.276	0.286	-0.476
-695.456	101.418	0.430	-0.506
-694.441	212.642	0.078	0.125
-693.426	220.648	0.382	0.619
-692.412	800.000	-0.119	-0.335
-691.397	102.592	-0.420	0.495
-690.383	112.247	-0.183	0.224
-689.368	-200.000	0.034	0.562
-688.354	-200.000	0.057	0.437
-687.339	-169.859	0.284	-0.010
-686.324	-34.945	1.114	0.614
-685.310	-70.998	-0.211	0.080
-684.295	-200.000	0.098	0.473
-683.281	-133.467	0.527	0.067
-682.266	-106.489	-1.018	-0.229
-681.251	263.096	-0.111	0.194
-680.237	76.215	-0.655	0.699
-679.222	-110.483	0.158	0.033
-678.208	10.831	-0.416	-0.321
-677.193	79.652	0.080	-0.086
-676.178	-200.000	-0.051	-0.461
-675.164	-9.085	0.537	0.362
-674.149	90.492	-0.331	-0.374
-673.135	156.180	0.077	0.107
-672.120	-200.000	-0.112	-0.580
-671.105	800.000	0.185	0.625
-670.091	-84.166	0.398	0.127
-669.076	-34.798	-0.655	-0.361
-668.062	-60.075	1.023	-0.440
-667.047	597.526	0.057	0.144
-666.032	800.000	-0.052	-0.191
-665.018	800.000	-0.135	-0.491
-664.003	-140.817	0.644	0.067
-662.989	274.748	-0.225	-0.402
-661.974	-200.000	-0.041	0.327
-660.959	76.922	-0.291	-0.312
-659.945	61.183	0.251	-0.252
-658.930	-138.768	-0.167	-0.018
-657.916	-54.988	-0.216	-0.098
-656.901	86.941	0.219	-0.244
-655.886	89.178	0.528	-0.593
-654.872	246.470	-0.275	-0.467
-653.857	800.000	-0.198	0.668
-652.843	-24.076	0.042	-0.026
-651.828	139.149	-0.380	-0.504
-650.814	455.685	0.165	-0.368
-649.799	152.276	-0.226	0.311
-648.784	18.238	0.543	0.437
-647.770	-176.369	-0.268	0.007
-646.755	-134.276	0.801	-0.099
-645.741	35.797	0.505	0.448
-644.726	-171.165	0.586	-0.020
-643.711	74.139	-1.001	-1.059
-642.697	59.854	0.109	0.109
-641.682	-200.000	-0.009	-0.170
-640.668	15.852	0.366	0.290
-639.653	-200.000	-0.165	-0.787
-638.638	24.883	-0.287	0.240
-637.624	-91.822	0.640	0.183
-636.609	67.367	-0.392	-0.403
-635.595	352.345	0.279	0.557
-634.580	-200.000	0.028	-0.542
-633.565	631.429	0.244	-0.623
-632.551	-200.000	-0.020	-0.349
-631.536	800.000	-0.190	-0.641
-630.522	-145.705	-0.117	-0.011
-629.507	20.501	1.095	0.892
-628.492	-98.937	-0.327	0.084
-627.478	-24.428	0.839	-0.504
-626.463	622.359	0.135	0.343
-625.449	758.432	0.126	0.343
-624.434	194.433	0.160	0.244
-623.419	147.003	-0.153	0.207
-622.405	159.174	0.342	0.479
-621.390	3.880	-0.902	0.664
-620.376	-1.612	-0.403	-0.286
-619.361	-200.000	-0.168	-0.822
-618.346	-101.066	0.131	0.032
-617.332	-27.157	-0.567	0.333
-616.317	756.008	0.391	-1.065
-615.303	-200.000	-0.039	0.567
-614.288	-151.113	-0.399	0.030
-613.273	800.000	0.122	-0.398
-612.259	800.000	0.046	-0.145
-611.244	363.585	-0.049	-0.099
-610.230	428.862	0.052	-0.114
-609.215	-165.589	0.515	-0.023
-608.201	-200.000	-0.061	0.300
-607.186	127.881	0.397	-0.508
-606.171	82.406	0.148	0.162
-605.157	-200.000	-0.153	-0.872
-604.142	-161.816	0.415	0.021
-603.128	-82.282	0.153	-0.050
-602.113	-200.000	-0.053	0.630
-601.098	-92.374	-0.846	-0.240
-600.084	-200.000	-0.027	-0.405
-599.069	8.068	-0.479	0.362
-598.055	-200.000	0.040	0.771
-597.040	800.000	-0.201	0.826
-596.025	32.876	0.581	-0.506
-595.011	-57.205	-0.394	-0.175
-593.996	113.661	-0.121	0.148
-592.982	471.351	-0.344	-0.779
-591.967	-54.158	0.376	0.172
-590.952	-53.270	0.484	0.223
-589.938	-200.000	-0.006	-0.379
-588.923	-139.296	-0.587	0.063
-587.909	-75.271	-0.289	-0.104
-586.894	230.461	-0.688	-1.131
-585.879	-73.949	0.184	-0.067
-584.865	500.731	0.232	0.539
-583.850	332.578	-0.275	0.534
-582.836	13.686	0.422	-0.330
-581.821	-73.396	0.721	-0.265
-580.806	14.129	-0.137	0.107
-579.792	-200.000	0.093	0.484
-578.777	-200.000	-0.086	0.425
-577.763	-200.000	-0.065	-0.742
-576.748	-159.502	0.419	0.023
-575.733	241.583	0.437	0.733
-574.719	67.510	0.503	0.516
-573.704	45.912	0.299	-0.278
-572.690	-46.311	0.539	0.266
-571.675	-42.623	-0.578	-0.296
-570.661	800.000	0.029	0.108
-569.646	116.093	0.526	0.647
-568.631	-111.144	-0.618	0.127
-567.617	-9.815	0.417	-0.279
-566.602	15.026	-0.412	0.324
-565.588	-6.028	0.415	-0.285
-564.573	-97.875	0.983	-0.255
-563.558	351.002	-0.110	0.218
-562.544	-55.352	-1.146	-0.517
-561.529	800.000	-0.081	-0.276
-560.515	-69.985	0.112	-0.043
-559.500	-158.932	-0.528	-0.030
-558.485	118.785	-0.221	-0.275
-557.471	431.080	0.141	-0.306
-556.456	-145.413	-0.155	-0.014
-555.442	72.342	0.065	0.069
-554.427	-53.599	0.484	0.222
-553.412	-80.470	-0.529	0.177
-552.398	671.909	0.154	-0.402
-551.383	-200.000	-0.001	-0.019
-550.369	65.931	0.729	0.743
-549.354	800.000	-0.197	0.587
-548.339	-107.653	-0.896	0.197
-547.325	36.516	0.232	0.206
-546.310	138.411	-0.283	0.373
-545.296	10.206	-0.305	-0.233
-544.281	800.000	-0.111	0.342
-543.266	-100.918	0.381	0.094
-542.252	270.033	-0.381	-0.672
-541.237	-62.591	-1.003	-0.418
-540.223	-78.548	-0.179	0.062
-539.208	-200.000	-0.053	-0.330
-538.193	148.628	-0.342	0.463
-537.179	-12.690	-0.532	0.348
-536.164	-180.309	0.468	-0.010
-535.150	377.266	0.138	-0.283
-534.135	-200.000	0.037	-0.916
-533.121	28.676	-0.924	0.784
-532.106	-200.000	0.049	-0.228
-531.091	40.329	0.458	-0.413
-530.077	159.116	0.260	0.363
-529.062	-43.321	0.500	-0.254
-528.048	-200.000	-0.046	-0.258
-527.033	-182.787	0.487	0.009
-526.018	137.466	0.390	0.512
-525.004	81.681	-0.112	-0.122
-523.989	142.802	0.667	0.889
-522.975	800.000	0.202	-0.741
-521.960	-123.874	-0.213	0.034
-520.945	194.257	0.325	0.495
-519.931	800.000	0.142	0.505
-518.916	-111.027	0.663	0.136
-517.902	-145.895	0.051	-0.005
-516.887	-6.253	-0.662	0.453
-515.872	-200.000	-0.098	-0.436
-514.858	431.244	0.368	0.798
-513.843	77.118	0.271	-0.288
-512.829	-107.427	0.531	0.117
-511.814	0.357	0.365	0.261
-510.799	-169.428	0.950	0.035
-509.785	-200.000	0.104	0.530
-508.770	-200.000	0.128	0.794
-507.756	-111.833	-0.464	-0.094
-506.741	-82.755	-0.711	0.230
-505.726	13.584	0.260	-0.202
-504.712	-44.589	-0.919	-0.460
-503.697	149.919	-0.489	0.665
-502.683	-151.422	0.490	0.036
-501.668	-85.214	0.582	-0.182
-500.653	800.000	-0.120	-0.392
-499.639	-200.000	-0.024	-0.940
-498.624	-69.338	-0.598	-0.230
-497.610	800.000	-0.155	0.461
-496.595	-200.000	-0.086	-0.904
-495.581	-200.000	0.127	0.823
-494.566	417.363	0.074	0.158
-493.551	116.544	0.420	0.516
-492.537	-200.000	0.154	-0.685
-491.522	-34.288	-0.219	-0.121
-490.508	177.148	-0.094	-0.137
-489.493	-200.000	-0.001	0.493
-488.478	-132.850	0.827	-0.106
-487.464	16.977	0.551	-0.437
-486.449	-98.002	-0.655	-0.169
-485.435	294.039	-0.092	0.169
-484.420	38.565	0.149	0.133
-483.405	-171.408	-0.738	0.025
-482.391	-200.000	-0.064	0.291
-481.376	-200.000	-0.128	0.849
-480.362	800.000	-0.027	0.115
-479.347	197.195	0.208	-0.317
-478.332	28.289	-0.411	-0.348
-477.318	-200.000	0.043	-0.391
-476.303	-200.000	0.051	-0.358
-475.289	132.236	-0.261	0.336
-474.274	-178.926	-0.643	0.015
-473.259	494.721	0.130	0.298
-472.245	154.485	-0.132	-0.181
-471.230	163.399	-1.155	-1.626
-470.216	197.989	-0.378	-0.578
-469.201	15.093	0.040	-0.032
-468.186	-200.000	0.051	0.318
-467.172	326.497	0.086	-0.165
-466.157	12.939	-0.388	0.301
-465.143	800.000	-0.272	-1.101
-464.128	408.538	0.437	-0.925
-463.113	72.837	0.305	-0.318
-462.099	8.327	-0.373	-0.281
-461.084	-126.349	0.229	0.034
-460.070	-63.195	0.818	-0.337
-459.055	-200.000	0.076	0.550
-458.040	800.000	-0.119	0.370
-457.026	-123.359	0.686	0.110
-456.011	-95.617	-0.973	-0.261
-454.997	-200.000	0.226	-1.004
-453.982	-72.963	0.296	0.109
-452.968	-96.442	-0.622	-0.164
-451.953	800.000	-0.195	0.659
-450.938	-106.794	-0.492	-0.109
-449.924	186.270	-0.568	0.845
-448.909	-200.000	-0.171	-0.952
-447.895	800.000	-0.015	-0.048
-446.880	-44.587	-0.550	-0.275
-445.865	-158.415	0.416	0.024
-444.851	22.966	-0.291	0.239
-443.836	15.487	0.352	-0.276
-442.822	-73.916	-0.509	-0.185
-441.807	580.489	0.424	-1.039
-440.792	-46.740	0.452	-0.221
-439.778	-15.576	-0.742	0.474
-438.763	481.989	-0.126	0.286
-437.749	-200.000	0.114	0.699
-436.734	-23.210	-0.626	0.377
-435.719	94.315	-0.316	-0.359
-434.705	-200.000	-0.015	-1.248
-433.690	-200.000	0.049	-0.254
-432.676	-28.645	0.118	-0.068
-431.661	-183.060	0.814	0.014
-430.646	-200.000	-0.008	-0.139
-429.632	-126.281	-0.347	-0.052
-428.617	372.130	0.336	-0.682
-427.603	534.671	0.068	-0.162
-426.588	334.599	-0.455	0.880
-425.573	-200.000	0.083	-1.042
-424.559	215.496	-0.053	0.084
-423.544	-6.037	-0.729	0.498
-422.530	86.748	0.182	0.201
-421.515	-200.000	-0.067	0.642
-420.500	233.348	-0.236	0.388
-419.486	-106.467	-0.365	0.081
-418.471	-200.000	0.116	-0.649
-417.457	-63.135	-0.529	0.218
-416.442	-44.384	0.795	0.398
-415.428	-107.037	0.668	0.147
-414.413	-63.961	0.354	0.144
-413.398	185.446	-0.495	-0.734
-412.384	42.412	-0.280	-0.254
-411.369	-200.000	0.043	-0.727
-410.355	800.000	0.162	-0.454
-409.340	22.250	-0.941	0.767
-408.325	-200.000	0.021	0.114
-407.311	105.038	0.224	0.264
-406.296	451.404	-0.362	0.798
-405.282	43.626	-0.553	0.505
-404.267	131.683	0.245	0.314
-403.252	141.547	-0.349	-0.461
-402.238	12.610	-0.658	0.507
-401.223	-200.000	-0.081	-0.417
-400.209	209.766	0.291	0.455
-399.194	118.434	0.152	-0.187
-398.179	-97.743	0.419	0.108
-397.165	-54.591	0.859	0.388
-396.150	-200.000	0.107	0.711
-395.136	202.577	-0.211	0.326
-394.121	83.269	-0.513	0.557
-393.106	-200.000	0.053	0.529
-392.092	-104.812	0.792	0.182
-391.077	-52.198	-0.399	0.185
-390.063	-200.000	-0.081	-0.359
-389.048	7.627	-0.359	0.268
-388.033	-40.293	0.106	-0.055
-387.019	-154.011	0.893	-0.061
-386.004	207.224	0.043	-0.066
-384.990	-200.000	-0.151	0.803
-383.975	81.686	-0.698	0.753
-382.960	-86.283	0.287	-0.088
-381.946	-33.393	-0.288	-0.159
-380.931	-20.878	-0.128	-0.078
-379.917	-122.895	0.741	-0.119
-378.902	7.403	-0.883	-0.658
-377.888	97.955	-0.497	0.570
-376.873	-200.000	-0.174	0.856
-375.858	654.995	0.114	-0.291
-374.844	-127.834	0.789	-0.113
-373.829	-27.543	0.162	0.094
-372.815	-20.295	-0.371	-0.228
-371.800	168.419	0.429	-0.609
-370.785	218.915	0.206	-0.328
-369.771	42.784	0.456	0.414
-368.756	-93.457	0.203	0.056
-367.742	-195.900	-0.308	-0.002
-366.727	491.121	0.162	0.369
-365.712	13.899	0.804	0.624
-364.698	-200.000	0.571	0.003
-363.683	-159.540	0.362	0.020
-362.669	44.798	0.785	-0.720
-361.654	-200.000	-0.093	0.460
-360.639	11.008	-1.122	-0.855
-359.625	724.493	0.323	-0.857
-358.610	-123.666	0.304	0.048
-357.596	800.000	0.159	0.603
-356.581	73.656	-0.364	0.380
-355.566	82.592	-0.491	-0.532
-354.552	-166.828	0.338	-0.014
-353.537	694.657	-0.195	-0.510
-352.523	800.000	0.116	0.472
-351.508	800.000	0.267	0.861
-350.493	800.000	-0.146	0.597
-349.479	108.734	0.133	-0.158
-348.464	-71.903	-0.726	-0.269
-347.450	-19.057	-0.353	-0.219
-346.435	-37.840	0.831	-0.440
-345.420	-150.392	0.784	-0.060
-344.406	8.815	-0.271	0.204
-343.391	-53.564	0.794	0.362
-342.377	-200.000	-0.048	0.353
-341.362	-200.000	0.004	-0.147
-340.348	-93.058	1.037	0.288
-339.333	-200.000	0.044	0.540
-338.318	-200.000	0.100	-0.672
-337.304	-37.766	-0.469	-0.248
-336.289	-200.000	0.150	0.948
-335.275	-26.350	0.325	0.190
-334.260	1.127	0.440	-0.314
-333.245	-72.425	-0.262	-0.096
-332.231	-98.321	-0.398	-0.102
-331.216	153.535	0.129	0.176
-330.202	111.019	-0.522	-0.625
-329.187	-126.544	0.785	-0.116
-328.172	-200.000	-0.092	0.519
-327.158	-63.310	-0.751	-0.308
-326.143	-105.057	-0.775	0.176
-325.129	-200.000	-0.025	0.772
-324.114	-45.115	0.222	0.110
-323.099	156.613	0.364	0.500
-322.085	25.449	-0.514	0.425
-321.070	-200.000	0.017	-0.569
-320.056	-49.231	0.560	-0.266
-319.041	229.319	-0.227	-0.369
-318.026	-45.973	-0.622	-0.305
-317.012	-51.847	-0.208	-0.096
-315.997	139.638	-0.568	-0.744
-314.983	60.348	0.572	-0.563
-313.968	-200.000	-0.086	0.405
-312.953	-36.172	-0.807	0.433
-311.939	-52.916	-0.462	0.212
-310.924	-200.000	0.049	0.425
-309.910	107.845	0.050	-0.060
-308.895	-110.764	1.082	-0.222
-307.880	-200.000	-0.044	0.376
-306.866	-200.000	-0.022	0.352
-305.851	-24.461	0.979	0.580
-304.837	-200.000	0.003	-0.134
-303.822	-200.000	0.090	-0.658
-302.807	-200.000	-0.007	1.403
-301.793	-200.000	0.802	0.001
-300.778	-200.000	0.055	0.495
-299.764	-200.000	-0.129	-0.827
-298.749	26.481	-0.377	-0.313
-297.735	-64.538	-0.438	0.177
-296.720	-137.277	0.821	0.093
-295.705	-30.714	0.609	-0.343
-294.691	-57.946	-0.510	0.222
-293.676	-200.000	-0.041	0.546
-292.662	-40.010	0.199	0.103
-291.647	327.184	-0.232	-0.442
-290.632	567.595	-0.085	0.204
-289.618	-200.000	0.831	0.002
-288.603	-78.515	0.506	-0.172
-287.589	-188.915	0.117	0.001
-286.574	160.063	0.337	-0.467
-285.559	-61.497	-0.220	-0.092
-284.545	38.051	0.527	0.466
-283.530	-145.519	-0.419	-0.037
-282.516	166.496	0.262	0.369
-281.501	380.557	-0.323	0.658
-280.486	-76.545	0.250	0.087
-279.472	-200.000	0.086	0.443
-278.457	-26.754	0.777	0.451
-277.443	55.437	0.174	0.167
-276.428	331.178	0.274	-0.524
-275.413	-132.889	0.567	-0.072
-274.399	163.972	0.079	-0.111
-273.384	-78.981	-1.109	0.375
-272.370	64.724	-0.351	-0.352
-271.355	-200.000	0.099	-1.108
-270.340	-70.860	-0.707	-0.265
-269.326	-200.000	-0.023	-0.336
-268.311	750.338	-0.210	0.564
-267.297	0.153	-0.388	-0.275
-266.282	-200.000	-0.076	1.309
-265.267	9.801	-0.249	-0.187
-264.253	800.000	0.205	-0.702
-263.238	-106.962	-0.231	0.051
-262.224	776.809	0.178	0.484
-261.209	247.905	0.103	-0.172
-260.195	800.000	0.101	-0.339
-259.180	-200.000	0.017	0.300
-258.165	611.216	0.230	-0.571
-257.151	-10.192	-0.545	0.359
-256.136	800.000	-0.106	-0.326
-255.122	-114.584	0.444	-0.084
-254.107	85.276	-0.475	-0.518
-253.092	-94.526	1.104	0.298
-252.078	23.701	-0.778	0.635
-251.063	654.115	-0.359	0.913
-250.049	173.001	0.385	-0.551
-249.034	-156.682	-0.464	0.028
-248.019	-48.010	-0.884	-0.424
-247.005	676.878	0.166	-0.429
-245.990	-146.842	-0.713	0.061
-244.976	349.027	0.356	-0.698
-243.961	-56.686	-0.467	0.205
-242.946	800.000	-0.191	0.718
-241.932	114.133	0.332	-0.401
-240.917	-200.000	-0.044	0.261
-239.903	-200.000	-0.072	0.547
-238.888	-35.673	-0.263	-0.141
-237.873	241.940	-0.457	0.758
-236.859	800.000	-0.135	0.472
-235.844	-200.000	0.017	-0.264
-234.830	194.228	-0.265	0.398
-233.815	-17.302	0.304	0.190
-232.800	-105.437	-0.877	-0.198
-231.786	-200.000	0.007	-0.093
-230.771	229.997	-0.298	0.482
-229.757	-26.764	-0.224	-0.130
-228.742	800.000	-0.331	0.915
-227.727	-9.521	-0.253	-0.167
-226.713	-111.078	0.623	-0.127
-225.698	-200.000	0.126	-0.740
-224.684	51.016	-0.169	0.159
-223.669	168.082	0.138	0.194
-222.655	-200.000	0.005	-0.181
-221.640	-11.321	-0.168	0.109
-220.625	219.748	0.495	-0.785
-219.611	-100.262	-1.288	-0.317
-218.596	375.863	0.244	0.493
-217.582	-168.927	-0.740	0.027
-216.567	368.057	0.153	0.307
-215.552	-91.452	0.606	0.171
-214.538	181.089	0.133	-0.194
-213.523	800.000	-0.075	-0.253
-212.509	-43.012	-0.341	-0.171
-211.494	116.891	-0.894	-1.088
-210.479	128.773	-0.363	-0.458
-209.465	-179.804	0.324	-0.007
-208.450	-48.024	-0.241	-0.116
-207.436	-164.738	0.031	-0.001
-206.421	-118.225	-0.982	-0.173
-205.406	-133.231	0.342	0.043
-204.392	89.188	0.593	-0.654
-203.377	-200.000	0.061	0.656
-202.363	468.593	-0.375	0.834
-201.348	-97.664	0.483	-0.124
-200.333	-166.408	0.296	0.012
-199.319	-200.000	0.086	-0.627
-198.304	-200.000	-0.086	-0.859
-197.290	-68.072	-0.344	0.133
-196.275	-51.834	0.473	-0.218
-195.260	605.938	-0.059	-0.147
-194.246	-200.000	-0.070	1.129
-193.231	21.789	0.775	-0.625
-192.217	-48.897	-0.103	-0.049
-191.202	800.000	-0.192	0.738
-190.187	554.202	-0.097	0.230
-189.173	800.000	0.169	-0.633
-188.158	-193.318	-0.849	-0.007
-187.144	-100.194	0.166	0.041
-186.129	-29.738	-0.564	-0.319
-185.114	742.119	-0.356	0.947
-184.100	-200.000	0.048	-0.602
-183.085	85.554	0.163	-0.177
-182.071	800.000	-0.131	0.440
-181.056	115.597	-0.035	0.043
-180.042	-85.689	-0.307	-0.094
-179.027	-63.491	-0.265	-0.108
-178.012	-200.000	0.002	0.233
-176.998	-141.690	0.631	-0.063
-175.983	784.548	0.322	-0.872
-174.969	-42.401	-0.473	0.239
-173.954	-148.720	-0.499	0.040
-172.939	82.277	0.676	-0.726
-171.925	-133.347	-0.682	-0.085
-170.910	-109.692	-0.574	-0.120
-169.896	-30.111	0.406	0.228
-168.881	98.944	-0.083	-0.095
-167.866	-1.338	0.803	-0.561
-166.852	-200.000	-0.012	-0.503
-165.837	3.044	-0.416	0.299
-164.823	710.711	-0.183	-0.478
-163.808	-200.000	-0.022	-0.639
-162.793	84.066	-0.579	-0.625
-161.779	-113.773	0.742	0.143
-160.764	800.000	0.077	0.262
-159.750	-19.889	1.276	0.779
-158.735	127.624	0.510	0.640
-157.720	-200.000	1.228	0.003
-156.706	-99.334	-0.232	0.058
-155.691	-62.201	0.705	-0.290
-154.677	-94.192	0.413	0.112
-153.662	-118.283	0.573	0.101
-152.647	-200.000	-0.042	-0.327
-151.633	-19.161	-0.540	-0.331
-150.618	81.315	0.197	0.211
-149.604	-200.000	-0.065	0.897
-148.589	158.239	0.043	-0.060
-147.574	648.760	-0.156	-0.393
-146.560	-179.293	-0.357	0.008
-145.545	121.021	0.302	-0.371
-144.531	205.531	-0.205	-0.315
-143.516	-200.000	0.005	0.508
-142.502	-147.293	0.204	-0.017
-141.487	-25.705	0.366	-0.213
-140.472	261.844	0.427	0.731
-139.458	-197.188	-0.456	0.003
-138.443	-85.441	0.576	-0.177
-137.429	-200.000	-0.004	0.723
-136.414	140.360	-0.433	-0.564
-135.399	-200.000	0.071	0.634
-134.385	-141.565	-0.259	0.026
-133.370	55.017	0.460	0.438
-132.356	-19.700	0.708	-0.433
-131.341	800.000	0.066	-0.201
-130.326	427.846	0.105	0.224
-129.312	-179.685	0.245	0.005
-128.297	-150.305	0.676	0.052
-127.283	194.696	0.446	-0.668
-126.268	-200.000	-0.133	1.101
-125.253	-191.216	0.128	0.001
-124.239	-12.608	0.278	0.179
-123.224	486.386	-0.470	-1.058
-122.210	189.444	0.514	-0.760
-121.195	43.843	-0.439	0.397
-120.180	-132.996	-0.555	0.070
-119.166	-167.359	-0.695	0.028
-118.151	564.574	0.343	0.821
-117.137	-200.000	0.245	1.337
-116.122	-76.164	0.152	0.053
-115.107	-145.349	-0.837	-0.075
-114.093	589.497	0.221	-0.538
-113.078	167.727	0.203	-0.285
-112.064	-42.884	-0.545	0.273
-111.049	190.572	0.241	-0.357
-110.034	521.391	0.075	0.173
-109.020	-49.056	-0.742	-0.350
-108.005	68.279	-0.468	-0.473
-106.991	293.825	-0.264	0.476
-105.976	-8.998	0.410	-0.271
-104.962	152.619	0.567	0.764
-103.947	-89.333	0.236	-0.069
-102.932	155.147	-0.582	0.790
-101.918	14.663	0.729	-0.562
-100.903	-119.954	-0.353	0.060
-99.889	150.163	0.475	-0.636
-98.874	509.903	-0.250	-0.574
-97.859	800.000	-0.082	0.295
-96.845	-200.000	0.142	0.773
-95.830	-42.845	-0.669	0.335
-94.816	-172.946	0.988	-0.030
-93.801	800.000	0.188	0.786
-92.786	48.532	-0.174	-0.161
-91.772	-106.805	0.226	0.049
-90.757	19.467	-0.378	-0.299
-89.743	-117.857	0.417	0.074
-88.728	170.415	0.428	0.605
-87.713	-23.917	-1.146	0.676
-86.699	-39.294	0.126	-0.065
-85.684	621.571	-0.185	0.460
-84.670	-200.000	-0.034	0.182
-83.655	396.034	0.310	-0.638
-82.640	634.054	0.289	-0.724
-81.626	-151.414	-0.812	-0.060
-80.611	192.191	0.173	-0.258
-79.597	137.252	-0.481	-0.620
-78.582	11.893	0.358	-0.271
-77.567	-64.128	-0.585	0.235
-76.553	56.559	0.120	0.115
-75.538	800.000	-0.214	-0.595
-74.524	-99.414	-0.744	0.185
-73.509	-39.968	-0.555	-0.285
-72.494	128.784	-0.526	0.660
-71.480	-200.000	-0.011	0.171
-70.465	-47.566	-0.286	-0.137
-69.451	-200.000	0.046	0.990
-68.436	-147.317	-0.854	-0.071
-67.422	179.385	0.389	0.561
-66.407	-200.000	-0.016	0.777
-65.392	-11.256	-0.425	0.276
-64.378	-47.213	0.648	-0.311
-63.363	-75.830	-0.173	-0.060
-62.349	-200.000	0.022	0.381
-61.334	55.920	-1.067	-1.019
-60.319	800.000	0.221	0.718
-59.305	261.787	-0.693	-1.183
-58.290	800.000	0.408	1.282
-57.276	-200.000	-0.222	1.480
-56.261	-200.000	94.697	578.832
-55.246	663.966	1356.067	3445.369
-54.232	203.358	2519.657	3836.948
-53.217	119.333	2124.155	2588.158
-52.203	44.518	1594.183	1442.150
-51.188	36.337	1333.395	1157.392
-50.173	33.176	1292.585	1103.512
-49.159	56.055	1343.017	1283.143
-48.144	56.989	1359.292	1304.194
-47.130	36.193	1316.907	1142.046
-46.115	33.111	1299.722	1109.051
-45.100	32.899	1295.210	1103.917
-44.086	32.709	1292.199	1100.195
-43.071	32.769	1288.842	1097.642
-42.057	32.786	1287.674	1096.707
-41.042	32.795	1286.121	1095.390
-40.027	32.881	1283.721	1093.801
-39.013	32.548	1283.206	1091.392
-37.998	32.700	1280.949	1090.308
-36.984	32.865	1279.733	1090.180
-35.969	32.824	1277.157	1087.708
-34.954	32.873	1275.857	1086.838
-33.940	32.839	1274.344	1085.312
-32.925	32.883	1273.038	1084.411
-31.911	32.834	1271.713	1082.954
-30.896	32.751	1270.762	1081.629
-29.881	32.831	1269.246	1080.754
-28.867	32.762	1268.324	1079.528
-27.852	33.063	1266.587	1079.731
-26.838	33.079	1264.770	1078.229
-25.823	32.887	1263.835	1076.292
-24.809	33.061	1261.101	1074.914
-23.794	32.668	1260.552	1072.164
-22.779	32.870	1259.776	1072.611
-21.765	32.846	1258.649	1071.476
-20.750	32.811	1257.338	1070.117
-19.736	32.721	1256.530	1068.875
-18.721	32.825	1255.112	1068.215
-17.706	32.696	1253.737	1066.274
-16.692	32.809	1252.268	1065.622
-15.677	32.783	1250.409	1063.849
-14.663	32.981	1249.497	1064.151
-13.648	32.622	1249.759	1062.302
-12.633	32.838	1248.339	1062.271
-11.619	32.667	1247.159	1060.264
-10.604	33.035	1245.682	1061.034
-9.590	32.910	1245.317	1059.979
-8.575	32.647	1244.892	1058.096
-7.560	32.677	1244.117	1057.564
-6.546	32.967	1242.607	1057.863
-5.531	32.685	1242.199	1055.897
-4.517	32.593	1241.564	1054.800
-3.502	32.770	1240.280	1054.654
-2.487	32.802	1238.938	1053.651
-1.473	32.934	1235.072	1051.059
-0.458	31.243	1220.096	1028.964
0.556	28.270	1202.940	989.523
1.571	24.533	1207.681	973.013
2.586	23.767	1221.224	979.620
3.600	22.983	1211.295	967.277
4.615	16.887	1139.599	878.454
5.629	7.588	1064.425	775.235
6.644	3.306	1043.990	739.748
7.659	2.862	1040.776	735.279
8.673	2.693	1040.570	734.262
9.688	3.061	1037.235	733.602
10.702	3.174	1037.361	734.165
11.717	9.026	1045.471	767.908
12.731	18.628	1059.069	824.173
13.746	23.884	1065.080	854.095
14.761	24.422	1065.464	856.910
15.775	24.489	1063.495	855.573
16.790	23.690	1064.097	852.150
17.804	23.906	1062.723	852.011
18.819	23.831	1062.580	851.461
19.834	24.274	1062.489	853.431
20.848	24.151	1061.939	852.329
21.863	24.249	1059.868	851.055
22.877	24.229	1059.908	850.917
23.892	23.767	1060.546	849.145
24.907	23.632	1059.668	847.726
25.921	23.788	1057.749	846.860
26.936	23.682	1056.495	845.277
27.950	23.727	1054.998	844.216
28.965	23.448	1054.061	842.066
29.980	24.010	1051.230	842.392
30.994	23.970	1051.056	841.987
32.009	23.677	1051.306	840.725
33.023	23.548	1050.599	839.478
34.038	23.875	1048.574	839.329
35.053	23.645	1046.871	836.809
36.067	23.677	1046.780	836.811
37.082	23.761	1046.600	836.989
38.096	23.476	1046.919	835.825
39.111	24.205	1045.056	837.692
40.126	23.952	1043.159	834.914
41.140	23.429	1042.122	831.556
42.155	23.410	1041.440	830.851
43.169	23.432	1038.301	828.376
44.184	23.147	1039.064	827.576
45.199	23.018	1038.017	826.066
46.213	23.496	1037.288	827.643
47.228	23.720	1036.054	827.631
48.242	23.961	1035.907	828.563
49.257	24.077	1034.951	828.263
50.271	24.058	1033.789	827.172
51.286	23.817	1034.109	826.236
52.301	24.094	1033.242	826.756
53.315	24.087	1031.312	825.108
54.330	23.802	1030.929	823.408
55.344	23.630	1031.244	822.788
56.359	23.698	1029.784	821.867
57.374	23.628	1028.524	820.462
58.388	23.606	1026.858	818.961
59.403	23.276	1027.211	817.648
60.417	23.509	1025.697	817.444
61.432	23.453	1025.644	817.071
62.447	23.570	1025.315	817.276
63.461	23.229	1024.108	814.668
64.476	23.148	1022.831	813.210
65.490	23.371	1022.019	813.517
66.505	23.156	1021.709	812.213
67.520	23.301	1021.871	812.935
68.534	23.348	1019.529	811.213
69.549	23.023	1018.794	809.069
70.563	22.917	1018.329	808.144
71.578	22.803	1016.042	805.739
72.593	22.703	1015.696	804.936
73.607	22.741	1015.521	804.899
74.622	23.065	1015.041	805.923
75.636	22.996	1014.342	804.985
76.651	22.923	1014.881	805.010
77.666	23.212	1013.286	804.984
78.680	23.150	1011.674	803.352
79.695	22.946	1011.299	802.056
80.709	23.104	1011.391	802.778
81.724	23.346	1011.026	803.513
82.739	23.575	1009.597	803.344
83.753	23.904	1009.107	804.373
84.768	23.889	1010.255	805.149
85.782	24.090	1009.752	805.587
86.797	24.073	1007.906	803.963
87.812	23.955	1005.935	801.792
88.826	24.367	1004.960	802.798
89.841	24.288	1004.014	801.612
90.855	24.480	1003.103	801.676
91.870	24.230	1003.280	800.627
92.884	23.967	1001.732	798.142
93.899	24.077	1000.982	797.962
94.914	23.903	1000.740	796.921
95.928	24.306	998.798	797.105
96.943	23.777	998.607	794.520
97.957	24.175	996.929	794.887
98.972	23.517	997.082	792.003
99.987	23.582	996.385	791.668
101.001	24.069	994.955	792.631
102.016	23.921	994.477	791.522
103.030	24.036	993.616	791.278
104.045	24.026	992.703	790.436
105.060	23.807	991.500	788.438
106.074	23.843	990.937	788.079
107.089	23.606	990.622	786.712
108.103	23.655	989.035	785.597
109.118	23.420	987.490	783.263
110.133	23.293	985.867	781.344
111.147	23.288	985.073	780.623
112.162	23.032	985.193	779.521
113.176	23.325	984.236	779.987
114.191	23.292	984.063	779.635
115.206	23.039	983.522	778.023
116.220	22.969	982.626	776.939
117.235	23.253	980.778	776.653
118.249	22.988	980.691	775.356
119.264	23.103	978.806	774.297
120.279	23.187	977.867	773.856
121.293	22.660	978.400	771.903
122.308	22.700	977.097	770.979
123.322	22.935	975.782	770.900
124.337	22.655	974.956	768.958
125.352	22.707	973.273	767.789
126.366	22.982	972.916	768.635
127.381	23.320	972.704	769.872
128.395	23.814	971.148	770.715
129.410	23.647	970.049	769.050
130.424	23.746	969.569	769.031
131.439	23.679	968.749	768.021
132.454	23.523	968.449	767.042
133.468	23.394	967.737	765.852
134.483	23.780	966.314	766.325
135.497	23.839	965.501	765.864
136.512	23.892	964.731	765.415
137.527	24.003	963.834	765.115
138.541	23.729	963.934	763.944
139.556	23.723	963.453	763.472
140.570	23.908	962.521	763.461
141.585	23.995	961.876	763.253
142.600	24.043	961.006	762.700
143.614	24.180	959.282	761.850
144.629	24.364	959.695	762.900
145.643	24.495	957.424	761.584
146.658	24.125	956.077	758.872
147.673	24.042	955.389	757.902
148.687	24.137	954.035	757.168
149.702	23.651	954.231	755.190
150.716	23.570	952.687	753.556
151.731	23.801	952.139	754.034
152.746	24.130	951.497	754.855
153.760	24.134	950.696	754.170
154.775	24.079	950.561	753.764
155.789	24.216	949.888	753.744
156.804	23.891	949.642	752.106
157.819	24.074	948.177	751.653
158.833	24.086	948.149	751.612
159.848	24.182	947.037	751.069
160.862	24.033	945.894	749.473
161.877	24.019	943.734	747.635
162.892	23.785	943.107	746.086
163.906	23.431	943.243	744.646
164.921	23.523	942.478	744.360
165.935	23.861	941.282	744.764
166.950	24.032	939.652	744.126
167.964	23.911	938.568	742.695
168.979	23.955	936.722	741.354
169.994	23.931	935.604	740.302
171.008	23.937	936.853	741.249
172.023	24.008	936.605	741.284
173.037	24.105	935.729	740.930
174.052	24.136	935.040	740.446
175.067	23.787	933.653	737.836
176.081	23.640	932.536	736.274
177.096	23.879	931.171	736.125
178.110	23.501	931.146	734.471
179.125	23.329	930.322	733.045
180.140	23.304	930.558	733.064
181.154	23.674	930.707	734.648
182.169	23.931	930.260	735.293
183.183	24.143	929.215	735.275
184.198	23.760	929.495	733.850
185.213	23.826	928.503	733.277
186.227	23.983	927.315	732.918
187.242	24.054	927.521	733.307
188.256	24.017	927.176	732.817
189.271	24.424	925.499	733.103
190.286	24.056	923.987	730.328
191.300	23.588	922.568	727.226
192.315	23.390	921.042	725.150
193.329	23.236	921.574	724.873
194.344	23.711	920.734	726.090
195.359	23.709	922.035	727.045
196.373	24.059	921.325	727.849
197.388	24.555	919.587	728.435
198.402	24.821	919.246	729.185
199.417	24.505	920.423	728.766
200.432	24.703	918.326	727.846
201.446	24.249	918.268	725.889
202.461	24.411	918.676	726.807
203.475	24.088	915.997	723.313
204.490	23.860	915.779	722.151
205.504	23.888	915.580	722.043
206.519	24.455	914.071	723.087
207.534	24.025	914.329	721.485
208.548	24.146	912.926	720.802
209.563	23.938	913.199	720.110
210.577	24.257	912.276	720.610
211.592	24.387	912.592	721.323
212.607	24.636	910.700	720.765
213.621	24.551	910.937	720.548
214.636	24.372	910.276	719.238
215.650	24.146	909.645	717.765
216.665	24.509	907.966	717.837
217.680	24.483	907.515	717.312
218.694	24.490	906.854	716.756
219.709	23.872	907.842	714.986
220.723	24.060	906.117	714.323
221.738	24.059	904.795	713.211
222.753	23.736	904.845	711.895
223.767	24.389	904.360	714.065
224.782	24.199	905.118	713.840
225.796	24.453	904.239	714.097
226.811	24.501	902.234	712.642
227.826	23.870	901.098	709.167
228.840	23.822	900.835	708.706
229.855	24.060	900.108	709.018
230.869	23.983	898.725	707.560
231.884	24.089	898.617	707.833
232.899	23.983	898.990	707.642
233.913	24.113	897.871	707.215
234.928	23.706	897.483	705.233
235.942	23.583	896.644	704.022
236.957	23.647	895.949	703.669
237.972	23.534	895.594	702.881
238.986	23.263	894.741	701.074
240.001	23.510	893.866	701.305
241.015	23.611	893.176	701.101
242.030	23.739	893.797	702.032
243.045	23.997	892.803	702.209
244.059	24.255	891.833	702.401
245.074	24.332	891.210	702.148
246.088	24.028	890.709	700.497
247.103	24.607	890.260	702.358
248.117	24.602	890.494	702.460
249.132	24.897	890.607	703.649
250.147	25.347	889.549	704.516
251.161	25.187	889.725	703.963
252.176	24.998	888.809	702.435
253.190	25.121	888.109	702.303
254.205	24.987	887.911	701.560
255.220	25.335	886.891	702.051
256.234	25.196	885.895	700.657
257.249	24.950	885.504	699.328
258.263	24.878	884.014	697.809
259.278	24.919	884.361	698.180
260.293	25.209	883.970	698.938
261.307	25.074	883.235	697.772
262.322	24.963	883.179	697.234
263.336	24.796	881.073	694.861
264.351	24.593	879.772	692.985
265.366	24.951	879.371	693.996
266.380	25.122	879.743	694.892
267.395	25.007	879.490	694.185
268.409	24.862	878.724	692.957
269.424	25.166	877.642	693.218
270.439	24.927	876.528	691.355
271.453	24.518	876.708	689.854
272.468	25.273	876.217	692.319
273.482	24.976	875.203	690.315
274.497	24.928	874.189	689.267
275.512	24.973	874.122	689.326
276.526	24.847	873.545	688.328
277.541	25.043	873.937	689.328
278.555	25.384	873.085	689.907
279.570	25.130	872.181	688.154
280.585	25.275	870.463	687.294
281.599	24.959	870.397	685.972
282.614	24.541	869.375	683.504
283.628	24.682	868.770	683.510
284.643	24.618	868.746	683.186
285.657	24.716	868.350	683.187
286.672	24.860	866.851	682.499
287.687	24.876	866.858	682.502
288.701	25.116	866.477	683.059
289.716	24.884	866.000	681.735
290.730	25.079	865.340	681.899
291.745	25.088	864.033	680.843
292.760	24.964	863.470	679.868
293.774	25.500	863.711	682.033
294.789	25.577	862.622	681.404
295.803	25.112	862.013	679.103
296.818	24.782	861.933	677.731
297.833	25.242	860.141	678.000
298.847	24.870	860.443	676.771
299.862	25.111	859.957	677.238
300.876	25.021	860.127	676.973
301.891	25.611	859.190	678.401
302.906	25.275	859.136	677.031
303.920	25.462	858.639	677.283
304.935	25.477	858.612	677.259
305.949	25.752	857.145	677.078
306.964	25.140	855.910	673.742
307.979	25.092	855.946	673.529
308.993	25.420	855.299	674.195
310.008	25.159	855.033	672.944
311.022	25.304	854.332	672.876
312.037	24.881	853.911	670.901
313.052	24.874	852.183	669.457
314.066	24.529	851.868	667.862
315.081	24.444	851.418	667.131
316.095	24.669	851.268	667.795
317.110	24.977	850.126	667.989
318.125	24.504	849.108	665.370
319.139	24.174	848.543	663.639
320.154	24.226	848.630	663.841
321.168	24.336	847.646	663.421
322.183	24.661	846.836	663.936
323.197	24.893	847.033	664.893
324.212	24.397	846.791	662.803
325.227	24.465	846.339	662.644
326.241	24.635	844.943	662.120
327.256	24.280	844.922	660.731
328.270	24.690	843.924	661.408
329.285	24.652	843.388	660.788
330.300	24.483	842.307	659.262
331.314	24.670	842.243	659.841
332.329	25.005	842.040	660.862
333.343	25.505	841.610	662.308
334.358	25.245	841.614	661.293
335.373	25.403	841.219	661.507
336.387	25.549	839.960	660.995
337.402	25.204	841.645	660.991
338.416	25.738	840.411	661.929
339.431	25.681	840.506	661.737
340.446	25.663	839.441	660.772
341.460	25.646	839.986	661.081
342.475	25.838	839.480	661.327
343.489	25.673	839.009	660.295
344.504	26.023	838.189	660.872
345.519	25.574	839.386	660.108
346.533	25.874	837.804	659.908
347.548	25.698	837.130	658.674
348.562	25.544	836.528	657.577
349.577	25.498	836.004	656.939
350.592	25.622	834.646	656.268
351.606	25.075	834.518	654.114
352.621	25.404	832.823	653.923
353.635	25.480	832.086	653.562
354.650	25.105	831.306	651.532
355.665	24.849	831.993	651.079
356.679	25.269	831.462	652.135
357.694	25.207	830.491	651.088
358.708	25.255	828.515	649.656
359.723	25.144	828.289	649.020
360.738	25.439	827.335	649.280
361.752	25.517	827.015	649.255
362.767	25.768	827.531	650.508
363.781	25.664	827.208	649.822
364.796	25.963	827.097	650.757
365.810	26.087	826.480	650.662
366.825	25.936	826.061	649.728
367.840	25.787	825.886	648.997
368.854	25.584	824.524	647.138
369.869	25.595	823.737	646.504
370.883	25.682	823.370	646.472
371.898	25.705	824.337	647.254
372.913	25.592	824.412	646.852
373.927	25.399	822.352	644.486
374.942	25.774	821.532	645.130
375.956	25.547	821.774	644.447
376.971	25.589	821.108	644.020
377.986	25.996	820.657	645.063
379.000	25.900	820.988	644.925
380.015	25.872	820.040	644.023
381.029	26.110	818.956	643.964
382.044	26.198	818.995	644.251
383.059	26.181	818.266	643.560
384.073	26.036	817.217	642.161
385.088	25.859	816.935	641.254
386.102	25.420	815.887	638.812
387.117	25.711	814.358	638.592
388.132	24.999	814.883	636.418
389.146	25.362	814.556	637.394
390.161	25.541	814.151	637.657
391.175	25.805	813.312	637.881
392.190	25.946	813.467	638.444
393.205	25.230	811.738	634.498
394.219	24.544	810.608	631.136
395.234	24.746	810.753	631.907
396.248	25.286	810.547	633.599
397.263	25.374	810.426	633.759
398.278	25.000	810.199	632.203
399.292	25.014	809.032	631.289
400.307	24.872	808.776	630.530
401.321	24.694	809.427	630.356
402.336	24.954	808.809	630.736
403.350	25.725	808.984	633.531
404.365	25.977	807.475	633.178
405.380	26.120	808.175	634.174
406.394	26.623	807.569	635.405
407.409	26.190	807.060	633.429
408.423	26.471	806.038	633.558
409.438	26.275	805.938	632.738
410.453	26.518	804.376	632.302
411.467	26.159	804.662	631.216
412.482	26.206	804.195	630.959
413.496	26.101	804.040	630.414
414.511	25.942	804.638	630.270
415.526	26.303	803.537	630.614
416.540	26.100	802.642	629.147
417.555	26.290	802.002	629.251
418.569	26.104	802.621	629.034
419.584	26.565	801.261	629.517
420.599	26.266	801.193	628.369
421.613	159.534	1370.733	1790.919
422.628	138.477	1453.738	1790.988
