DTS Sentinel unit serial number:	SN413079Multiplexer serial number:	ORYXHardware model number:	OX4-SRSoftware version number:	ORYX F/W v4.00 Oryx Data Collector v3.7.2.0data status	okinstallation	princeton_trtdifferential loss correction	single-endedforward channel	channel 1reverse channel	N/Adate	2019/09/15time	10:34:35forward acquisition time	60.00reverse acquisition time	0.00gamma	496.2192k internal	0.2309k external	0.2309temperature offset calibration	0.9988default loss term (dB/km)	0.3790temperature slope calibration	1.0000multiplexer offset coefficient	1.0000multiplexer slope coefficient	1.0000fibre end	0.00T internal ref (°C)	34.25T ext. ref 1 (°C)	5.03T ext. ref 2 (°C)	29.51length (m)	temperature (°C)	Stokes	anti-Stokes-747.200	-72.589	-0.048	0.018
-746.185	-148.447	-0.151	-0.013
-745.171	670.339	0.114	-0.299
-744.156	133.147	0.150	0.197
-743.142	-200.000	0.209	0.001
-742.127	75.880	-0.208	-0.223
-741.112	254.570	-0.123	-0.215
-740.098	83.589	0.182	0.202
-739.083	-200.000	0.011	0.162
-738.069	-200.000	0.007	0.134
-737.054	314.251	-0.104	-0.199
-736.039	248.899	-0.225	-0.388
-735.025	183.656	0.101	0.152
-734.010	22.952	-0.546	-0.455
-732.996	185.889	-0.230	-0.348
-731.981	-73.382	0.120	0.045
-730.966	-91.422	-0.369	0.107
-729.952	644.973	-0.070	-0.182
-728.937	-200.000	-0.038	-0.532
-727.923	326.519	-0.181	-0.353
-726.908	-113.960	0.078	0.015
-725.894	-41.118	0.222	-0.116
-724.879	-44.176	-0.543	-0.277
-723.864	92.396	0.121	0.139
-722.850	-177.875	0.030	0.001
-721.835	-45.558	-0.104	0.052
-720.821	580.382	-0.116	0.289
-719.806	53.260	0.149	-0.145
-718.791	800.000	0.097	-0.404
-717.777	16.531	-0.104	0.083
-716.762	-174.894	-0.266	-0.008
-715.748	226.522	0.063	-0.104
-714.733	-166.167	-0.083	-0.004
-713.718	164.445	-0.150	-0.214
-712.704	-16.066	-0.154	0.100
-711.689	-160.900	-0.281	0.015
-710.675	-78.327	-0.126	-0.044
-709.660	90.351	-0.107	0.121
-708.645	45.734	0.083	-0.078
-707.631	-51.742	-0.413	-0.195
-706.616	-200.000	0.027	0.193
-705.602	-200.000	0.003	0.014
-704.587	-54.304	-0.047	0.022
-703.572	180.030	-0.042	-0.063
-702.558	800.000	-0.067	0.215
-701.543	-56.035	-0.336	-0.152
-700.529	-200.000	-0.034	0.161
-699.514	800.000	-0.031	-0.088
-698.499	-132.320	-0.109	0.014
-697.485	800.000	0.055	-0.165
-696.470	83.570	0.093	-0.103
-695.456	-58.206	-0.154	0.068
-694.441	-161.662	-0.129	-0.007
-693.426	800.000	-0.076	-0.226
-692.412	-154.623	-0.075	0.005
-691.397	-96.522	0.258	-0.069
-690.383	-176.241	-0.196	0.005
-689.368	-164.702	-0.186	0.009
-688.354	-65.202	-0.103	-0.042
-687.339	94.059	0.073	-0.084
-686.324	81.817	0.133	0.146
-685.310	-26.792	0.032	-0.019
-684.295	-77.899	-0.312	-0.109
-683.281	81.919	0.073	0.080
-682.266	-135.516	0.202	-0.024
-681.251	-85.151	-0.122	-0.039
-680.237	-200.000	0.020	-0.232
-679.222	342.271	0.042	0.084
-678.208	-42.981	-0.208	-0.107
-677.193	800.000	0.037	0.105
-676.178	-93.758	-0.204	-0.057
-675.164	443.879	-0.113	-0.251
-674.149	78.817	-0.211	-0.229
-673.135	198.640	-0.048	0.075
-672.120	641.030	-0.104	0.268
-671.105	72.150	-0.078	-0.082
-670.091	18.587	0.255	-0.207
-669.076	523.383	-0.127	-0.302
-668.062	-64.449	0.104	0.043
-667.047	-84.284	0.146	0.047
-666.032	497.094	-0.010	-0.023
-665.018	724.917	-0.078	0.210
-664.003	294.904	0.177	-0.328
-662.989	-44.749	-0.257	0.130
-661.974	800.000	0.069	-0.225
-660.959	-96.943	-0.032	0.009
-659.945	365.360	0.173	-0.352
-658.930	800.000	-0.074	-0.320
-657.916	800.000	-0.023	0.073
-656.901	799.364	0.056	-0.156
-655.886	-200.000	-0.010	-0.042
-654.872	266.907	-0.179	0.316
-653.857	-93.372	-0.408	0.115
-652.843	-58.113	-0.107	0.047
-651.828	-200.000	-0.019	-0.165
-650.814	331.378	0.057	-0.112
-649.799	5.651	0.150	0.112
-648.784	-5.746	0.075	-0.052
-647.770	-126.075	-0.195	0.030
-646.755	-135.632	-0.206	-0.025
-645.741	-86.689	-0.209	-0.065
-644.726	517.311	-0.035	0.082
-643.711	-34.824	0.072	-0.040
-642.697	31.307	0.199	-0.173
-641.682	-77.236	-0.162	-0.057
-640.668	-20.871	0.078	0.048
-639.653	569.151	-0.093	-0.229
-638.638	29.595	0.044	0.037
-637.624	-148.837	-0.205	-0.017
-636.609	-200.000	0.024	-0.128
-635.595	-136.097	-0.235	0.028
-634.580	-200.000	-0.002	0.018
-633.565	40.802	-0.235	0.214
-632.551	359.796	0.059	-0.119
-631.536	-176.172	0.028	-0.001
-630.522	263.435	-0.034	-0.061
-629.507	800.000	0.041	-0.134
-628.492	152.103	-0.098	0.136
-627.478	140.845	-0.044	0.059
-626.463	340.409	-0.168	0.332
-625.449	-200.000	-0.049	-0.302
-624.434	-200.000	0.037	-0.301
-623.419	213.164	-0.119	0.191
-622.405	-120.146	0.098	-0.017
-621.390	-200.000	0.083	-0.392
-620.376	7.582	0.116	-0.088
-619.361	29.413	0.391	0.336
-618.346	-55.554	-0.253	-0.115
-617.332	-200.000	0.074	-0.353
-616.317	-90.235	0.042	0.012
-615.303	-200.000	0.007	0.040
-614.288	-103.835	0.338	-0.080
-613.273	800.000	-0.049	0.179
-612.259	-89.148	-0.463	-0.138
-611.244	-118.274	-0.099	0.018
-610.230	800.000	-0.120	0.373
-609.215	800.000	0.049	0.180
-608.201	153.610	-0.107	-0.148
-607.186	666.349	-0.037	0.095
-606.171	-116.456	-0.061	-0.011
-605.157	-165.540	-0.196	-0.009
-604.142	800.000	0.008	0.032
-603.128	223.431	0.125	-0.205
-602.113	-200.000	0.042	0.202
-601.098	-200.000	-0.025	-0.249
-600.084	81.903	-0.261	-0.286
-599.069	-91.962	0.139	0.040
-598.055	800.000	0.057	0.233
-597.040	-6.647	-0.246	-0.169
-596.025	-200.000	-0.007	0.214
-595.011	-200.000	0.039	0.210
-593.996	-200.000	0.067	0.341
-592.982	-124.842	-0.381	0.059
-591.967	-153.102	-0.075	-0.005
-590.952	800.000	-0.104	-0.292
-589.938	-66.598	-0.228	0.091
-588.923	-82.524	0.260	0.085
-587.909	171.337	0.020	-0.030
-586.894	191.248	0.091	0.139
-585.879	-4.768	-0.040	-0.028
-584.865	77.485	-0.101	0.109
-583.850	-200.000	-0.003	-0.138
-582.836	635.156	0.109	-0.280
-581.821	7.336	-0.468	-0.353
-580.806	161.374	-0.164	-0.232
-579.792	23.890	-0.059	0.049
-578.777	3.654	-0.112	-0.083
-577.763	-133.083	0.163	-0.021
-576.748	173.118	0.061	0.089
-575.733	800.000	-0.102	-0.286
-574.719	800.000	0.032	0.139
-573.704	439.765	0.021	0.047
-572.690	21.829	0.201	0.166
-571.675	-200.000	0.034	0.489
-570.661	-0.391	0.272	0.195
-569.646	42.740	0.203	-0.186
-568.631	342.729	-0.088	-0.173
-567.617	-142.229	0.315	-0.031
-566.602	-200.000	-0.006	-0.836
-565.588	-90.452	0.148	-0.043
-564.573	800.000	0.113	-0.344
-563.558	285.322	0.096	0.175
-562.544	-19.933	0.210	-0.131
-561.529	-79.910	-0.123	-0.042
-560.515	690.743	0.121	0.320
-559.500	265.169	-0.326	-0.574
-558.485	68.733	0.144	-0.149
-557.471	85.705	-0.304	0.337
-556.456	800.000	0.024	-0.070
-555.442	800.000	0.064	0.183
-554.427	8.509	-0.142	0.108
-553.412	-182.371	0.172	-0.003
-552.398	-119.914	-0.229	-0.040
-551.383	11.216	-0.172	0.133
-550.369	134.830	-0.058	-0.075
-549.354	156.792	-0.100	-0.140
-548.339	-101.405	0.258	-0.063
-547.325	800.000	0.098	-0.277
-546.310	-61.070	-0.246	0.105
-545.296	-200.000	0.036	-0.334
-544.281	800.000	-0.037	0.134
-543.266	-140.080	-0.075	-0.008
-542.252	67.120	-0.279	-0.287
-541.237	617.562	0.076	0.193
-540.223	24.584	0.192	0.161
-539.208	-119.103	0.157	-0.028
-538.193	252.974	-0.103	-0.176
-537.179	-200.000	0.051	0.564
-536.164	-77.293	0.188	0.066
-535.150	-120.933	-0.234	-0.040
-534.135	-200.000	-0.007	0.266
-533.121	800.000	0.057	0.163
-532.106	132.605	-0.059	0.076
-531.091	502.869	0.060	0.140
-530.077	-15.273	-0.153	-0.099
-529.062	-200.000	0.004	0.202
-528.048	-200.000	-0.014	0.068
-527.033	4.105	0.381	0.281
-526.018	17.453	-0.096	-0.077
-525.004	-111.230	0.159	-0.033
-523.989	208.358	-0.058	-0.091
-522.975	-74.456	0.203	0.074
-521.960	800.000	0.056	0.162
-520.945	-200.000	-0.034	0.481
-519.931	214.198	-0.025	0.041
-518.916	-72.651	-0.153	-0.057
-517.902	4.210	-0.207	0.152
-516.887	382.589	0.049	0.101
-515.872	-32.160	-0.161	-0.091
-514.858	-68.778	0.054	0.021
-513.843	9.174	0.332	0.253
-512.829	-200.000	0.027	-0.224
-511.814	29.946	0.159	0.136
-510.799	-200.000	0.058	0.257
-509.785	2.156	-0.174	-0.127
-508.770	22.917	-0.133	-0.110
-507.756	-158.555	-0.251	0.015
-506.741	144.572	0.076	0.103
-505.726	800.000	-0.096	0.341
-504.712	-87.323	-0.079	0.024
-503.697	54.071	-0.234	0.226
-502.683	-49.040	-0.320	-0.154
-501.668	82.588	0.074	-0.081
-500.653	-200.000	-0.007	0.303
-499.639	667.991	0.085	0.220
-498.624	-44.678	-0.278	-0.140
-497.610	-68.238	0.280	0.110
-496.595	231.777	-0.098	-0.162
-495.581	-69.834	0.083	0.032
-494.566	-137.503	0.142	-0.016
-493.551	-200.000	0.071	0.338
-492.537	-54.931	-0.078	-0.035
-491.522	-56.427	0.385	0.172
-490.508	-200.000	0.002	0.071
-489.493	-82.207	0.159	-0.052
-488.478	-105.666	-0.515	-0.117
-487.464	-200.000	-0.031	0.288
-486.449	-200.000	-0.095	0.467
-485.435	-169.016	-0.459	-0.017
-484.420	-113.426	0.178	-0.035
-483.405	45.656	-0.026	0.024
-482.391	756.459	0.015	0.042
-481.376	-80.005	0.225	0.076
-480.362	218.158	0.126	0.201
-479.347	-71.247	-0.044	-0.016
-478.332	152.822	0.283	-0.390
-477.318	206.040	0.200	-0.312
-476.303	385.438	-0.142	0.294
-475.289	-48.306	-0.240	-0.116
-474.274	26.937	-0.198	-0.167
-473.259	-84.018	-0.184	0.059
-472.245	113.180	-0.256	-0.313
-471.230	-137.005	-0.098	0.011
-470.216	-167.579	-0.161	0.006
-469.201	-91.483	-0.178	0.051
-468.186	143.778	-0.074	-0.099
-467.172	-148.424	-0.177	-0.015
-466.157	-68.994	-0.160	-0.062
-465.143	275.048	-0.055	-0.098
-464.128	74.590	-0.226	-0.239
-463.113	351.896	-0.071	-0.142
-462.099	283.793	0.203	-0.367
-461.084	-83.935	-0.205	-0.065
-460.070	-200.000	-0.045	-0.261
-459.055	-146.068	0.358	-0.032
-458.040	-100.514	-0.614	-0.152
-457.026	10.129	0.151	-0.115
-456.011	80.500	0.123	0.133
-454.997	800.000	0.026	0.079
-453.982	-200.000	-0.056	-0.426
-452.968	-158.456	-0.146	-0.008
-451.953	392.793	0.082	0.171
-450.938	-64.399	0.151	0.062
-449.924	261.600	-0.058	-0.102
-448.909	344.857	-0.260	-0.512
-447.895	-129.367	-0.155	-0.022
-446.880	-200.000	-0.085	0.400
-445.865	800.000	0.092	0.333
-444.851	32.716	-0.074	0.064
-443.836	-161.183	0.435	0.023
-442.822	-200.000	0.005	-0.063
-441.807	21.548	-0.181	0.148
-440.792	135.960	0.132	-0.172
-439.778	51.253	0.162	-0.155
-438.763	800.000	0.049	0.155
-437.749	-200.000	-0.071	-0.326
-436.734	-75.515	0.295	0.105
-435.719	-35.760	-0.189	0.103
-434.705	800.000	0.057	-0.250
-433.690	-140.137	-0.230	-0.024
-432.676	-0.939	0.244	0.173
-431.661	-200.000	-0.007	0.080
-430.646	-3.165	0.083	0.058
-429.632	-200.000	-0.036	0.302
-428.617	-200.000	0.035	0.155
-427.603	-117.627	0.283	0.051
-426.588	62.681	-0.078	-0.079
-425.573	28.713	-0.231	-0.197
-424.559	69.428	-0.094	-0.097
-423.544	206.829	-0.036	-0.056
-422.530	-117.344	0.281	-0.051
-421.515	-200.000	0.019	0.085
-420.500	458.198	-0.017	-0.038
-419.486	-66.911	0.276	0.110
-418.471	-151.122	0.144	0.011
-417.457	121.353	-0.144	-0.181
-416.442	122.526	-0.159	0.199
-415.428	715.589	-0.079	0.209
-414.413	-86.943	-0.196	0.060
-413.398	130.784	-0.253	0.325
-412.384	-115.787	-0.286	0.054
-411.369	800.000	0.056	-0.164
-410.355	149.123	-0.195	-0.265
-409.340	-150.680	0.453	0.035
-408.325	-88.798	0.061	-0.018
-407.311	568.580	-0.062	0.151
-406.296	-59.758	0.180	0.077
-405.282	-100.208	0.302	0.075
-404.267	-117.014	-0.184	-0.034
-403.252	800.000	-0.105	0.383
-402.238	-45.627	0.187	0.093
-401.223	118.818	-0.143	-0.177
-400.209	-3.207	0.068	-0.048
-399.194	202.378	-0.036	0.056
-398.179	-166.217	-0.189	0.008
-397.165	148.865	-0.125	0.170
-396.150	331.361	0.041	0.079
-395.136	-200.000	-0.031	-0.149
-394.121	376.323	-0.106	0.217
-393.106	-4.773	-0.317	-0.219
-392.092	73.325	-0.109	0.115
-391.077	-179.354	0.246	-0.005
-390.063	-200.000	0.051	0.509
-389.048	-29.378	0.209	0.120
-388.033	-66.590	-0.152	-0.060
-387.019	69.541	-0.184	0.189
-386.004	-200.000	-0.043	-0.217
-384.990	73.419	0.077	0.081
-383.975	158.463	-0.148	-0.205
-382.960	-148.279	0.141	0.012
-381.946	18.553	0.118	-0.095
-380.931	-200.000	0.020	-0.435
-379.917	32.548	0.021	-0.018
-378.902	-200.000	0.008	-0.100
-377.888	108.362	-0.134	-0.161
-376.873	-9.110	0.399	0.268
-375.858	800.000	0.092	0.294
-374.844	119.983	-0.094	0.116
-373.829	92.168	0.095	-0.108
-372.815	221.701	0.230	0.371
-371.800	85.060	0.302	-0.331
-370.785	200.722	-0.113	-0.174
-369.771	1.308	0.070	0.050
-368.756	-200.000	-0.072	0.526
-367.742	-54.295	0.223	-0.101
-366.727	10.081	0.211	-0.160
-365.712	-200.000	0.006	-0.035
-364.698	21.715	-0.207	-0.169
-363.683	39.527	-0.094	-0.085
-362.669	-108.630	-0.229	-0.049
-361.654	197.718	-0.070	-0.107
-360.639	12.432	-0.258	0.199
-359.625	25.299	-0.105	-0.087
-358.610	-79.964	0.390	-0.131
-357.596	-76.721	0.126	0.044
-356.581	-68.361	-0.286	-0.111
-355.566	-200.000	0.013	0.209
-354.552	-43.530	0.195	0.099
-353.537	-56.847	-0.285	-0.126
-352.523	-200.000	-0.178	0.000
-351.508	323.860	-0.075	-0.142
-350.493	275.201	0.071	0.127
-349.479	800.000	-0.145	0.427
-348.464	178.562	0.051	0.075
-347.450	112.358	0.149	-0.180
-346.435	-200.000	-0.030	-0.226
-345.420	8.357	0.263	0.198
-344.406	-200.000	0.013	-0.376
-343.391	-20.778	-0.190	-0.116
-342.377	65.965	0.282	-0.286
-341.362	62.058	0.207	-0.206
-340.348	20.561	0.119	0.096
-339.333	-200.000	0.057	-0.390
-338.318	-109.652	-0.270	0.057
-337.304	-34.178	0.258	-0.142
-336.289	-200.000	0.020	0.143
-335.275	534.987	-0.160	0.380
-334.260	-31.878	-0.295	0.165
-333.245	-180.949	-0.251	-0.005
-332.231	-148.922	0.220	-0.018
-331.216	307.427	-0.020	-0.037
-330.202	-94.468	0.134	0.036
-329.187	-186.090	-0.588	-0.009
-328.172	-200.000	0.051	-0.396
-327.158	15.304	0.084	0.066
-326.143	-80.975	-0.343	0.114
-325.129	-58.067	-0.272	0.119
-324.114	-96.944	0.038	0.010
-323.099	800.000	-0.050	0.200
-322.085	-200.000	0.030	-0.213
-321.070	-109.331	0.260	0.055
-320.056	800.000	-0.096	-0.312
-319.041	382.099	-0.141	-0.289
-318.026	-176.690	-0.112	0.003
-317.012	23.306	0.060	0.050
-315.997	265.084	0.082	-0.144
-314.983	325.776	-0.146	0.279
-313.968	-177.826	0.276	-0.007
-312.953	-200.000	-0.032	-0.235
-311.939	-200.000	0.006	-0.034
-310.924	-110.172	-0.102	-0.021
-309.910	-106.883	0.245	-0.054
-308.895	-83.304	-0.313	-0.100
-307.880	-5.728	0.089	0.061
-306.866	-62.472	0.138	-0.057
-305.851	128.167	-0.113	0.144
-304.837	194.659	0.072	-0.110
-303.822	463.937	-0.097	0.216
-302.807	-200.000	-0.024	0.109
-301.793	-68.857	-0.312	0.120
-300.778	-89.706	0.316	0.092
-299.764	-10.766	0.055	0.037
-298.749	697.780	-0.134	-0.351
-297.735	-100.759	0.219	0.054
-296.720	36.030	-0.211	-0.186
-295.705	175.608	0.085	-0.124
-294.691	-110.478	0.211	-0.044
-293.676	-117.949	0.169	-0.030
-292.662	-76.203	0.082	0.029
-291.647	-47.218	0.190	-0.093
-290.632	-76.446	0.093	0.033
-289.618	242.321	0.118	0.197
-288.603	-64.779	-0.223	0.090
-287.589	519.195	0.078	0.183
-286.574	-200.000	0.036	-0.540
-285.559	-38.582	0.207	-0.109
-284.545	-200.000	0.021	0.109
-283.530	206.673	-0.058	-0.090
-282.516	-200.000	-0.009	-0.233
-281.501	390.113	0.142	0.294
-280.486	-11.574	-0.286	-0.188
-279.472	-165.688	0.467	-0.020
-278.457	-200.000	-0.022	0.151
-277.443	55.516	-0.093	-0.089
-276.428	-2.284	0.159	0.111
-275.413	659.328	-0.108	-0.277
-274.399	27.502	-0.224	0.188
-273.384	37.275	-0.068	0.060
-272.370	123.928	0.087	-0.109
-271.355	-63.501	0.272	-0.112
-270.340	-26.414	-0.236	0.138
-269.326	-61.306	0.373	0.156
-268.311	-115.552	0.195	0.037
-267.297	128.173	-0.161	0.205
-266.282	800.000	0.055	0.211
-265.267	372.055	-0.122	0.247
-264.253	550.806	-0.035	-0.083
-263.238	-81.946	0.110	-0.036
-262.224	-27.160	0.095	0.055
-261.209	800.000	0.030	-0.128
-260.195	-81.881	0.245	-0.080
-259.180	-200.000	-0.018	0.141
-258.165	92.093	0.141	0.158
-257.151	190.257	-0.052	0.078
-256.136	716.718	0.117	0.310
-255.122	-106.816	0.064	0.014
-254.107	800.000	0.064	0.208
-253.092	-200.000	-0.015	-0.249
-252.078	-200.000	0.035	0.282
-251.063	-200.000	-0.018	0.148
-250.049	-103.870	-0.202	0.047
-249.034	-78.481	-0.436	-0.149
-248.019	-34.257	-0.350	-0.191
-247.005	-200.000	0.009	-0.420
-245.990	-144.518	-0.073	-0.007
-244.976	460.967	0.051	-0.114
-243.961	-58.468	0.191	0.083
-242.946	-102.393	0.140	-0.034
-241.932	-200.000	0.035	-0.187
-240.917	-200.000	-0.005	0.358
-239.903	316.666	0.106	0.200
-238.888	-200.000	0.006	0.124
-237.873	800.000	0.028	0.088
-236.859	-23.683	0.292	-0.174
-235.844	-200.000	0.024	0.240
-234.830	-63.175	-0.342	0.141
-233.815	-200.000	0.010	0.240
-232.800	-199.363	0.179	0.001
-231.786	223.232	-0.087	-0.140
-230.771	334.682	-0.046	-0.089
-229.757	67.740	0.337	-0.342
-228.742	800.000	-0.158	-0.517
-227.727	136.065	0.286	-0.371
-226.713	689.953	0.111	0.288
-225.698	800.000	0.052	-0.211
-224.684	347.345	0.068	0.133
-223.669	63.061	-0.218	0.218
-222.655	-80.786	-0.110	-0.036
-221.640	-174.634	0.435	-0.012
-220.625	-110.420	0.361	0.075
-219.611	-140.149	0.080	-0.008
-218.596	-200.000	0.103	0.505
-217.582	519.423	-0.094	0.219
-216.567	-72.890	0.276	0.101
-215.552	-200.000	0.013	0.331
-214.538	443.467	-0.091	-0.199
-213.523	-200.000	0.036	0.317
-212.509	-150.210	-0.327	-0.025
-211.494	-45.220	0.300	0.148
-210.479	126.716	0.152	-0.192
-209.465	-4.278	0.145	0.100
-208.450	591.843	0.019	0.046
-207.436	13.424	0.218	0.169
-206.421	8.319	0.383	-0.286
-205.406	-94.294	0.009	0.002
-204.392	-2.842	0.355	0.247
-203.377	81.033	-0.165	-0.177
-202.363	-28.602	-0.278	-0.159
-201.348	-102.068	0.248	0.060
-200.333	800.000	-0.088	-0.297
-199.319	470.315	0.082	0.182
-198.304	209.451	0.019	-0.030
-197.290	209.541	-0.198	-0.309
-196.275	-200.000	0.003	-0.068
-195.260	326.321	0.172	-0.327
-194.246	-8.500	0.088	0.059
-193.231	-11.999	0.140	0.091
-192.217	469.481	0.078	0.175
-191.202	-92.359	-0.106	0.030
-190.187	800.000	-0.059	-0.188
-189.173	800.000	0.041	0.134
-188.158	196.620	0.165	-0.250
-187.144	24.321	-0.047	0.038
-186.129	-129.128	0.239	-0.033
-185.114	-41.526	0.087	0.044
-184.100	-64.372	-0.340	-0.137
-183.085	131.985	-0.148	-0.189
-182.071	-200.000	-0.019	0.116
-181.056	184.018	0.129	-0.189
-180.042	-23.846	0.322	0.192
-179.027	-200.000	0.034	0.218
-178.012	76.800	-0.214	-0.226
-176.998	309.229	-0.017	-0.032
-175.983	358.697	-0.072	-0.144
-174.969	-67.958	0.067	0.026
-173.954	-200.000	0.064	0.347
-172.939	91.438	0.257	-0.287
-171.925	800.000	0.072	0.238
-170.910	-29.163	-0.333	-0.190
-169.896	-125.184	0.178	0.027
-168.881	-80.605	0.113	0.037
-167.866	-200.000	0.010	0.124
-166.852	97.337	-0.077	-0.088
-165.837	-200.000	0.006	-0.111
-164.823	-83.587	-0.060	-0.019
-163.808	-29.420	-0.316	-0.180
-162.793	154.129	0.246	-0.336
-161.779	190.237	-0.107	-0.160
-160.764	12.044	0.214	-0.163
-159.750	-58.431	0.068	-0.029
-158.735	52.234	0.316	0.299
-157.720	-200.000	0.003	-0.311
-156.706	28.974	0.138	0.116
-155.691	0.206	-0.145	0.103
-154.677	-10.632	-0.376	0.247
-153.662	-1.659	0.187	-0.131
-152.647	-177.323	-0.145	-0.004
-151.633	-136.304	-0.247	0.029
-150.618	58.114	0.151	0.146
-149.604	45.593	0.115	-0.106
-148.589	76.542	0.171	-0.180
-147.574	-200.000	-0.019	-0.166
-146.560	-200.000	-0.024	-0.138
-145.545	89.917	0.188	-0.208
-144.531	25.301	0.269	-0.222
-143.516	62.892	-0.123	0.122
-142.502	-79.142	0.030	0.010
-141.487	800.000	-0.090	-0.323
-140.472	-200.000	-0.004	0.132
-139.458	34.115	-0.143	0.124
-138.443	-200.000	-0.027	-0.141
-137.429	-25.724	0.104	-0.061
-136.414	19.224	-0.025	0.020
-135.399	86.328	-0.106	-0.116
-134.385	-20.840	0.107	-0.065
-133.370	-57.662	-0.055	0.024
-132.356	-200.000	0.007	0.193
-131.341	800.000	0.059	0.217
-130.326	-40.974	-0.167	0.086
-129.312	-120.615	0.092	-0.015
-128.297	708.436	-0.025	-0.065
-127.283	-79.070	0.385	-0.130
-126.268	174.255	-0.254	-0.364
-125.253	-200.000	0.041	-0.436
-124.239	800.000	-0.059	-0.255
-123.224	-7.340	-0.365	-0.245
-122.210	79.207	-0.144	-0.153
-121.195	41.161	0.141	-0.126
-120.180	47.839	0.028	-0.026
-119.166	-200.000	-0.011	0.098
-118.151	-74.506	-0.598	0.214
-117.137	800.000	-0.037	-0.139
-116.122	-31.964	-0.368	-0.204
-115.107	-7.300	0.065	0.044
-114.093	-13.898	0.210	0.135
-113.078	130.873	0.174	0.222
-112.064	-200.000	-0.007	0.059
-111.049	-200.000	0.038	0.203
-110.034	-94.902	-0.137	0.037
-109.020	-145.081	-0.150	0.014
-108.005	-200.000	0.101	0.544
-106.991	-100.759	0.111	-0.027
-105.976	-45.120	-0.291	0.143
-104.962	-146.016	-0.231	0.020
-103.947	151.934	0.086	0.116
-102.932	-200.000	-0.004	0.089
-101.918	-87.110	0.214	0.065
-100.903	199.866	0.130	0.198
-99.889	424.516	-0.159	-0.338
-98.874	427.424	0.090	-0.192
-97.859	155.439	-0.187	-0.255
-96.845	208.694	-0.052	-0.080
-95.830	129.166	0.119	0.150
-94.816	-200.000	-0.031	0.167
-93.801	-9.696	-0.188	0.124
-92.786	-64.090	-0.354	0.143
-91.772	-35.386	0.391	-0.211
-90.757	143.194	-0.104	0.137
-89.743	24.416	0.132	0.108
-88.728	-166.463	0.227	0.009
-87.713	645.345	0.106	0.268
-86.699	-128.317	0.088	-0.012
-85.684	101.923	0.364	0.420
-84.670	-23.514	-0.053	0.032
-83.655	-30.183	0.153	-0.086
-82.640	154.520	-0.117	0.160
-81.626	-200.000	-0.078	0.498
-80.611	-200.000	0.003	0.086
-79.597	-83.280	-0.132	0.042
-78.582	352.478	0.114	0.224
-77.567	130.311	-0.058	0.073
-76.553	-103.782	-0.218	0.050
-75.538	-49.837	0.129	0.060
-74.524	-174.159	0.112	-0.003
-73.509	141.096	-0.187	-0.245
-72.494	-143.102	-0.060	-0.006
-71.480	-181.312	-0.358	-0.007
-70.465	-56.825	0.135	-0.059
-69.451	-60.226	-0.143	-0.060
-68.436	-178.801	-0.279	0.006
-67.422	-70.627	0.429	-0.161
-66.407	-13.483	-0.432	-0.277
-65.392	-109.710	-0.126	-0.026
-64.378	26.386	0.240	-0.199
-63.363	346.130	-0.115	-0.225
-62.349	-109.092	0.159	0.033
-61.334	39.132	-0.795	-0.703
-60.319	800.000	0.247	0.715
-59.305	405.039	-0.452	-0.943
-58.290	44.202	0.669	0.607
-57.276	-200.000	0.278	1.320
-56.261	-200.000	97.660	575.439
-55.246	626.471	1403.482	3503.636
-54.232	186.209	2608.599	3838.048
-53.217	121.058	2184.064	2687.910
-52.203	45.977	1633.097	1494.611
-51.188	37.793	1367.387	1201.203
-50.173	34.455	1324.836	1143.795
-49.159	56.475	1373.745	1320.918
-48.144	60.334	1391.402	1361.356
-47.130	38.070	1345.716	1183.659
-46.115	34.415	1327.949	1146.058
-45.100	34.130	1323.922	1140.831
-44.086	34.070	1321.500	1138.339
-43.071	34.090	1318.536	1135.859
-42.057	34.108	1316.682	1134.324
-41.042	34.057	1315.530	1132.987
-40.027	34.184	1313.483	1131.930
-39.013	34.005	1312.032	1129.571
-37.998	34.210	1309.485	1128.552
-36.984	34.325	1308.073	1127.971
-35.969	34.255	1306.367	1126.040
-34.954	34.297	1304.566	1124.690
-33.940	34.229	1303.554	1123.375
-32.925	34.364	1302.431	1123.157
-31.911	34.434	1300.324	1121.709
-30.896	34.338	1299.263	1120.181
-29.881	34.312	1297.909	1118.819
-28.867	34.332	1296.660	1117.816
-27.852	34.357	1294.944	1116.436
-26.838	34.285	1293.781	1114.971
-25.823	34.221	1292.638	1113.567
-24.809	34.357	1290.670	1112.621
-23.794	34.320	1289.146	1111.046
-22.779	34.351	1288.024	1110.214
-21.765	34.403	1286.776	1109.396
-20.750	34.381	1285.712	1108.311
-19.736	34.288	1284.526	1106.702
-18.721	34.195	1282.998	1104.800
-17.706	34.194	1281.900	1103.810
-16.692	34.242	1280.408	1102.755
-15.677	34.190	1279.723	1101.822
-14.663	34.142	1278.416	1100.378
-13.648	34.202	1277.418	1099.817
-12.633	34.139	1276.515	1098.634
-11.619	34.244	1275.689	1098.484
-10.604	34.303	1274.381	1097.659
-9.590	34.222	1273.582	1096.460
-8.575	34.112	1273.151	1095.412
-7.560	34.198	1271.942	1094.822
-6.546	34.181	1270.820	1093.714
-5.531	34.117	1270.121	1092.701
-4.517	34.169	1269.100	1092.080
-3.502	34.193	1268.280	1091.469
-2.487	34.152	1267.771	1090.751
-1.473	34.130	1263.652	1087.036
-0.458	32.881	1248.385	1066.810
0.556	27.967	1230.193	1026.589
1.571	23.835	1235.752	1007.769
2.586	22.919	1250.723	1014.624
3.600	22.197	1239.837	1001.592
4.615	17.167	1168.039	916.442
5.629	9.030	1092.000	815.503
6.644	5.300	1072.005	781.862
7.659	5.026	1069.260	778.425
8.673	4.885	1068.003	776.739
9.688	4.910	1066.790	775.910
10.702	5.148	1065.249	775.906
11.717	10.204	1071.952	805.956
12.731	17.469	1082.623	850.329
13.746	19.383	1083.445	860.460
14.761	18.110	1081.727	852.676
15.775	17.057	1079.278	845.427
16.790	15.879	1077.213	837.876
17.804	15.074	1076.178	832.989
18.819	14.861	1074.337	830.434
19.834	14.625	1073.613	828.629
20.848	14.392	1072.761	826.742
21.863	14.103	1072.013	824.661
22.877	13.999	1071.162	823.416
23.892	13.818	1070.974	822.303
24.907	14.095	1069.782	822.686
25.921	14.133	1068.711	821.976
26.936	13.975	1067.272	820.017
27.950	14.208	1065.554	819.775
28.965	14.200	1064.343	818.731
29.980	14.335	1062.744	818.090
30.994	14.178	1061.744	816.477
32.009	14.368	1060.762	816.580
33.023	14.267	1059.629	815.142
34.038	14.180	1058.784	813.996
35.053	14.243	1057.583	813.309
36.067	14.163	1056.648	812.124
37.082	14.131	1056.265	811.603
38.096	14.258	1055.166	811.305
39.111	14.314	1054.222	810.784
40.126	14.143	1053.112	809.025
41.140	13.941	1051.916	807.055
42.155	13.873	1050.918	805.887
43.169	13.987	1049.311	805.136
44.184	13.877	1048.554	803.950
45.199	13.889	1047.657	803.251
46.213	14.064	1046.536	803.163
47.228	14.135	1045.344	802.521
48.242	14.086	1044.915	801.883
49.257	14.043	1043.608	800.602
50.271	14.265	1042.364	800.647
51.286	14.146	1041.984	799.712
52.301	14.071	1040.650	798.257
53.315	14.084	1039.763	797.568
54.330	14.052	1038.628	796.472
55.344	13.927	1037.877	795.230
56.359	13.938	1037.192	794.686
57.374	14.008	1036.005	794.042
58.388	13.893	1035.135	792.754
59.403	13.924	1034.183	792.104
60.417	13.887	1033.837	791.590
61.432	13.973	1032.689	791.050
62.447	13.798	1032.223	789.792
63.461	13.748	1030.966	788.524
64.476	13.915	1029.889	788.423
65.490	13.797	1029.650	787.609
66.505	13.862	1028.678	787.103
67.520	13.815	1028.195	786.442
68.534	13.913	1027.360	786.198
69.549	13.832	1026.791	785.313
70.563	13.735	1026.305	784.411
71.578	13.807	1025.232	783.862
72.593	13.743	1024.518	782.942
73.607	13.817	1023.427	782.392
74.622	13.752	1022.928	781.632
75.636	13.788	1021.900	780.949
76.651	13.809	1021.513	780.682
77.666	13.932	1020.464	780.387
78.680	13.835	1019.895	779.427
79.695	13.809	1019.570	778.989
80.709	13.899	1018.766	778.729
81.724	13.956	1018.295	778.568
82.739	14.067	1017.264	778.228
83.753	14.043	1016.612	777.548
84.768	14.159	1015.894	777.476
85.782	14.336	1014.569	777.216
86.797	14.264	1013.797	776.222
87.812	14.166	1013.277	775.297
88.826	14.110	1012.295	774.219
89.841	14.181	1011.430	773.817
90.855	14.230	1010.597	773.337
91.870	14.335	1009.392	772.837
92.884	14.338	1008.142	771.824
93.899	14.218	1007.948	771.051
94.914	14.204	1007.230	770.371
95.928	14.360	1006.203	770.235
96.943	14.286	1005.360	769.181
97.957	14.234	1004.127	767.928
98.972	14.326	1003.220	767.593
99.987	14.270	1002.416	766.650
101.001	14.222	1001.171	765.412
102.016	14.257	1000.567	765.045
103.030	14.161	999.839	763.979
104.045	14.301	998.801	763.759
105.060	14.228	998.263	762.943
106.074	14.001	997.514	761.266
107.089	14.000	996.233	760.217
108.103	13.902	995.934	759.470
109.118	13.990	994.539	758.741
110.133	13.840	993.715	757.362
111.147	13.962	992.721	757.092
112.162	13.982	991.875	756.473
113.176	14.031	991.428	756.288
114.191	14.153	990.442	756.026
115.206	14.095	989.782	755.190
116.220	14.019	988.847	754.064
117.235	13.972	987.974	753.120
118.249	13.924	987.038	752.123
119.264	14.106	985.762	751.907
120.279	14.080	985.318	751.382
121.293	13.948	984.770	750.302
122.308	13.876	983.917	749.260
123.322	14.056	982.392	748.846
124.337	13.966	981.727	747.865
125.352	14.009	980.560	747.103
126.366	13.872	979.368	745.517
127.381	13.989	978.185	745.074
128.395	14.037	977.361	744.597
129.410	14.005	976.585	743.793
130.424	14.138	976.228	744.054
131.439	14.169	975.227	743.362
132.454	14.147	974.484	742.630
133.468	14.163	973.822	742.134
134.483	14.027	972.997	740.834
135.497	14.116	972.097	740.477
136.512	14.299	970.969	740.367
137.527	14.113	970.434	739.067
138.541	13.957	969.785	737.814
139.556	14.275	968.504	738.187
140.570	14.277	967.926	737.689
141.585	14.394	966.942	737.390
142.600	14.343	966.297	736.608
143.614	14.361	965.563	736.061
144.629	14.442	964.744	735.731
145.643	14.417	963.909	734.917
146.658	14.308	963.021	733.695
147.673	14.241	961.748	732.367
148.687	14.189	961.136	731.607
149.702	14.126	960.290	730.620
150.716	14.070	959.602	729.787
151.731	14.111	959.228	729.619
152.746	14.297	958.139	729.542
153.760	14.366	957.647	729.405
154.775	14.429	957.020	729.139
155.789	14.312	956.623	728.259
156.804	14.339	955.858	727.729
157.819	14.382	955.111	727.286
158.833	14.478	954.585	727.239
159.848	14.458	953.854	726.530
160.862	14.374	952.791	725.289
161.877	14.292	951.818	724.128
162.892	14.229	951.110	723.253
163.906	14.183	949.815	722.005
164.921	14.203	949.171	721.535
165.935	14.363	947.924	721.218
166.950	14.426	946.822	720.588
167.964	14.279	946.439	719.596
168.979	14.273	945.283	718.628
169.994	14.352	944.519	718.326
171.008	14.368	943.924	717.877
172.023	14.501	943.375	717.968
173.037	14.554	942.766	717.673
174.052	14.462	941.685	716.387
175.067	14.456	940.814	715.640
176.081	14.423	940.425	715.138
177.096	14.283	940.334	714.403
178.110	14.352	939.671	714.132
179.125	14.406	938.658	713.530
180.140	14.365	938.433	713.119
181.154	14.467	938.212	713.328
182.169	14.578	937.531	713.222
183.183	14.553	936.949	712.608
184.198	14.805	935.198	712.286
185.213	14.623	935.119	711.388
186.227	14.639	934.658	711.044
187.242	14.761	934.012	711.009
188.256	14.856	932.993	710.572
189.271	14.727	932.540	709.619
190.286	14.550	931.742	708.197
191.300	14.252	931.446	706.645
192.315	14.391	930.545	706.485
193.329	14.242	929.826	705.249
194.344	14.338	929.422	705.285
195.359	14.418	928.904	705.167
196.373	14.658	928.198	705.582
197.388	14.725	927.510	705.282
198.402	14.846	927.305	705.572
199.417	14.825	927.015	705.203
200.432	14.883	925.858	704.503
201.446	15.038	925.097	704.514
202.461	14.963	924.637	703.787
203.475	14.955	924.200	703.359
204.490	14.867	923.406	702.321
205.504	14.964	922.507	701.984
206.519	14.984	921.752	701.428
207.534	14.820	921.204	700.266
208.548	14.944	920.701	700.338
209.563	14.884	919.967	699.469
210.577	14.873	919.384	698.918
211.592	15.095	918.477	699.092
212.607	15.033	917.800	698.255
213.621	15.205	916.638	698.029
214.636	15.087	916.132	697.088
215.650	15.119	915.600	696.754
216.665	14.983	915.531	696.075
217.680	15.109	914.534	695.781
218.694	15.088	913.597	694.919
219.709	15.156	913.197	694.836
220.723	15.161	912.549	694.303
221.738	15.109	911.905	693.535
222.753	15.146	911.220	693.105
223.767	15.256	910.507	692.957
224.782	15.230	910.081	692.464
225.796	15.366	909.170	692.271
226.811	15.305	908.622	691.539
227.826	15.203	908.019	690.598
228.840	15.206	907.674	690.286
229.855	15.281	906.307	689.498
230.869	15.183	905.735	688.595
231.884	15.150	905.135	687.944
232.899	15.090	904.437	687.107
233.913	15.109	903.919	686.731
234.928	15.189	903.270	686.505
235.942	15.159	902.541	685.768
236.957	15.142	901.958	685.192
237.972	15.077	901.616	684.607
238.986	15.172	900.829	684.338
240.001	15.186	900.270	683.908
241.015	15.253	899.399	683.460
242.030	15.271	899.239	683.350
243.045	15.218	898.509	682.520
244.059	15.310	897.592	682.138
245.074	15.288	896.911	681.472
246.088	15.392	896.619	681.611
247.103	15.445	895.623	681.009
248.117	15.454	895.588	680.957
249.132	15.615	894.658	680.842
250.147	15.706	894.276	680.862
251.161	15.680	893.447	680.063
252.176	15.765	892.597	679.699
253.190	15.694	892.259	679.094
254.205	15.727	891.955	678.937
255.220	15.766	891.157	678.428
256.234	15.763	890.177	677.611
257.249	15.869	889.619	677.552
258.263	15.849	888.977	676.922
259.278	15.804	888.225	676.108
260.293	15.774	887.876	675.662
261.307	15.909	887.548	675.894
262.322	15.858	886.694	674.982
263.336	15.992	885.591	674.620
264.351	16.006	885.382	674.457
265.366	15.945	884.694	673.627
266.380	16.127	883.785	673.603
267.395	15.936	883.382	672.473
268.409	15.926	882.614	671.789
269.424	15.910	881.863	671.095
270.439	15.987	880.855	670.576
271.453	15.746	881.004	669.667
272.468	15.983	879.877	669.693
273.482	16.009	879.531	669.476
274.497	16.027	878.439	668.657
275.512	16.033	878.304	668.518
276.526	16.108	877.752	668.338
277.541	16.017	877.286	667.562
278.555	16.133	876.332	667.238
279.570	16.284	875.744	667.327
280.585	16.211	874.625	666.128
281.599	16.203	873.813	665.418
282.614	16.172	873.621	665.092
283.628	16.090	873.258	664.430
284.643	15.972	872.898	663.634
285.657	16.060	872.038	663.267
286.672	16.139	871.525	663.131
287.687	16.144	870.676	662.445
288.701	16.109	870.128	661.833
289.716	16.275	869.620	662.036
290.730	16.178	869.029	661.149
291.745	16.400	868.085	661.241
292.760	16.320	867.450	660.388
293.774	16.413	867.316	660.589
294.789	16.406	866.638	659.988
295.803	16.246	865.696	658.589
296.818	16.228	865.201	658.083
297.833	16.191	864.514	657.359
298.847	16.321	863.990	657.407
299.862	16.341	863.577	657.114
300.876	16.432	862.649	656.703
301.891	16.412	862.500	656.453
302.906	16.392	861.970	655.912
303.920	16.525	861.172	655.764
304.935	16.654	860.681	655.834
305.949	16.438	860.254	654.611
306.964	16.584	858.975	654.146
307.979	16.625	858.705	654.041
308.993	16.572	858.196	653.389
310.008	16.707	857.300	653.170
311.022	16.540	856.897	652.162
312.037	16.531	856.382	651.677
313.052	16.450	856.011	651.025
314.066	16.416	855.396	650.372
315.081	16.543	854.467	650.094
316.095	16.546	853.872	649.594
317.110	16.480	853.678	649.137
318.125	16.614	853.022	649.096
319.139	16.437	852.910	648.273
320.154	16.451	852.424	647.899
321.168	16.524	851.571	647.474
322.183	16.686	850.683	647.360
323.197	16.526	850.511	646.562
324.212	16.646	850.104	646.655
325.227	16.535	849.478	645.695
326.241	16.608	848.882	645.465
327.256	16.601	848.398	645.014
328.270	16.652	847.598	644.540
329.285	16.657	846.751	643.861
330.300	16.532	846.593	643.206
331.314	16.575	845.979	642.847
332.329	16.706	845.574	642.978
333.343	16.644	845.336	642.508
334.358	16.857	844.650	642.738
335.373	16.737	844.335	641.986
336.387	16.825	844.054	642.048
337.402	16.891	843.601	641.896
338.416	16.887	843.599	641.822
339.431	17.095	842.613	641.802
340.446	17.043	842.428	641.406
341.460	17.028	841.896	640.891
342.475	17.127	841.784	641.121
343.489	17.084	841.339	640.564
344.504	17.263	840.493	640.536
345.519	17.167	840.242	639.927
346.533	17.101	839.596	639.131
347.548	17.041	839.033	638.420
348.562	17.043	838.765	638.165
349.577	16.871	838.512	637.270
350.592	16.953	837.448	636.712
351.606	16.911	837.111	636.242
352.621	16.900	836.391	635.598
353.635	16.994	835.480	635.203
354.650	17.103	835.120	635.282
355.665	17.111	833.851	634.290
356.679	17.270	833.351	634.445
357.694	17.123	833.093	633.644
358.708	17.202	832.528	633.454
359.723	17.155	831.817	632.680
360.738	17.222	831.189	632.397
361.752	17.202	830.865	632.022
362.767	17.316	830.359	632.005
363.781	17.329	829.929	631.669
364.796	17.273	829.394	630.999
365.810	17.447	828.906	631.215
366.825	17.506	828.619	631.158
367.840	17.455	828.171	630.573
368.854	17.510	827.697	630.359
369.869	17.527	826.622	629.548
370.883	17.431	826.677	629.181
371.898	17.570	826.377	629.410
372.913	17.451	825.868	628.527
373.927	17.498	825.144	628.095
374.942	17.572	824.877	628.110
375.956	17.524	824.665	627.713
376.971	17.590	824.108	627.477
377.986	17.735	823.654	627.610
379.000	17.762	823.146	627.265
380.015	17.656	823.170	626.840
381.029	17.748	821.876	626.138
382.044	17.772	821.335	625.756
383.059	17.737	820.847	625.200
384.073	17.689	820.350	624.593
385.088	17.668	819.820	624.057
386.102	17.626	818.959	623.193
387.117	17.664	818.794	623.150
388.132	17.572	818.202	622.311
389.146	17.698	817.442	622.135
390.161	17.780	817.109	622.127
391.175	17.828	816.412	621.715
392.190	17.833	815.727	621.155
393.205	17.848	815.488	620.973
394.219	17.673	815.410	620.225
395.234	17.722	814.644	619.764
396.248	17.670	814.308	619.265
397.263	17.593	813.670	618.446
398.278	17.653	813.467	618.452
399.292	17.680	813.191	618.287
400.307	17.738	812.628	618.016
401.321	17.799	811.887	617.619
402.336	17.779	811.274	617.025
403.350	17.838	810.888	616.889
404.365	17.878	810.667	616.811
405.380	17.938	810.699	616.999
406.394	17.940	809.566	616.090
407.409	17.994	809.320	616.040
408.423	18.075	809.180	616.173
409.438	18.078	809.051	616.032
410.453	18.171	808.330	615.761
411.467	18.097	807.965	615.164
412.482	18.148	807.717	615.104
413.496	18.195	806.959	614.639
414.511	18.147	806.699	614.215
415.526	18.357	806.338	614.640
416.540	18.091	805.893	613.291
417.555	18.217	804.926	612.954
418.569	18.318	804.783	613.152
419.584	18.377	804.195	612.859
420.599	18.251	804.223	612.377
421.613	153.521	1370.636	1790.560
422.628	133.145	1453.163	1790.658
