DTS Sentinel unit serial number:	SN413079Multiplexer serial number:	ORYXHardware model number:	OX4-SRSoftware version number:	ORYX F/W v4.00 Oryx Data Collector v3.7.2.0data status	okinstallation	princeton_trtdifferential loss correction	single-endedforward channel	channel 1reverse channel	N/Adate	2019/09/12time	11:40:11forward acquisition time	60.00reverse acquisition time	0.00gamma	496.2192k internal	0.2294k external	0.2294temperature offset calibration	1.0042default loss term (dB/km)	0.3790temperature slope calibration	1.0000multiplexer offset coefficient	1.0000multiplexer slope coefficient	1.0000fibre end	0.00T internal ref (°C)	39.62T ext. ref 1 (°C)	1.97T ext. ref 2 (°C)	37.31length (m)	temperature (°C)	Stokes	anti-Stokes-747.200	-200.000	0.015	-0.239
-746.185	-170.500	0.102	0.004
-745.171	622.875	0.040	0.102
-744.156	-200.000	0.039	0.305
-743.142	-200.000	0.009	0.162
-742.127	800.000	-0.045	-0.180
-741.112	81.257	-0.158	-0.174
-740.098	-200.000	-0.001	0.083
-739.083	-64.779	0.107	0.044
-738.069	-31.860	-0.450	0.258
-737.054	221.079	-0.099	-0.162
-736.039	218.218	-0.163	0.266
-735.025	-50.398	0.151	0.073
-734.010	-200.000	-0.506	0.000
-732.996	800.000	-0.047	0.138
-731.981	-99.935	0.173	0.044
-730.966	110.619	0.114	0.140
-729.952	-44.515	-0.142	0.073
-728.937	174.479	0.115	-0.170
-727.923	-93.595	0.162	0.046
-726.908	-43.841	0.170	-0.087
-725.894	493.086	-0.093	-0.217
-724.879	49.460	-0.189	-0.182
-723.864	140.778	-0.064	0.087
-722.850	-117.352	0.235	-0.044
-721.835	-152.705	-0.458	0.033
-720.821	201.980	0.122	-0.192
-719.806	-169.665	-0.154	-0.006
-718.791	-74.788	0.247	0.091
-717.777	649.229	-0.128	-0.334
-716.762	32.527	-0.266	0.235
-715.748	800.000	0.022	-0.064
-714.733	-71.206	0.193	0.074
-713.718	352.399	-0.126	-0.256
-712.704	-45.389	0.080	0.040
-711.689	615.973	-0.066	-0.169
-710.675	-200.000	0.005	0.096
-709.660	-61.796	0.194	0.083
-708.645	241.042	-0.084	-0.143
-707.631	-87.220	0.268	0.083
-706.616	-200.000	-0.013	0.174
-705.602	800.000	0.019	0.068
-704.587	-88.030	0.203	0.062
-703.572	-63.213	0.268	0.113
-702.558	-200.000	0.048	0.280
-701.543	64.219	0.139	-0.143
-700.529	-200.000	-0.008	-0.146
-699.514	-200.000	0.052	0.272
-698.499	-137.216	0.409	0.048
-697.485	-74.418	-0.051	-0.019
-696.470	-63.212	-0.306	0.129
-695.456	-200.000	-0.043	0.308
-694.441	-33.291	0.098	-0.055
-693.426	92.211	-0.064	0.074
-692.412	-43.530	-0.078	0.040
-691.397	145.275	-0.203	-0.278
-690.383	-16.207	-0.207	0.134
-689.368	-82.724	-0.099	-0.033
-688.354	-34.534	-0.115	0.064
-687.339	800.000	-0.112	-0.489
-686.324	800.000	0.174	-0.505
-685.310	-80.082	0.394	0.135
-684.295	800.000	-0.071	0.237
-683.281	-149.326	-0.205	-0.017
-682.266	-200.000	0.081	-0.388
-681.251	170.509	-0.117	0.171
-680.237	625.010	-0.117	-0.300
-679.222	-68.926	0.397	0.156
-678.208	-99.712	0.454	-0.116
-677.193	106.583	-0.253	0.306
-676.178	-200.000	-0.039	-0.248
-675.164	-200.000	-0.043	0.306
-674.149	452.646	0.105	-0.238
-673.135	-65.573	-0.256	-0.105
-672.120	19.388	-0.160	-0.131
-671.105	-84.889	-0.314	0.100
-670.091	-93.455	-0.151	0.043
-669.076	322.050	-0.154	-0.298
-668.062	-5.463	-0.167	0.117
-667.047	399.242	-0.160	-0.341
-666.032	39.545	0.066	0.061
-665.018	800.000	-0.023	0.086
-664.003	63.467	0.172	-0.176
-662.989	572.337	-0.094	-0.233
-661.974	-200.000	0.069	-0.445
-660.959	335.845	-0.058	0.114
-659.945	-200.000	-0.018	0.273
-658.930	162.425	0.158	0.226
-657.916	69.377	0.132	-0.138
-656.901	-152.545	-0.339	0.025
-655.886	221.813	0.103	-0.169
-654.872	-109.126	-0.180	0.039
-653.857	-6.416	-0.134	0.093
-652.843	-72.908	-0.202	0.076
-651.828	-42.852	-0.084	0.043
-650.814	800.000	-0.164	0.506
-649.799	644.632	0.100	0.261
-648.784	-105.582	0.146	-0.034
-647.770	-200.000	-0.030	0.351
-646.755	232.706	-0.204	-0.342
-645.741	318.685	0.109	0.211
-644.726	800.000	0.063	-0.189
-643.711	370.746	0.054	0.111
-642.697	-115.795	-0.196	0.037
-641.682	112.840	0.038	0.047
-640.668	-57.070	-0.193	0.087
-639.653	-96.285	-0.100	-0.027
-638.638	-86.738	-0.219	-0.068
-637.624	-200.000	0.037	-0.275
-636.609	-200.000	0.023	-0.376
-635.595	-150.494	0.286	-0.022
-634.580	-127.363	-0.268	-0.040
-633.565	793.777	-0.056	-0.158
-632.551	42.663	-0.131	0.121
-631.536	187.672	-0.121	0.184
-630.522	156.399	0.093	0.131
-629.507	-4.897	-0.258	0.181
-628.492	-102.729	-0.099	-0.024
-627.478	-24.476	-0.230	0.139
-626.463	-62.450	0.332	-0.141
-625.449	-114.628	-0.234	-0.046
-624.434	-49.333	0.260	-0.126
-623.419	138.853	-0.084	0.113
-622.405	-130.068	-0.159	-0.022
-621.390	-44.406	-0.115	-0.059
-620.376	128.685	0.251	-0.326
-619.361	53.268	-0.106	-0.103
-618.346	19.463	-0.251	-0.205
-617.332	-84.412	0.167	0.054
-616.317	105.183	0.079	0.095
-615.303	-47.113	0.268	-0.133
-614.288	509.125	0.031	-0.074
-613.273	114.109	-0.191	-0.236
-612.259	71.723	0.147	-0.156
-611.244	87.409	-0.064	-0.072
-610.230	-129.855	-0.343	0.048
-609.215	800.000	0.065	0.220
-608.201	-69.520	-0.537	-0.209
-607.186	160.628	-0.089	-0.126
-606.171	-98.329	-0.242	0.063
-605.157	800.000	-0.059	-0.197
-604.142	-124.875	0.161	-0.025
-603.128	-167.970	-0.129	0.005
-602.113	378.294	-0.126	-0.261
-601.098	-200.000	0.005	0.253
-600.084	-200.000	0.059	0.384
-599.069	800.000	0.076	-0.301
-598.055	-59.608	0.229	-0.100
-597.040	-200.000	0.046	-0.326
-596.025	-200.000	0.054	-0.536
-595.011	-95.257	-0.208	-0.057
-593.996	-155.661	0.081	-0.005
-592.982	800.000	0.084	0.248
-591.967	50.841	-0.077	-0.074
-590.952	60.610	-0.173	0.174
-589.938	256.188	0.127	0.221
-588.923	140.710	0.282	0.378
-587.909	151.977	-0.190	0.263
-586.894	800.000	0.096	0.280
-585.879	-200.000	0.096	0.493
-584.865	800.000	-0.013	-0.056
-583.850	-171.940	-0.308	0.010
-582.836	143.661	0.157	0.213
-581.821	55.063	0.237	0.232
-580.806	36.783	0.152	-0.137
-579.792	504.513	-0.013	-0.031
-578.777	194.504	-0.249	-0.384
-577.763	-21.972	-0.365	0.225
-576.748	-56.195	0.164	-0.074
-575.733	44.289	-0.110	0.103
-574.719	-200.000	-0.045	-0.270
-573.704	800.000	0.068	-0.191
-572.690	38.994	0.077	-0.070
-571.675	331.897	-0.029	0.056
-570.661	-54.116	0.296	-0.137
-569.646	85.087	0.164	0.183
-568.631	91.156	-0.218	-0.248
-567.617	48.847	-0.172	-0.164
-566.602	-67.687	0.041	0.016
-565.588	-164.759	0.236	0.011
-564.573	800.000	0.033	-0.108
-563.558	-200.000	-0.033	-0.228
-562.544	-8.304	-0.084	0.058
-561.529	160.646	0.055	-0.078
-560.515	72.507	0.118	0.124
-559.500	-200.000	-0.007	0.162
-558.485	-200.000	0.068	-0.478
-557.471	800.000	0.045	0.166
-556.456	-77.721	-0.126	-0.044
-555.442	89.675	0.057	0.065
-554.427	89.427	-0.216	0.245
-553.412	-151.388	-0.123	-0.009
-552.398	29.121	-0.038	-0.033
-551.383	673.161	-0.087	-0.229
-550.369	771.260	-0.170	-0.471
-549.354	-200.000	-0.069	-0.400
-548.339	-200.000	-0.011	0.097
-547.325	-185.114	0.305	0.005
-546.310	-34.026	0.135	0.076
-545.296	90.844	0.066	0.075
-544.281	-146.938	0.312	-0.027
-543.266	497.406	0.168	-0.392
-542.252	800.000	0.062	-0.268
-541.237	324.788	-0.067	0.131
-540.223	-54.753	0.292	-0.134
-539.208	122.058	-0.303	-0.384
-538.193	144.709	-0.271	0.368
-537.179	333.166	0.074	-0.144
-536.164	-95.798	-0.157	0.042
-535.150	-200.000	0.050	0.457
-534.135	-120.976	-0.234	0.040
-533.121	326.472	-0.062	0.120
-532.106	11.220	-0.235	0.182
-531.091	-194.280	0.135	-0.001
-530.077	15.533	-0.060	0.048
-529.062	-80.292	0.180	-0.061
-528.048	27.741	0.079	-0.067
-527.033	-200.000	-0.005	0.077
-526.018	-87.605	0.126	-0.039
-525.004	-197.055	-0.124	-0.001
-523.989	-102.861	-0.155	-0.037
-522.975	-200.000	0.028	-0.184
-521.960	-200.000	-0.035	0.412
-520.945	294.546	-0.144	-0.267
-519.931	-81.209	-0.141	-0.047
-518.916	-200.000	-0.017	-0.101
-517.902	430.582	-0.141	-0.310
-516.887	-200.000	0.013	0.256
-515.872	-124.586	-0.235	-0.037
-514.858	-72.482	0.073	-0.027
-513.843	552.170	-0.025	0.062
-512.829	-200.000	-0.023	-0.238
-511.814	-6.760	-0.226	-0.156
-510.799	91.422	-0.172	0.196
-509.785	-54.836	-0.335	0.153
-508.770	8.649	-0.148	-0.113
-507.756	-99.697	0.346	-0.088
-506.741	59.944	-0.298	0.299
-505.726	-179.974	0.155	0.003
-504.712	-107.400	-0.378	0.084
-503.697	131.349	-0.133	0.174
-502.683	-200.000	-0.031	0.211
-501.668	-200.000	-0.003	0.204
-500.653	9.299	0.081	0.062
-499.639	277.523	-0.041	0.074
-498.624	114.872	0.035	0.044
-497.610	-60.169	0.099	-0.043
-496.595	-143.117	0.116	0.011
-495.581	800.000	-0.039	0.152
-494.566	-110.355	0.116	0.024
-493.551	10.530	0.336	-0.259
-492.537	-71.287	0.490	0.186
-491.522	-52.454	-0.203	-0.095
-490.508	-200.000	-0.235	0.000
-489.493	-96.880	0.395	-0.105
-488.478	-141.590	-0.191	-0.020
-487.464	-138.538	-0.200	-0.022
-486.449	37.111	-0.056	-0.050
-485.435	94.532	0.162	-0.187
-484.420	446.696	0.080	0.178
-483.405	800.000	0.070	0.236
-482.391	404.967	-0.201	0.429
-481.376	-15.659	0.076	0.049
-480.362	800.000	-0.062	-0.244
-479.347	-28.315	-0.295	-0.173
-478.332	170.536	-0.039	0.057
-477.318	-114.472	-0.217	-0.042
-476.303	-200.000	-0.004	0.093
-475.289	131.647	0.097	0.126
-474.274	628.572	-0.031	-0.078
-473.259	30.114	-0.228	0.197
-472.245	-200.000	0.029	-0.381
-471.230	132.949	0.032	-0.041
-470.216	284.608	-0.041	-0.075
-469.201	-14.705	0.164	-0.107
-468.186	-161.879	0.247	-0.013
-467.172	-64.272	-0.274	0.113
-466.157	218.878	-0.099	0.160
-465.143	-161.930	-0.167	-0.009
-464.128	-78.426	-0.236	-0.082
-463.113	-147.098	-0.169	0.015
-462.099	19.911	-0.171	-0.140
-461.084	184.625	0.241	0.361
-460.070	24.578	-0.390	0.327
-459.055	45.730	0.040	0.037
-458.040	-101.621	-0.197	0.048
-457.026	-62.521	-0.127	0.054
-456.011	291.509	-0.029	-0.053
-454.997	-141.541	-0.206	0.021
-453.982	-81.945	0.224	-0.074
-452.968	-87.453	-0.462	0.141
-451.953	-52.854	-0.086	-0.040
-450.938	-46.374	-0.047	0.023
-449.924	2.863	-0.002	-0.002
-448.909	800.000	0.071	-0.237
-447.895	-15.068	0.131	-0.085
-446.880	-101.672	-0.284	-0.070
-445.865	212.861	0.175	0.278
-444.851	800.000	-0.056	0.228
-443.836	392.215	-0.092	0.192
-442.822	-125.918	0.084	-0.013
-441.807	45.832	-0.094	-0.088
-440.792	156.159	-0.168	-0.234
-439.778	-37.728	0.083	0.045
-438.763	-87.542	0.256	0.078
-437.749	-63.781	0.150	-0.062
-436.734	54.687	0.090	-0.088
-435.719	-121.767	0.156	0.026
-434.705	-200.000	0.022	0.168
-433.690	415.615	0.094	0.203
-432.676	163.518	-0.126	-0.180
-431.661	748.160	-0.120	-0.327
-430.646	58.600	0.267	-0.265
-429.632	-57.289	-0.061	-0.027
-428.617	60.204	0.227	-0.226
-427.603	-62.505	-0.159	0.067
-426.588	-31.304	-0.182	0.104
-425.573	664.571	-0.078	-0.203
-424.559	51.611	-0.279	-0.268
-423.544	430.923	-0.080	-0.176
-422.530	153.138	-0.083	0.115
-421.515	-200.000	-0.045	0.278
-420.500	203.158	0.054	-0.084
-419.486	-151.151	-0.085	-0.006
-418.471	-200.000	0.030	0.411
-417.457	-70.260	0.145	0.056
-416.442	146.913	-0.128	-0.173
-415.428	54.987	-0.198	-0.194
-414.413	-120.028	0.057	-0.010
-413.398	-80.629	-0.290	0.097
-412.384	26.733	-0.187	0.158
-411.369	-200.000	-0.043	-0.414
-410.355	-86.207	0.090	0.028
-409.340	121.073	0.078	0.098
-408.325	787.775	0.073	-0.203
-407.311	-177.465	-0.279	-0.007
-406.296	-19.057	0.075	0.047
-405.282	-64.564	0.110	0.045
-404.267	197.149	-0.173	-0.267
-403.252	-3.009	-0.122	0.086
-402.238	-200.000	-0.067	0.443
-401.223	800.000	-0.053	0.190
-400.209	-157.604	-0.169	-0.010
-399.194	-130.101	0.245	-0.034
-398.179	-200.000	0.017	-0.205
-397.165	-200.000	0.008	-0.048
-396.150	42.486	-0.122	0.112
-395.136	-8.595	-0.121	0.082
-394.121	347.008	-0.146	-0.289
-393.106	-83.354	-0.224	0.072
-392.092	800.000	-0.088	0.342
-391.077	-93.307	-0.294	0.082
-390.063	-60.348	-0.200	0.086
-389.048	-134.169	0.275	0.034
-388.033	-200.000	0.022	0.106
-387.019	-53.866	0.289	-0.133
-386.004	692.485	-0.054	-0.143
-384.990	-85.845	0.263	-0.082
-383.975	-200.000	-0.033	-0.201
-382.960	-39.391	0.428	-0.226
-381.946	-200.000	0.042	-0.210
-380.931	272.872	-0.127	0.226
-379.917	-85.181	-0.174	0.055
-378.902	-118.885	0.406	-0.072
-377.888	-89.463	0.309	0.092
-376.873	-200.000	0.007	0.290
-375.858	-131.287	0.265	-0.035
-374.844	105.774	0.223	-0.266
-373.829	-86.569	0.318	-0.098
-372.815	-200.000	0.008	-0.230
-371.800	-125.744	-0.231	0.035
-370.785	438.873	-0.099	0.218
-369.771	-186.719	0.079	0.001
-368.756	-44.660	-0.209	0.105
-367.742	139.977	0.148	-0.197
-366.727	39.849	-0.292	-0.264
-365.712	800.000	0.040	-0.127
-364.698	-154.173	-0.245	0.017
-363.683	-31.888	0.167	0.094
-362.669	-51.158	-0.175	0.083
-361.654	-39.832	0.206	-0.108
-360.639	129.662	0.143	0.184
-359.625	406.818	-0.022	0.048
-358.610	-81.222	0.382	-0.127
-357.596	103.987	-0.126	0.149
-356.581	-200.000	-0.044	-0.300
-355.566	-173.183	0.426	0.013
-354.552	800.000	-0.118	0.382
-353.537	800.000	0.039	0.119
-352.523	-49.708	-0.221	-0.106
-351.508	-79.785	0.030	-0.010
-350.493	-53.922	0.236	-0.108
-349.479	-34.244	-0.219	0.121
-348.464	-119.968	0.352	0.061
-347.450	-138.053	0.169	0.019
-346.435	347.881	-0.093	0.185
-345.420	-200.000	0.015	0.261
-344.406	24.452	-0.093	-0.078
-343.391	483.475	-0.165	-0.378
-342.377	-167.493	-0.043	0.002
-341.362	-78.330	-0.014	-0.005
-340.348	-200.000	0.025	-0.122
-339.333	-200.000	-0.028	-0.135
-338.318	-74.580	0.109	0.040
-337.304	184.805	0.076	0.114
-336.289	75.700	0.192	-0.204
-335.275	135.599	0.201	0.263
-334.260	-103.706	0.216	0.051
-333.245	84.617	0.189	0.208
-332.231	-37.936	0.046	0.025
-331.216	-1.065	0.289	0.206
-330.202	107.599	0.172	0.206
-329.187	349.082	0.068	0.135
-328.172	-126.278	0.178	-0.027
-327.158	-200.000	0.042	-0.252
-326.143	-79.237	0.347	-0.118
-325.129	31.289	-0.183	-0.158
-324.114	-146.463	-0.134	-0.012
-323.099	48.760	0.188	-0.178
-322.085	800.000	-0.085	0.254
-321.070	-83.380	0.237	-0.076
-320.056	81.238	0.141	-0.153
-319.041	-100.154	0.236	-0.059
-318.026	124.500	-0.055	-0.069
-317.012	-89.611	-0.256	0.076
-315.997	-200.000	0.052	-0.276
-314.983	98.470	-0.094	0.108
-313.968	268.984	-0.007	0.013
-312.953	0.892	0.053	-0.038
-311.939	25.895	-0.163	0.136
-310.924	800.000	-0.076	-0.241
-309.910	-43.777	0.099	-0.050
-308.895	177.961	0.144	0.211
-307.880	-178.194	0.191	0.005
-306.866	2.636	0.192	-0.140
-305.851	-140.248	0.180	-0.019
-304.837	-76.817	-0.245	0.086
-303.822	-51.907	-0.251	0.117
-302.807	736.957	0.115	-0.310
-301.793	-200.000	0.013	0.082
-300.778	597.758	-0.109	-0.270
-299.764	-164.003	-0.233	-0.011
-298.749	36.337	0.101	0.089
-297.735	-200.000	-0.013	-0.134
-296.720	-7.388	-0.203	0.138
-295.705	56.468	-0.268	0.262
-294.691	26.836	-0.227	-0.191
-293.676	800.000	-0.047	-0.137
-292.662	203.178	-0.207	-0.322
-291.647	248.894	0.227	0.387
-290.632	-35.279	0.138	-0.076
-289.618	275.119	0.031	-0.056
-288.603	-135.994	-0.066	-0.008
-287.589	20.371	-0.101	0.082
-286.574	800.000	0.045	-0.168
-285.559	800.000	0.043	-0.160
-284.545	-200.000	0.016	-0.082
-283.530	-200.000	-0.068	0.322
-282.516	-200.000	-0.018	0.301
-281.501	-200.000	-0.009	0.044
-280.486	800.000	0.042	0.142
-279.472	-200.000	0.005	0.102
-278.457	-123.158	-0.162	-0.026
-277.443	10.840	-0.134	0.103
-276.428	137.360	-0.055	0.072
-275.413	-45.855	-0.081	0.040
-274.399	-28.436	0.385	-0.223
-273.384	628.212	0.134	0.341
-272.370	93.998	0.119	-0.136
-271.355	328.198	0.191	0.369
-270.340	-142.838	-0.062	0.006
-269.326	-200.000	-0.028	-0.125
-268.311	3.752	-0.203	-0.149
-267.297	611.001	0.017	0.042
-266.282	-40.286	0.134	-0.070
-265.267	27.457	-0.176	-0.149
-264.253	-36.703	-0.296	0.160
-263.238	237.663	0.224	0.373
-262.224	-124.612	0.350	0.055
-261.209	-200.000	-0.019	-0.252
-260.195	800.000	-0.048	0.187
-259.180	20.933	-0.109	-0.089
-258.165	129.186	0.131	0.168
-257.151	-126.631	0.139	0.021
-256.136	152.560	0.056	-0.076
-255.122	800.000	0.051	-0.162
-254.107	299.192	-0.067	0.123
-253.092	97.913	-0.265	-0.305
-252.078	-200.000	-0.004	0.235
-251.063	608.144	-0.089	0.224
-250.049	-5.899	-0.367	0.252
-249.034	544.480	-0.063	-0.152
-248.019	48.148	0.073	-0.069
-247.005	800.000	0.059	-0.173
-245.990	-17.251	0.294	-0.186
-244.976	800.000	-0.204	0.856
-243.961	-200.000	-0.011	0.208
-242.946	17.544	-0.082	0.065
-241.932	43.446	0.147	-0.135
-240.917	800.000	0.101	-0.300
-239.903	786.530	-0.111	0.306
-238.888	141.146	0.185	0.245
-237.873	800.000	0.084	0.275
-236.859	482.160	-0.100	0.228
-235.844	-200.000	0.087	-0.389
-234.830	-57.038	-0.161	-0.071
-233.815	407.225	-0.118	-0.250
-232.800	75.908	-0.012	-0.013
-231.786	581.334	0.076	0.187
-230.771	15.255	0.149	0.117
-229.757	480.025	-0.161	-0.366
-228.742	55.608	0.203	-0.198
-227.727	-5.737	0.167	0.115
-226.713	-73.284	-0.102	-0.037
-225.698	12.039	-0.115	-0.089
-224.684	322.148	-0.024	-0.046
-223.669	-200.000	-0.008	0.280
-222.655	321.677	-0.093	0.178
-221.640	-110.860	0.212	-0.044
-220.625	49.082	-0.274	-0.258
-219.611	93.015	0.375	0.425
-218.596	-0.164	0.225	0.161
-217.582	295.227	0.235	0.431
-216.567	-106.541	0.396	0.088
-215.552	-52.488	0.085	-0.039
-214.538	-4.315	-0.120	-0.083
-213.523	17.872	-0.245	-0.195
-212.509	36.767	0.205	0.182
-211.494	-46.401	0.046	-0.023
-210.479	69.376	0.063	0.065
-209.465	-64.553	0.177	-0.072
-208.450	74.651	-0.196	0.207
-207.436	89.903	-0.092	-0.103
-206.421	127.451	0.040	0.051
-205.406	-42.904	-0.147	-0.075
-204.392	800.000	-0.061	-0.202
-203.377	-67.487	0.129	-0.051
-202.363	-173.095	-0.123	0.004
-201.348	-35.843	-0.287	-0.156
-200.333	-200.000	-0.022	-0.097
-199.319	-36.972	-0.105	-0.056
-198.304	317.229	-0.105	0.199
-197.290	271.628	0.182	0.321
-196.275	4.538	0.263	-0.194
-195.260	60.564	0.218	0.216
-194.246	146.112	0.091	-0.123
-193.231	-200.000	-0.046	0.291
-192.217	35.483	0.170	-0.149
-191.202	-138.385	0.208	0.023
-190.187	591.843	0.041	0.100
-189.173	39.072	-0.124	0.111
-188.158	-109.117	-0.234	-0.050
-187.144	-91.680	0.151	0.043
-186.129	21.543	-0.271	0.220
-185.114	-200.000	0.166	0.000
-184.100	-101.550	0.245	-0.060
-183.085	15.113	-0.257	-0.202
-182.071	800.000	0.048	-0.196
-181.056	-200.000	0.052	0.243
-180.042	130.527	0.215	0.276
-179.027	137.540	-0.068	-0.089
-178.012	-102.649	-0.390	-0.093
-176.998	-178.654	0.197	0.005
-175.983	-86.632	0.236	-0.072
-174.969	800.000	-0.015	-0.064
-173.954	-32.022	0.221	-0.123
-172.939	-200.000	0.003	-0.145
-171.925	253.553	0.166	-0.284
-170.910	-200.000	0.022	-0.393
-169.896	196.031	0.198	0.301
-168.881	238.622	0.139	0.231
-167.866	-160.179	0.114	0.006
-166.852	49.733	0.155	-0.146
-165.837	181.698	0.116	-0.171
-164.823	-200.000	-0.036	0.166
-163.808	-200.000	0.073	0.334
-162.793	121.217	-0.152	0.189
-161.779	-60.256	0.172	-0.073
-160.764	152.426	0.136	-0.185
-159.750	292.527	0.048	0.087
-158.735	-200.000	0.017	0.099
-157.720	114.326	0.164	-0.200
-156.706	-152.799	0.091	-0.006
-155.691	83.748	0.245	-0.267
-154.677	21.256	-0.081	-0.066
-153.662	360.625	0.067	-0.134
-152.647	-134.400	-0.070	-0.009
-151.633	248.731	0.026	-0.044
-150.618	-200.000	-0.021	0.185
-149.604	-188.467	-0.279	-0.003
-148.589	-200.000	0.004	0.092
-147.574	-200.000	0.023	-0.267
-146.560	5.509	0.115	-0.085
-145.545	-200.000	0.004	0.039
-144.531	-145.134	0.387	-0.035
-143.516	-174.101	-0.170	-0.005
-142.502	-200.000	0.073	-0.492
-141.487	165.878	-0.128	0.181
-140.472	-200.000	0.026	-0.235
-139.458	-91.228	-0.052	-0.015
-138.443	3.995	-0.110	-0.081
-137.429	-158.971	-0.090	-0.005
-136.414	-15.108	0.098	-0.063
-135.399	-181.290	0.200	0.004
-134.385	482.798	0.045	0.102
-133.370	-200.000	0.001	0.082
-132.356	-46.894	0.124	0.061
-131.341	4.173	-0.102	-0.074
-130.326	-84.752	-0.296	-0.093
-129.312	44.916	-0.162	0.149
-128.297	-200.000	0.049	-0.338
-127.283	800.000	0.051	-0.214
-126.268	-77.872	0.335	-0.116
-125.253	-89.810	-0.485	-0.142
-124.239	-1.257	0.226	-0.159
-123.224	-47.706	0.165	0.080
-122.210	-200.000	-0.022	0.128
-121.195	-200.000	0.010	0.109
-120.180	138.359	0.106	0.139
-119.166	-128.214	-0.119	0.017
-118.151	154.146	0.038	-0.053
-117.137	415.093	0.067	-0.142
-116.122	16.656	0.183	-0.145
-115.107	800.000	0.080	0.234
-114.093	-0.399	-0.166	0.117
-113.078	-140.502	0.131	-0.014
-112.064	470.611	-0.132	-0.297
-111.049	-200.000	0.020	-0.170
-110.034	800.000	-0.098	-0.270
-109.020	-52.026	0.424	-0.196
-108.005	-92.016	0.193	0.054
-106.991	-200.000	0.001	-0.128
-105.976	0.591	0.303	0.216
-104.962	53.207	0.190	0.181
-103.947	-200.000	-0.017	-0.155
-102.932	-98.933	0.177	-0.045
-101.918	717.371	0.034	-0.091
-100.903	-68.558	-0.042	-0.016
-99.889	732.881	-0.098	-0.262
-98.874	-66.233	-0.322	-0.128
-97.859	136.916	0.044	0.057
-96.845	25.696	0.100	0.083
-95.830	-93.698	-0.405	0.111
-94.816	-68.520	-0.156	0.060
-93.801	263.936	0.077	-0.133
-92.786	70.300	-0.221	0.228
-91.772	73.597	0.062	-0.065
-90.757	-66.033	0.276	0.110
-89.743	-200.000	-0.055	-0.281
-88.728	135.069	-0.151	0.195
-87.713	362.528	-0.039	-0.078
-86.699	99.183	-0.139	0.160
-85.684	800.000	-0.041	-0.157
-84.670	285.435	0.082	0.147
-83.655	63.299	-0.125	-0.125
-82.640	-18.268	0.304	-0.189
-81.626	-200.000	-0.012	-0.200
-80.611	-120.942	0.062	-0.010
-79.597	-116.769	-0.173	-0.032
-78.582	90.547	0.071	0.079
-77.567	-121.180	0.101	0.017
-76.553	800.000	-0.025	0.106
-75.538	52.206	-0.198	-0.188
-74.524	-200.000	-0.006	0.132
-73.509	322.615	0.082	0.156
-72.494	-64.712	-0.226	0.091
-71.480	-21.490	-0.097	-0.059
-70.465	529.787	0.076	0.179
-69.451	800.000	-0.068	0.196
-68.436	-114.168	0.249	-0.048
-67.422	-166.352	0.268	-0.011
-66.407	74.588	-0.093	-0.098
-65.392	187.883	-0.061	0.090
-64.378	294.496	0.143	0.260
-63.363	402.454	0.111	-0.232
-62.349	-200.000	-0.075	0.000
-61.334	8.137	-0.898	-0.671
-60.319	155.524	0.308	0.422
-59.305	800.000	0.206	-0.763
-58.290	72.395	0.582	0.604
-57.276	454.283	0.660	1.456
-56.261	-200.000	76.798	504.960
-55.246	492.683	1351.826	3084.912
-54.232	144.741	2584.613	3438.764
-53.217	113.875	2241.082	2712.185
-52.203	50.975	1689.603	1594.304
-51.188	43.175	1417.620	1288.059
-50.173	39.740	1372.018	1225.290
-49.159	57.729	1408.832	1371.407
-48.144	63.980	1427.065	1428.269
-47.130	43.702	1389.836	1265.908
-46.115	39.873	1372.814	1226.627
-45.100	39.516	1368.391	1220.417
-44.086	39.482	1365.678	1217.739
-43.071	39.371	1363.707	1215.253
-42.057	39.413	1361.808	1213.769
-41.042	39.448	1359.600	1211.968
-40.027	39.430	1358.241	1210.599
-39.013	39.438	1356.611	1209.145
-37.998	39.469	1354.324	1207.251
-36.984	39.580	1352.676	1206.412
-35.969	39.766	1350.251	1205.340
-34.954	39.779	1348.692	1203.980
-33.940	39.589	1347.904	1202.067
-32.925	39.699	1346.463	1201.406
-31.911	39.768	1345.024	1200.495
-30.896	39.800	1343.327	1199.123
-29.881	39.672	1341.773	1196.914
-28.867	39.653	1340.555	1195.666
-27.852	39.797	1338.500	1194.653
-26.838	39.745	1337.204	1193.139
-25.823	39.599	1336.140	1191.259
-24.809	39.648	1334.668	1190.192
-23.794	39.828	1332.705	1189.481
-22.779	39.740	1331.524	1187.849
-21.765	39.778	1330.176	1186.830
-20.750	39.639	1329.501	1185.344
-19.736	39.521	1328.037	1183.282
-18.721	39.610	1326.327	1182.246
-17.706	39.609	1325.115	1181.112
-16.692	39.635	1323.841	1180.087
-15.677	39.626	1322.882	1179.131
-14.663	39.623	1321.609	1177.930
-13.648	39.510	1320.625	1176.333
-12.633	39.519	1319.630	1175.455
-11.619	39.598	1318.376	1174.758
-10.604	39.537	1317.380	1173.465
-9.590	39.496	1316.935	1172.776
-8.575	39.567	1315.586	1171.951
-7.560	39.489	1315.200	1171.094
-6.546	39.633	1313.809	1170.668
-5.531	39.541	1313.460	1169.764
-4.517	39.515	1312.368	1168.593
-3.502	39.488	1311.554	1167.660
-2.487	39.562	1310.179	1166.827
-1.473	39.688	1306.472	1164.221
-0.458	38.846	1291.545	1145.961
0.556	35.278	1272.728	1105.707
1.571	31.464	1276.974	1087.174
2.586	30.223	1292.839	1093.272
3.600	28.538	1281.154	1073.449
4.615	20.306	1201.607	961.315
5.629	7.899	1117.002	829.273
6.644	2.558	1092.856	783.999
7.659	1.960	1090.049	778.860
8.673	1.713	1088.517	776.441
9.688	1.643	1087.114	775.012
10.702	2.001	1086.073	776.025
11.717	9.020	1096.803	819.573
12.731	20.257	1113.149	889.665
13.746	25.084	1118.959	919.044
14.761	25.246	1118.790	919.654
15.775	25.272	1118.452	919.428
16.790	25.181	1117.127	917.791
17.804	24.989	1116.909	916.548
18.819	25.065	1116.432	916.465
19.834	25.213	1116.004	916.786
20.848	25.143	1115.785	916.171
21.863	25.199	1115.198	915.892
22.877	25.085	1114.664	914.789
23.892	25.108	1113.558	913.921
24.907	25.192	1112.599	913.481
25.921	25.133	1111.693	912.354
26.936	25.215	1110.241	911.498
27.950	25.054	1108.999	909.580
28.965	24.929	1107.034	907.256
29.980	25.115	1105.029	906.474
30.994	25.317	1104.439	906.930
32.009	25.174	1103.633	905.464
33.023	24.944	1102.097	902.966
34.038	25.023	1101.321	902.646
35.053	25.187	1101.031	903.158
36.067	25.172	1100.140	902.268
37.082	25.384	1098.860	902.206
38.096	25.536	1098.713	902.767
39.111	25.504	1098.036	901.973
40.126	25.331	1096.477	899.746
41.140	24.900	1094.905	896.218
42.155	24.827	1093.221	894.394
43.169	24.777	1092.795	893.720
44.184	24.856	1091.705	893.142
45.199	24.733	1090.742	891.660
46.213	24.745	1090.055	891.084
47.228	24.971	1089.115	891.356
48.242	25.031	1087.849	890.542
49.257	24.978	1087.446	889.871
50.271	25.214	1086.662	890.322
51.286	25.289	1085.613	889.757
52.301	25.213	1084.904	888.718
53.315	25.132	1083.524	887.107
54.330	25.207	1082.925	886.909
55.344	25.035	1082.697	885.797
56.359	25.096	1081.240	884.825
57.374	24.963	1080.265	883.296
58.388	24.897	1079.454	882.227
59.403	24.808	1078.930	881.284
60.417	24.759	1077.757	880.007
61.432	24.810	1077.217	879.739
62.447	24.789	1076.408	878.896
63.461	24.873	1075.875	878.795
64.476	24.848	1074.827	877.739
65.490	24.783	1074.098	876.745
66.505	24.917	1072.906	876.351
67.520	24.871	1072.226	875.492
68.534	24.626	1071.442	873.577
69.549	24.416	1070.026	871.322
70.563	24.336	1069.611	870.517
71.578	24.340	1068.473	869.532
72.593	24.192	1067.745	868.143
73.607	24.229	1067.531	868.074
74.622	24.564	1066.853	869.075
75.636	24.566	1066.542	868.755
76.651	24.578	1064.796	867.312
77.666	24.577	1064.237	866.774
78.680	24.611	1063.638	866.374
79.695	24.720	1062.511	865.909
80.709	24.712	1062.179	865.524
81.724	24.689	1061.479	864.764
82.739	24.753	1060.709	864.371
83.753	25.119	1059.910	865.410
84.768	25.369	1059.449	866.165
85.782	25.482	1058.476	865.834
86.797	25.381	1057.280	864.296
87.812	25.155	1056.634	862.605
88.826	25.421	1055.215	862.647
89.841	25.341	1054.689	861.756
90.855	25.505	1053.605	861.579
91.870	25.511	1052.630	860.737
92.884	25.301	1051.480	858.715
93.899	25.217	1050.168	857.165
94.914	25.435	1049.572	857.642
95.928	25.267	1048.417	855.822
96.943	25.079	1047.192	853.850
97.957	24.795	1046.452	851.823
98.972	24.676	1045.038	850.031
99.987	24.926	1044.509	850.710
101.001	25.132	1043.972	851.178
102.016	24.985	1043.092	849.687
103.030	24.913	1041.928	848.321
104.045	24.948	1040.611	847.338
105.060	24.640	1039.877	845.212
106.074	24.890	1039.099	845.685
107.089	25.148	1038.768	846.561
108.103	24.987	1037.657	844.822
109.118	24.886	1036.063	842.970
110.133	24.888	1035.515	842.463
111.147	24.623	1034.254	840.115
112.162	24.623	1033.046	839.062
113.176	24.792	1032.778	839.562
114.191	24.711	1032.323	838.734
115.206	24.434	1031.017	836.302
116.220	24.314	1030.240	835.036
117.235	24.482	1029.364	835.040
118.249	24.575	1027.902	834.212
119.264	24.422	1027.496	833.094
120.279	24.443	1026.971	832.695
121.293	24.438	1026.096	831.887
122.308	24.585	1025.354	831.899
123.322	24.435	1024.319	830.288
124.337	24.316	1022.861	828.479
125.352	23.888	1020.976	824.894
126.366	23.810	1020.441	824.028
127.381	24.681	1020.071	827.689
128.395	25.042	1019.903	829.153
129.410	25.123	1019.021	828.737
130.424	25.121	1018.088	827.891
131.439	25.054	1017.182	826.776
132.454	25.098	1016.243	826.140
133.468	25.062	1015.307	825.142
134.483	25.207	1014.726	825.263
135.497	25.321	1014.167	825.260
136.512	25.443	1012.987	824.786
137.527	25.383	1012.374	823.939
138.541	25.441	1011.329	823.279
139.556	25.411	1010.460	822.363
140.570	25.444	1010.059	822.114
141.585	25.303	1009.311	820.790
142.600	25.304	1008.119	819.752
143.614	25.557	1007.252	820.130
144.629	25.861	1005.900	820.338
145.643	25.610	1004.759	818.194
146.658	25.368	1003.711	816.171
147.673	25.220	1003.021	814.862
148.687	25.192	1001.485	813.418
149.702	25.127	1000.513	812.262
150.716	25.002	999.845	811.079
151.731	25.212	998.972	811.251
152.746	25.401	998.551	811.693
153.760	25.539	997.972	811.772
154.775	25.689	997.199	811.748
155.789	25.624	996.396	810.731
156.804	25.524	995.427	809.420
157.819	25.537	994.853	808.940
158.833	25.590	994.013	808.421
159.848	25.718	992.855	807.986
160.862	25.482	991.870	806.053
161.877	25.452	990.704	804.899
162.892	25.426	990.143	804.256
163.906	25.496	988.484	803.152
164.921	25.348	987.756	801.827
165.935	25.558	986.617	801.770
166.950	25.560	985.552	800.841
167.964	25.484	985.043	800.018
168.979	25.305	983.848	798.182
169.994	25.251	983.068	797.237
171.008	25.504	982.456	797.793
172.023	25.622	981.191	797.219
173.037	25.250	980.286	794.766
174.052	25.185	979.450	793.731
175.067	25.162	978.961	793.164
176.081	25.274	978.714	793.388
177.096	25.181	977.542	791.956
178.110	25.108	976.481	790.703
179.125	24.851	975.651	788.830
180.140	24.843	975.894	788.923
181.154	25.030	975.447	789.316
182.169	25.236	975.168	789.923
183.183	25.562	974.353	790.628
184.198	25.350	973.502	788.935
185.213	25.498	972.755	788.909
186.227	25.516	971.985	788.296
187.242	25.419	971.308	787.253
188.256	25.410	971.254	787.098
189.271	25.672	970.096	787.237
190.286	25.157	969.428	784.373
191.300	24.610	967.801	780.601
192.315	23.874	966.256	776.073
193.329	23.731	965.792	775.007
194.344	24.674	965.983	779.203
195.359	25.274	966.018	781.780
196.373	25.342	965.488	781.575
197.388	25.288	964.812	780.724
198.402	25.275	964.514	780.359
199.417	25.403	963.491	780.016
200.432	25.062	962.258	777.473
201.446	25.065	961.281	776.626
202.461	25.056	961.093	776.366
203.475	24.249	959.230	771.303
204.490	23.294	958.294	766.349
205.504	24.275	958.162	770.422
206.519	24.866	958.270	772.992
207.534	24.952	957.765	772.889
208.548	25.588	957.378	775.247
209.563	25.182	956.554	772.764
210.577	25.174	955.898	772.131
211.592	25.645	955.487	773.759
212.607	25.537	954.703	772.589
213.621	25.476	954.581	772.162
214.636	25.514	953.586	771.452
215.650	25.493	952.787	770.648
216.665	25.621	951.848	770.365
217.680	25.663	951.091	769.865
218.694	25.213	950.145	767.108
219.709	25.018	949.397	765.602
220.723	25.333	949.004	766.564
221.738	25.436	948.317	766.379
222.753	25.234	947.779	765.015
223.767	25.486	947.214	765.567
224.782	25.752	946.914	766.390
225.796	25.777	946.158	765.815
226.811	25.017	944.705	761.342
227.826	24.473	943.053	757.637
228.840	24.485	943.116	757.672
229.855	24.612	942.577	757.709
230.869	24.181	941.316	754.801
231.884	24.522	941.403	756.252
232.899	25.353	941.408	759.703
233.913	25.205	940.976	758.663
234.928	25.249	940.063	758.045
235.942	25.235	939.456	757.430
236.957	24.832	938.693	755.047
237.972	24.917	938.147	754.899
238.986	25.073	937.162	754.696
240.001	24.949	937.099	754.057
241.015	25.099	936.131	753.843
242.030	25.143	935.919	753.792
243.045	25.472	935.042	754.399
244.059	25.532	934.941	754.504
245.074	25.321	933.808	752.637
246.088	25.025	932.708	750.445
247.103	25.222	932.754	751.240
248.117	25.868	932.699	753.833
249.132	25.992	932.712	754.294
250.147	26.146	931.740	754.087
251.161	26.293	931.538	754.471
252.176	26.265	930.980	753.835
253.190	26.382	930.012	753.469
254.205	26.412	930.085	753.590
255.220	26.373	929.121	752.577
256.234	26.258	928.538	751.561
257.249	26.077	927.959	750.275
258.263	26.217	926.925	749.953
259.278	26.282	926.292	749.641
260.293	26.319	925.808	749.339
261.307	26.253	925.191	748.502
262.322	26.000	924.078	746.484
263.336	25.350	922.233	742.246
264.351	24.185	920.539	736.005
265.366	24.399	919.937	736.343
266.380	25.425	920.872	741.261
267.395	25.847	920.581	742.703
268.409	25.855	919.517	741.811
269.424	25.951	919.426	742.066
270.439	26.013	918.631	741.614
271.453	26.157	917.891	741.541
272.468	26.255	917.930	741.909
273.482	26.363	917.286	741.767
274.497	25.930	915.932	738.832
275.512	25.510	915.237	736.488
276.526	25.942	915.119	738.096
277.541	26.194	914.494	738.558
278.555	26.017	913.773	737.187
279.570	25.815	912.832	735.538
280.585	25.998	912.546	735.987
281.599	25.977	911.409	734.919
282.614	25.384	910.123	731.403
283.628	25.394	909.679	731.024
284.643	25.559	909.641	731.602
285.657	25.203	907.957	728.733
286.672	24.934	907.516	727.224
287.687	25.547	907.518	729.652
288.701	25.786	906.967	730.112
289.716	25.287	906.281	727.471
290.730	25.210	905.364	726.360
291.745	25.057	904.496	724.979
292.760	25.259	904.285	725.564
293.774	26.339	904.582	730.102
294.789	26.596	904.764	731.222
295.803	26.620	903.996	730.634
296.818	26.715	903.256	730.356
297.833	26.240	902.033	727.389
298.847	26.088	901.301	726.126
299.862	26.431	900.907	727.122
300.876	26.615	900.792	727.704
301.891	26.524	900.127	726.738
302.906	26.169	898.773	724.157
303.920	26.319	898.505	724.475
304.935	26.544	898.618	725.406
305.949	26.490	898.021	724.643
306.964	26.285	897.276	723.158
307.979	26.299	896.843	722.803
308.993	26.739	896.381	724.124
310.008	26.683	896.089	723.599
311.022	26.391	895.090	721.564
312.037	26.294	894.404	720.561
313.052	26.091	893.681	719.105
314.066	25.241	891.577	713.969
315.081	24.723	891.242	711.577
316.095	25.719	891.432	715.627
317.110	26.154	890.994	716.939
318.125	25.491	889.302	712.886
319.139	24.378	887.845	707.243
320.154	24.249	887.773	706.616
321.168	25.065	888.468	710.340
322.183	25.828	888.397	713.243
323.197	25.998	888.310	713.783
324.212	26.290	887.884	714.533
325.227	26.312	887.142	713.960
326.241	26.150	886.522	712.756
327.256	26.099	885.179	711.412
328.270	26.103	884.894	711.138
329.285	25.952	883.946	709.716
330.300	25.584	883.163	707.579
331.314	25.924	882.675	708.460
332.329	26.232	882.816	709.721
333.343	26.619	882.362	710.815
334.358	26.402	881.890	709.521
335.373	26.635	881.619	710.152
336.387	26.793	881.717	710.786
337.402	26.878	881.502	710.886
338.416	26.808	881.525	710.567
339.431	27.145	880.605	711.080
340.446	27.142	880.363	710.812
341.460	27.046	879.217	709.449
342.475	26.816	879.264	708.525
343.489	26.832	878.856	708.193
344.504	27.121	878.497	708.969
345.519	27.272	878.316	709.350
346.533	27.269	877.758	708.827
347.548	27.216	877.070	708.001
348.562	27.150	876.979	707.606
349.577	27.310	875.668	707.109
350.592	27.135	875.507	706.236
351.606	27.254	874.146	705.536
352.621	26.957	873.739	703.994
353.635	27.066	872.448	703.315
354.650	26.347	871.200	699.464
355.665	25.332	869.847	694.395
356.679	25.724	869.707	695.736
357.694	26.360	869.060	697.612
358.708	26.205	868.273	696.322
359.723	26.654	868.109	697.858
360.738	26.872	867.941	698.500
361.752	26.904	867.940	698.563
362.767	27.320	867.305	699.589
363.781	27.387	867.446	699.899
364.796	27.553	867.080	700.179
365.810	27.692	866.352	700.063
366.825	27.685	865.767	699.500
367.840	27.274	865.153	697.368
368.854	26.947	864.447	695.483
369.869	26.833	863.670	694.363
370.883	27.000	863.394	694.718
371.898	26.862	862.645	693.523
372.913	27.037	862.209	693.783
373.927	27.034	862.167	693.674
374.942	27.259	861.432	693.880
375.956	27.317	860.879	693.596
376.971	27.501	860.388	693.841
377.986	27.683	860.018	694.174
379.000	27.543	859.712	693.330
380.015	27.402	859.077	692.223
381.029	27.527	858.261	691.979
382.044	27.488	858.052	691.599
383.059	27.540	857.637	691.402
384.073	27.690	856.676	691.134
385.088	27.546	856.649	690.507
386.102	27.390	855.239	688.717
387.117	27.372	854.703	688.157
388.132	26.860	853.742	685.390
389.146	26.349	852.759	682.610
390.161	26.880	852.403	684.268
391.175	27.399	852.385	686.150
392.190	27.024	851.214	683.734
393.205	25.670	848.933	676.753
394.219	24.073	847.174	669.291
395.234	23.897	846.907	668.362
396.248	25.466	848.315	675.315
397.263	27.134	849.581	682.535
398.278	27.020	849.039	681.612
399.292	26.668	848.392	679.712
400.307	26.694	847.635	679.141
401.321	27.015	846.981	679.757
402.336	27.395	847.309	681.385
403.350	27.560	847.455	682.058
404.365	27.905	847.189	683.076
405.380	28.176	846.861	683.764
406.394	28.426	846.020	683.956
407.409	28.173	845.551	682.572
408.423	28.302	844.935	682.496
409.438	28.375	844.849	682.638
410.453	28.358	844.181	681.975
411.467	28.293	843.614	681.215
412.482	28.323	843.366	681.064
413.496	28.374	842.917	680.833
414.511	28.328	842.509	680.273
415.526	28.265	842.327	679.831
416.540	28.172	841.043	678.389
417.555	27.987	840.485	677.193
418.569	28.004	840.358	677.096
419.584	28.015	839.855	676.669
420.599	27.736	839.077	674.953
421.613	96.601	1271.754	1390.694
422.628	83.782	1334.800	1390.831
