DTS Sentinel unit serial number:	SN413079Multiplexer serial number:	ORYXHardware model number:	OX4-SRSoftware version number:	ORYX F/W v4.00 Oryx Data Collector v3.7.2.0data status	okinstallation	princeton_trtdifferential loss correction	single-endedforward channel	channel 1reverse channel	N/Adate	2019/09/17time	19:14:35forward acquisition time	60.00reverse acquisition time	0.00gamma	496.2192k internal	0.2299k external	0.2299temperature offset calibration	0.9975default loss term (dB/km)	0.3790temperature slope calibration	1.0000multiplexer offset coefficient	1.0000multiplexer slope coefficient	1.0000fibre end	0.00T internal ref (°C)	38.77T ext. ref 1 (°C)	0.27T ext. ref 2 (°C)	27.01length (m)	temperature (°C)	Stokes	anti-Stokes-747.200	-65.934	-0.030	0.012
-746.185	404.476	0.182	0.392
-745.171	800.000	0.060	0.257
-744.156	-136.263	-0.392	-0.047
-743.142	-96.114	0.193	-0.052
-742.127	-62.225	-0.120	-0.051
-741.112	-35.692	0.054	-0.030
-740.098	161.678	-0.129	0.184
-739.083	-142.415	0.207	0.021
-738.069	74.369	-0.099	0.106
-737.054	-200.000	-0.029	-0.253
-736.039	-200.000	0.046	-0.320
-735.025	118.034	0.157	0.197
-734.010	36.416	-0.079	-0.071
-732.996	-87.679	-0.234	-0.072
-731.981	44.208	-0.250	0.234
-730.966	-127.019	0.208	-0.031
-729.952	800.000	0.060	0.257
-728.937	79.545	-0.310	-0.340
-727.923	-59.575	-0.386	0.169
-726.908	-200.000	0.058	-0.378
-725.894	800.000	-0.042	-0.142
-724.879	123.511	-0.236	-0.301
-723.864	-19.763	-0.263	0.166
-722.850	-186.132	-0.297	-0.004
-721.835	-18.005	0.108	-0.069
-720.821	-60.776	-0.087	0.037
-719.806	-11.322	-0.437	-0.293
-718.791	26.569	-0.194	0.165
-717.777	-9.956	0.360	-0.244
-716.762	800.000	-0.079	-0.281
-715.748	-200.000	0.035	-0.179
-714.733	78.560	-0.154	-0.168
-713.718	-23.638	0.075	-0.046
-712.704	-97.038	-0.135	-0.036
-711.689	-37.592	-0.262	0.142
-710.675	65.697	-0.033	0.034
-709.660	141.794	-0.114	-0.154
-708.645	22.888	-0.146	-0.122
-707.631	-8.836	-0.306	0.209
-706.616	-200.000	0.008	0.126
-705.602	-200.000	0.030	0.242
-704.587	-200.000	0.019	0.212
-703.572	-59.036	-0.148	0.065
-702.558	800.000	-0.074	-0.241
-701.543	645.379	-0.008	0.020
-700.529	72.200	-0.107	-0.113
-699.514	83.664	-0.257	-0.286
-698.499	397.105	0.214	-0.455
-697.485	-124.068	0.081	0.013
-696.470	43.200	-0.149	-0.138
-695.456	135.533	-0.105	0.139
-694.441	-200.000	0.024	-0.403
-693.426	-200.000	0.022	-0.477
-692.412	43.363	0.299	-0.278
-691.397	-151.021	0.305	-0.023
-690.383	-7.885	0.338	-0.232
-689.368	-8.262	-0.062	-0.043
-688.354	800.000	-0.052	0.216
-687.339	318.301	0.064	-0.123
-686.324	-200.000	-0.036	-0.231
-685.310	-28.935	-0.086	-0.050
-684.295	-93.102	-0.221	0.063
-683.281	510.039	0.143	-0.337
-682.266	210.496	0.087	-0.138
-681.251	534.271	0.030	-0.072
-680.237	428.491	-0.196	-0.432
-679.222	109.169	-0.053	-0.065
-678.208	54.091	0.064	-0.062
-677.193	-58.249	-0.107	0.047
-676.178	149.538	-0.056	0.077
-675.164	622.557	-0.064	-0.165
-674.149	-149.486	-0.374	-0.030
-673.135	-159.607	0.346	0.020
-672.120	96.091	0.221	-0.257
-671.105	-85.153	-0.167	-0.053
-670.091	800.000	-0.056	0.228
-669.076	134.875	-0.085	-0.112
-668.062	-200.000	-0.009	-0.216
-667.047	352.961	-0.153	-0.308
-666.032	-10.114	0.333	-0.225
-665.018	-28.121	-0.118	-0.070
-664.003	-30.660	-0.319	-0.184
-662.989	-168.980	-0.592	-0.023
-661.974	800.000	0.107	-0.352
-660.959	13.085	0.154	0.121
-659.945	-200.000	-0.011	-0.166
-658.930	-78.675	-0.175	0.061
-657.916	171.450	-0.031	0.045
-656.901	145.906	-0.101	-0.137
-655.886	-200.000	-0.085	-0.426
-654.872	158.360	-0.051	-0.071
-653.857	-200.000	0.007	0.167
-652.843	800.000	0.007	0.021
-651.828	124.842	-0.077	-0.098
-650.814	230.649	0.085	0.142
-649.799	459.297	-0.158	-0.357
-648.784	482.525	0.035	-0.080
-647.770	-200.000	-0.056	-0.308
-646.755	103.691	-0.107	-0.127
-645.741	-175.806	0.125	-0.003
-644.726	-41.937	0.174	0.090
-643.711	-96.102	-0.159	-0.043
-642.697	800.000	0.032	-0.093
-641.682	-75.111	0.402	-0.146
-640.668	44.631	-0.188	0.176
-639.653	-100.604	-0.216	0.054
-638.638	92.743	0.247	0.283
-637.624	-200.000	0.042	-0.312
-636.609	-96.721	-0.182	-0.049
-635.595	172.498	0.040	0.058
-634.580	-13.290	-0.125	0.083
-633.565	-16.110	-0.182	-0.118
-632.551	635.629	0.054	-0.138
-631.536	-87.186	0.194	0.060
-630.522	-200.000	0.018	-0.133
-629.507	-56.373	-0.212	-0.096
-628.492	-200.000	-0.024	-0.141
-627.478	113.157	-0.154	-0.189
-626.463	195.960	-0.212	-0.328
-625.449	800.000	-0.178	0.554
-624.434	730.892	0.015	-0.040
-623.419	-142.423	0.311	0.031
-622.405	-153.794	0.187	-0.013
-621.390	221.002	0.190	-0.310
-620.376	800.000	0.150	-0.469
-619.361	-163.097	-0.192	0.009
-618.346	-200.000	0.025	0.154
-617.332	257.722	0.041	0.072
-616.317	91.266	-0.130	0.149
-615.303	12.954	-0.203	-0.159
-614.288	-13.856	0.037	-0.024
-613.273	-165.255	-0.104	0.005
-612.259	-64.954	-0.191	-0.078
-611.244	1.284	-0.147	-0.107
-610.230	-61.062	-0.170	0.073
-609.215	-200.000	-0.011	0.159
-608.201	213.403	-0.036	-0.058
-607.186	-106.136	0.214	-0.049
-606.171	800.000	0.061	0.230
-605.157	-25.966	-0.277	0.165
-604.142	14.118	-0.248	-0.196
-603.128	-12.296	0.081	0.054
-602.113	-6.950	0.095	-0.065
-601.098	-200.000	0.016	-0.154
-600.084	-200.000	0.084	0.462
-599.069	201.123	0.302	0.472
-598.055	-92.636	-0.192	-0.054
-597.040	800.000	-0.096	-0.391
-596.025	70.157	0.085	-0.090
-595.011	-131.997	-0.154	0.020
-593.996	800.000	-0.045	0.166
-592.982	-43.307	-0.280	0.144
-591.967	-47.442	0.049	0.024
-590.952	156.961	-0.188	-0.263
-589.938	-57.098	-0.077	0.034
-588.923	-16.886	-0.498	-0.319
-587.909	170.408	-0.100	-0.145
-586.894	-186.709	0.283	0.004
-585.879	-56.999	0.316	-0.142
-584.865	-70.283	0.076	-0.029
-583.850	12.539	0.154	-0.120
-582.836	-25.309	-0.174	0.104
-581.821	-200.000	0.014	0.321
-580.806	-96.679	-0.059	-0.016
-579.792	67.712	0.307	-0.318
-578.777	800.000	-0.056	-0.179
-577.763	54.114	0.101	0.098
-576.748	-41.410	0.192	0.100
-575.733	800.000	0.084	0.255
-574.719	-200.000	-0.077	0.390
-573.704	-200.000	0.046	-0.228
-572.690	-200.000	0.027	-0.166
-571.675	-200.000	0.066	-0.000
-570.661	800.000	0.056	0.190
-569.646	800.000	-0.073	0.308
-568.631	159.543	0.048	-0.068
-567.617	-98.150	0.275	0.072
-566.602	-200.000	0.346	0.001
-565.588	153.134	-0.098	0.136
-564.573	74.707	-0.139	-0.148
-563.558	151.067	0.215	0.297
-562.544	-134.719	0.432	-0.053
-561.529	-140.921	0.082	-0.009
-560.515	-104.811	0.197	0.046
-559.500	-140.997	-0.292	0.030
-558.485	-129.111	-0.046	0.007
-557.471	-200.000	0.048	0.229
-556.456	497.000	-0.094	0.218
-555.442	-200.000	-0.009	-0.208
-554.427	-200.000	-0.002	0.102
-553.412	380.655	-0.035	-0.073
-552.398	185.454	0.173	-0.260
-551.383	-127.460	0.445	-0.065
-550.369	-167.740	-0.086	0.003
-549.354	1.981	0.177	0.129
-548.339	108.299	-0.123	0.148
-547.325	226.834	0.242	-0.398
-546.310	92.954	-0.143	-0.164
-545.296	800.000	0.039	-0.117
-544.281	800.000	0.041	-0.158
-543.266	60.875	0.147	0.148
-542.252	122.352	-0.124	-0.157
-541.237	800.000	0.047	0.145
-540.223	-120.113	0.281	-0.049
-539.208	72.223	-0.181	-0.191
-538.193	117.180	-0.117	-0.145
-537.179	800.000	-0.023	0.079
-536.164	21.012	0.242	-0.199
-535.150	-147.450	0.380	-0.032
-534.135	235.233	-0.145	-0.242
-533.121	-200.000	-0.030	0.222
-532.106	-79.332	-0.241	0.083
-531.091	723.716	0.041	0.111
-530.077	152.978	-0.074	-0.102
-529.062	122.103	-0.099	0.125
-528.048	-26.258	0.088	-0.052
-527.033	119.978	-0.202	-0.253
-526.018	118.572	0.255	0.318
-525.004	374.171	0.068	-0.139
-523.989	17.821	-0.224	0.181
-522.975	-200.000	0.038	-0.309
-521.960	-28.594	-0.218	0.127
-520.945	800.000	-0.034	-0.128
-519.931	-9.802	0.094	-0.063
-518.916	-200.000	-0.017	0.147
-517.902	4.408	-0.197	-0.146
-516.887	-171.559	0.189	-0.006
-515.872	-200.000	0.003	-0.027
-514.858	542.664	-0.183	-0.441
-513.843	66.330	0.267	-0.275
-512.829	47.938	-0.175	0.166
-511.814	-138.502	-0.262	0.029
-510.799	-200.000	-0.018	0.125
-509.785	47.423	-0.101	-0.095
-508.770	800.000	-0.108	-0.319
-507.756	-60.159	0.252	0.109
-506.741	800.000	0.076	0.235
-505.726	-36.378	0.091	0.049
-504.712	-176.718	0.377	0.010
-503.697	227.540	-0.237	0.390
-502.683	17.516	-0.157	0.126
-501.668	-200.000	-0.005	-0.024
-500.653	32.329	-0.064	0.056
-499.639	-76.896	-0.220	0.078
-498.624	-80.334	-0.085	0.029
-497.610	25.889	-0.113	-0.095
-496.595	-200.000	0.077	-0.404
-495.581	142.818	-0.216	0.290
-494.566	-200.000	-0.107	0.514
-493.551	-87.911	-0.204	0.062
-492.537	-16.726	0.122	0.078
-491.522	303.545	0.077	-0.144
-490.508	-25.095	0.224	0.134
-489.493	-45.987	-0.392	0.195
-488.478	107.360	-0.130	-0.156
-487.464	664.720	-0.120	-0.314
-486.449	-18.742	-0.201	-0.127
-485.435	-8.060	0.108	0.073
-484.420	164.806	0.246	0.350
-483.405	-97.391	0.336	0.088
-482.391	800.000	-0.028	-0.084
-481.376	800.000	-0.187	-0.592
-480.362	72.067	-0.308	0.323
-479.347	-59.055	0.181	0.079
-478.332	-120.285	-0.266	0.046
-477.318	-200.000	0.032	0.158
-476.303	50.747	0.105	0.100
-475.289	800.000	-0.057	0.228
-474.274	-95.069	-0.565	-0.154
-473.259	-200.000	0.024	-0.299
-472.245	-43.150	-0.049	-0.025
-471.230	524.766	0.131	-0.312
-470.216	-119.219	0.351	-0.062
-469.201	-200.000	-0.002	0.488
-468.186	273.147	-0.215	0.383
-467.172	725.668	-0.038	0.102
-466.157	-65.649	0.060	-0.024
-465.143	-89.360	-0.098	0.029
-464.128	-80.922	0.254	-0.085
-463.113	-59.217	0.126	0.055
-462.099	107.804	0.093	0.112
-461.084	356.702	-0.035	-0.070
-460.070	-200.000	-0.039	0.221
-459.055	-200.000	-0.006	0.209
-458.040	-156.380	0.331	0.021
-457.026	-126.085	0.038	0.006
-456.011	-21.801	0.386	-0.237
-454.997	-200.000	0.014	-0.491
-453.982	-127.949	0.236	0.034
-452.968	150.899	0.332	0.455
-451.953	-119.880	0.387	0.067
-450.938	-50.747	0.104	-0.049
-449.924	-200.000	0.015	0.101
-448.909	42.581	-0.124	-0.114
-447.895	-200.000	0.023	0.387
-446.880	233.725	-0.162	-0.269
-445.865	-200.000	0.031	-0.327
-444.851	314.502	-0.077	0.146
-443.836	-35.744	-0.003	0.002
-442.822	-93.545	-0.308	-0.086
-441.807	-87.384	0.438	-0.134
-440.792	24.561	0.278	-0.232
-439.778	-84.459	-0.143	-0.046
-438.763	110.638	0.164	0.199
-437.749	141.533	0.135	-0.180
-436.734	800.000	0.063	0.177
-435.719	-200.000	0.034	0.369
-434.705	25.690	-0.054	-0.045
-433.690	-190.308	-0.193	0.002
-432.676	138.675	0.140	-0.185
-431.661	-200.000	-0.018	-0.241
-430.646	36.385	-0.056	0.050
-429.632	800.000	-0.032	-0.107
-428.617	-200.000	-0.022	-0.124
-427.603	-35.975	-0.039	-0.021
-426.588	-153.652	-0.451	-0.031
-425.573	30.941	-0.227	-0.196
-424.559	63.311	-0.146	0.147
-423.544	43.323	-0.204	0.188
-422.530	163.727	0.091	-0.130
-421.515	0.685	-0.167	0.120
-420.500	231.543	0.179	0.295
-419.486	642.375	0.071	0.182
-418.471	774.727	0.099	-0.272
-417.457	800.000	-0.055	-0.196
-416.442	123.336	-0.049	-0.062
-415.428	59.895	-0.115	-0.115
-414.413	-114.250	0.366	-0.071
-413.398	-82.157	-0.109	-0.036
-412.384	316.309	-0.140	-0.266
-411.369	800.000	0.173	-0.525
-410.355	-200.000	-0.018	0.163
-409.340	-74.422	0.345	-0.125
-408.325	64.605	-0.059	0.060
-407.311	28.833	-0.132	-0.112
-406.296	-68.650	0.354	-0.138
-405.282	419.652	-0.121	-0.260
-404.267	16.858	-0.066	0.052
-403.252	-200.000	0.004	-0.043
-402.238	-120.793	-0.099	-0.017
-401.223	697.992	-0.081	0.214
-400.209	1.248	0.163	-0.118
-399.194	-92.422	0.467	-0.132
-398.179	707.975	0.068	0.182
-397.165	-129.164	-0.145	0.020
-396.150	-90.990	-0.405	0.117
-395.136	800.000	0.037	-0.123
-394.121	800.000	0.081	0.309
-393.106	188.687	0.079	-0.120
-392.092	-45.013	0.140	-0.070
-391.077	-166.303	-0.341	0.014
-390.063	-200.000	0.076	-0.000
-389.048	52.765	0.213	-0.205
-388.033	48.817	0.130	-0.123
-387.019	-45.277	-0.078	-0.039
-386.004	-175.325	0.107	-0.003
-384.990	800.000	0.062	0.222
-383.975	-200.000	-0.039	0.201
-382.960	-77.944	-0.177	0.061
-381.946	-200.000	0.006	-0.056
-380.931	19.248	-0.225	0.182
-379.917	800.000	-0.083	0.243
-378.902	-200.000	-0.016	0.130
-377.888	103.378	-0.208	0.246
-376.873	-185.786	-0.162	0.002
-375.858	800.000	0.056	0.230
-374.844	-75.888	-0.252	-0.090
-373.829	800.000	0.036	0.149
-372.815	-71.996	0.161	0.060
-371.800	215.354	-0.184	-0.293
-370.785	193.862	-0.188	-0.287
-369.771	-55.412	0.292	-0.132
-368.756	-200.000	0.012	-0.247
-367.742	-28.415	0.209	-0.121
-366.727	-112.962	-0.396	-0.079
-365.712	-120.469	-0.132	0.023
-364.698	693.959	-0.115	0.304
-363.683	-200.000	0.022	0.177
-362.669	-92.824	-0.119	-0.034
-361.654	35.131	0.220	0.194
-360.639	-75.687	-0.034	-0.012
-359.625	-86.535	0.106	0.033
-358.610	59.846	0.173	0.171
-357.596	15.737	-0.257	0.203
-356.581	63.105	-0.083	0.083
-355.566	502.029	-0.014	-0.033
-354.552	250.580	-0.271	-0.462
-353.537	25.399	0.093	0.077
-352.523	-44.370	0.345	-0.174
-351.508	-21.629	-0.062	0.038
-350.493	800.000	-0.085	0.245
-349.479	293.673	-0.100	0.184
-348.464	-167.729	-0.413	0.016
-347.450	28.044	0.127	0.108
-346.435	-3.964	0.319	0.223
-345.420	-199.272	0.256	0.001
-344.406	-13.146	-0.208	-0.136
-343.391	82.946	0.197	0.215
-342.377	-200.000	-0.009	0.114
-341.362	800.000	0.015	0.060
-340.348	800.000	0.050	0.210
-339.333	66.249	0.145	0.147
-338.318	277.156	-0.064	-0.114
-337.304	-79.515	0.055	-0.019
-336.289	-17.757	0.210	-0.132
-335.275	-1.944	-0.161	-0.114
-334.260	107.378	0.092	0.110
-333.245	-200.000	0.035	-0.175
-332.231	15.031	0.178	0.140
-331.216	-77.706	-0.154	0.054
-330.202	-142.843	-0.409	-0.040
-329.187	-200.000	-0.051	0.316
-328.172	-200.000	-0.010	0.157
-327.158	-200.000	0.054	0.242
-326.143	800.000	-0.122	-0.394
-325.129	-62.049	-0.063	0.026
-324.114	-32.416	0.109	0.061
-323.099	-200.000	-0.031	0.144
-322.085	-200.000	-0.065	0.430
-321.070	-200.000	-0.003	-0.065
-320.056	104.294	0.127	0.150
-319.041	-200.000	0.040	-0.191
-318.026	-200.000	0.021	-0.239
-317.012	-51.101	0.253	0.119
-315.997	-41.242	-0.199	-0.103
-314.983	2.281	0.092	0.067
-313.968	-138.804	0.265	0.029
-312.953	-200.000	0.011	-0.157
-311.939	124.778	-0.068	-0.086
-310.924	302.598	-0.139	-0.259
-309.910	800.000	-0.007	0.020
-308.895	-70.404	0.206	0.078
-307.880	-159.869	0.190	0.010
-306.866	800.000	-0.050	-0.166
-305.851	192.223	-0.155	-0.234
-304.837	222.786	0.062	-0.101
-303.822	-200.000	-0.041	0.345
-302.807	-137.002	-0.203	0.023
-301.793	43.658	-0.213	-0.195
-300.778	-59.929	-0.209	0.090
-299.764	-60.255	-0.130	-0.056
-298.749	800.000	-0.090	-0.251
-297.735	-109.518	-0.285	-0.060
-296.720	318.250	0.096	-0.183
-295.705	241.562	0.158	-0.265
-294.691	322.865	-0.090	0.172
-293.676	-200.000	0.019	0.100
-292.662	60.412	-0.294	-0.292
-291.647	-108.078	-0.054	0.012
-290.632	2.595	-0.125	0.091
-289.618	149.662	-0.047	0.064
-288.603	7.690	0.214	0.161
-287.589	-64.491	-0.135	-0.055
-286.574	800.000	-0.058	-0.228
-285.559	-179.211	-0.097	-0.002
-284.545	-200.000	-0.054	0.263
-283.530	-90.112	0.206	-0.060
-282.516	-116.845	-0.230	-0.042
-281.501	36.100	-0.030	-0.027
-280.486	363.619	-0.063	0.128
-279.472	-200.000	0.004	0.060
-278.457	-200.000	0.140	0.000
-277.443	800.000	-0.039	-0.145
-276.428	127.136	0.145	-0.184
-275.413	-98.515	0.160	0.041
-274.399	71.607	-0.244	-0.254
-273.384	125.168	0.070	0.088
-272.370	-95.607	0.147	-0.039
-271.355	593.244	-0.124	0.308
-270.340	211.230	-0.039	-0.061
-269.326	97.804	0.156	0.179
-268.311	-200.000	-0.028	-0.254
-267.297	-31.495	0.267	0.150
-266.282	-97.004	-0.413	0.108
-265.267	800.000	0.066	0.283
-264.253	-200.000	-0.001	-0.007
-263.238	99.970	-0.053	0.062
-262.224	-17.576	-0.229	-0.144
-261.209	-200.000	-0.010	-0.281
-260.195	166.252	-0.041	-0.059
-259.180	-200.000	0.006	0.173
-258.165	-98.200	0.046	0.012
-257.151	119.752	-0.191	0.237
-256.136	-200.000	-0.006	0.378
-255.122	651.155	-0.155	0.397
-254.107	-67.334	0.196	0.077
-253.092	-43.311	0.230	0.117
-252.078	34.060	-0.138	0.120
-251.063	-200.000	-0.007	0.390
-250.049	-75.830	0.347	-0.123
-249.034	-17.470	0.183	0.115
-248.019	-74.044	-0.109	0.039
-247.005	442.973	-0.146	-0.320
-245.990	18.021	-0.117	0.093
-244.976	-125.316	-0.211	0.032
-243.961	492.339	0.105	-0.240
-242.946	-4.914	-0.139	0.096
-241.932	66.555	-0.104	0.106
-240.917	126.119	-0.040	-0.050
-239.903	-200.000	0.025	-0.163
-238.888	379.450	-0.131	-0.268
-237.873	-130.202	0.211	-0.029
-236.859	800.000	-0.078	-0.262
-235.844	-138.115	-0.152	-0.017
-234.830	-48.564	0.137	-0.066
-233.815	-200.000	-0.030	-0.134
-232.800	-18.433	0.140	-0.087
-231.786	-200.000	0.000	-0.010
-230.771	-30.400	-0.208	-0.118
-229.757	80.735	0.309	0.333
-228.742	-119.319	-0.327	0.057
-227.727	553.455	-0.037	-0.089
-226.713	-200.000	-0.020	0.278
-225.698	-200.000	-0.021	0.250
-224.684	-21.187	-0.116	-0.071
-223.669	-96.609	0.241	0.064
-222.655	-63.025	-0.238	-0.098
-221.640	12.435	-0.229	0.176
-220.625	-62.673	-0.275	0.114
-219.611	-200.000	-0.003	0.132
-218.596	800.000	-0.022	-0.075
-217.582	-141.242	0.176	-0.018
-216.567	313.448	0.127	0.239
-215.552	-77.589	-0.047	-0.016
-214.538	800.000	-0.079	-0.327
-213.523	85.681	0.151	-0.166
-212.509	800.000	0.046	-0.157
-211.494	-151.471	-0.231	0.017
-210.479	31.564	0.104	0.090
-209.465	176.903	-0.138	0.200
-208.450	-200.000	-0.005	0.065
-207.436	800.000	-0.079	-0.297
-206.421	-135.157	0.182	0.022
-205.406	129.030	-0.138	-0.176
-204.392	54.985	0.134	-0.129
-203.377	99.739	0.118	0.136
-202.363	22.137	0.284	-0.231
-201.348	800.000	-0.141	-0.449
-200.333	-200.000	-0.010	-0.157
-199.319	-31.984	-0.072	-0.040
-198.304	-200.000	0.018	0.289
-197.290	-52.967	0.348	0.160
-196.275	74.668	0.168	-0.176
-195.260	96.279	0.269	0.307
-194.246	-200.000	-0.006	0.127
-193.231	56.731	0.054	-0.052
-192.217	608.163	0.121	0.302
-191.202	-120.208	0.236	0.040
-190.187	800.000	-0.049	-0.158
-189.173	311.869	-0.111	0.209
-188.158	-200.000	-0.024	-0.128
-187.144	117.119	0.054	-0.067
-186.129	-0.301	-0.180	-0.128
-185.114	-128.851	-0.050	0.007
-184.100	27.107	-0.410	-0.343
-183.085	495.773	0.032	-0.074
-182.071	-121.675	-0.196	0.032
-181.056	-104.755	-0.342	0.078
-180.042	-66.491	-0.058	-0.023
-179.027	76.902	0.283	0.299
-178.012	-102.953	0.359	0.085
-176.998	-158.247	-0.170	-0.010
-175.983	44.104	-0.070	-0.064
-174.969	-104.500	0.224	0.052
-173.954	-15.701	-0.284	-0.181
-172.939	-172.505	-0.213	0.007
-171.925	-200.000	0.002	0.068
-170.910	-78.023	-0.246	0.084
-169.896	-105.917	0.260	0.058
-168.881	-150.115	0.144	0.011
-167.866	-200.000	0.010	0.154
-166.852	-41.482	-0.250	-0.128
-165.837	17.568	0.116	0.092
-164.823	-200.000	-0.028	-0.144
-163.808	-104.921	0.200	-0.046
-162.793	-138.084	0.522	-0.058
-161.779	636.586	0.118	0.300
-160.764	8.454	0.201	0.151
-159.750	-25.765	0.199	0.117
-158.735	319.077	0.198	-0.374
-157.720	587.083	-0.256	-0.628
-156.706	-105.184	0.108	0.025
-155.691	-148.484	0.097	0.008
-154.677	462.208	0.064	0.142
-153.662	38.356	0.074	0.066
-152.647	130.113	0.271	0.346
-151.633	-200.000	0.069	0.308
-150.618	-12.631	-0.044	0.029
-149.604	-95.341	-0.115	-0.031
-148.589	-30.062	0.191	0.108
-147.574	-16.890	0.127	0.080
-146.560	-46.179	-0.170	-0.083
-145.545	-97.454	0.365	0.095
-144.531	-58.547	0.238	-0.103
-143.516	85.053	-0.137	0.150
-142.502	64.986	0.121	0.122
-141.487	8.107	-0.274	-0.205
-140.472	455.625	0.154	-0.341
-139.458	-76.791	0.259	0.090
-138.443	-51.279	-0.269	0.126
-137.429	800.000	0.026	0.106
-136.414	168.121	-0.316	-0.448
-135.399	-200.000	-0.029	0.211
-134.385	-137.153	0.095	-0.011
-133.370	134.685	0.095	-0.123
-132.356	-200.000	0.004	-0.145
-131.341	-66.249	0.295	-0.117
-130.326	-200.000	-0.031	-0.290
-129.312	-105.909	0.035	0.008
-128.297	22.474	-0.070	0.057
-127.283	-20.314	-0.088	-0.054
-126.268	-145.076	0.220	0.020
-125.253	-21.791	-0.103	-0.063
-124.239	-56.911	0.256	-0.112
-123.224	609.031	-0.100	0.249
-122.210	67.741	0.150	-0.153
-121.195	-66.760	0.205	0.081
-120.180	-90.342	0.244	-0.071
-119.166	-200.000	0.029	0.230
-118.151	-73.602	-0.083	-0.030
-117.137	-146.421	-0.090	0.008
-116.122	114.779	0.046	-0.056
-115.107	-200.000	-0.038	0.498
-114.093	-123.622	0.204	-0.032
-113.078	-200.000	-0.057	-0.357
-112.064	800.000	0.033	0.112
-111.049	66.107	0.147	0.149
-110.034	-200.000	-0.028	0.172
-109.020	800.000	0.031	-0.115
-108.005	-36.543	-0.120	-0.064
-106.991	663.026	0.065	0.167
-105.976	-200.000	-0.010	-0.093
-104.962	-48.177	0.338	-0.162
-103.947	-60.646	0.184	0.077
-102.932	-77.624	-0.366	-0.126
-101.918	800.000	0.067	0.196
-100.903	800.000	-0.021	0.060
-99.889	-168.363	0.057	-0.002
-98.874	729.708	0.063	0.168
-97.859	591.273	0.088	0.216
-96.845	-58.530	0.251	0.108
-95.830	-10.193	-0.244	-0.161
-94.816	103.697	-0.185	0.216
-93.801	108.787	0.061	-0.073
-92.786	-200.000	-0.040	0.187
-91.772	800.000	-0.077	0.276
-90.757	-130.788	-0.339	-0.045
-89.743	-59.162	0.111	0.048
-88.728	17.998	-0.240	0.190
-87.713	489.767	0.119	0.270
-86.699	-4.922	-0.145	0.099
-85.684	-200.000	-0.010	0.162
-84.670	-53.366	0.233	-0.106
-83.655	-128.844	-0.039	-0.005
-82.640	-200.000	0.017	0.227
-81.626	77.181	-0.267	0.283
-80.611	-200.000	0.029	-0.271
-79.597	800.000	-0.052	-0.216
-78.582	800.000	0.029	-0.118
-77.567	-143.400	0.314	0.030
-76.553	-98.042	-0.324	-0.083
-75.538	133.551	0.224	0.288
-74.524	30.478	-0.173	0.147
-73.509	-200.000	0.032	0.224
-72.494	-5.565	0.114	0.078
-71.480	-200.000	0.022	-0.140
-70.465	-200.000	0.003	-0.128
-69.451	200.391	0.138	-0.211
-68.436	-91.568	0.276	0.078
-67.422	141.702	-0.120	0.158
-66.407	516.825	0.015	0.034
-65.392	85.323	-0.095	0.104
-64.378	206.995	0.248	0.384
-63.363	-94.822	0.263	0.071
-62.349	575.257	0.083	0.202
-61.334	24.751	-0.732	-0.602
-60.319	196.565	0.215	0.326
-59.305	207.396	-0.540	-0.838
-58.290	556.614	0.439	1.051
-57.276	480.502	0.663	1.493
-56.261	-200.000	88.925	515.878
-55.246	494.681	1363.192	3108.537
-54.232	151.386	2561.680	3463.771
-53.217	115.246	2198.835	2666.647
-52.203	50.091	1656.380	1552.648
-51.188	42.330	1390.525	1255.086
-50.173	38.897	1346.845	1194.759
-49.159	57.644	1390.849	1350.094
-48.144	62.627	1409.151	1398.599
-47.130	42.614	1366.165	1234.651
-46.115	38.806	1349.295	1196.188
-45.100	38.693	1343.655	1190.450
-44.086	38.616	1341.086	1187.662
-43.071	38.610	1338.673	1185.440
-42.057	38.508	1337.078	1183.364
-41.042	38.551	1335.401	1182.093
-40.027	38.631	1334.097	1181.374
-39.013	38.737	1331.826	1179.958
-37.998	38.716	1329.496	1177.717
-36.984	38.747	1327.713	1176.281
-35.969	38.826	1326.037	1175.221
-34.954	38.813	1324.194	1173.462
-33.940	38.729	1323.181	1172.019
-32.925	38.703	1321.772	1170.568
-31.911	38.821	1320.248	1169.873
-30.896	38.847	1318.428	1168.370
-29.881	38.823	1317.165	1167.060
-28.867	38.810	1316.316	1166.186
-27.852	38.818	1314.359	1164.451
-26.838	38.948	1312.618	1163.633
-25.823	38.802	1311.656	1161.870
-24.809	38.889	1309.991	1160.867
-23.794	38.884	1308.602	1159.561
-22.779	38.875	1307.063	1158.097
-21.765	38.845	1306.205	1157.111
-20.750	38.844	1304.479	1155.533
-19.736	38.821	1303.096	1154.123
-18.721	38.698	1302.535	1152.858
-17.706	38.653	1301.295	1151.449
-16.692	38.749	1299.385	1150.279
-15.677	38.787	1298.349	1149.542
-14.663	38.790	1297.358	1148.632
-13.648	38.676	1296.445	1147.110
-12.633	38.769	1295.136	1146.453
-11.619	38.722	1294.586	1145.645
-10.604	38.725	1293.238	1144.427
-9.590	38.632	1292.530	1143.208
-8.575	38.638	1291.522	1142.308
-7.560	38.622	1290.962	1141.673
-6.546	38.841	1289.354	1141.481
-5.531	38.672	1288.961	1140.104
-4.517	38.753	1287.701	1139.417
-3.502	38.779	1287.333	1139.193
-2.487	38.665	1286.424	1137.688
-1.473	38.507	1281.437	1132.318
-0.458	35.556	1263.507	1099.566
0.556	27.393	1240.057	1037.149
1.571	21.056	1241.009	1001.592
2.586	19.031	1254.514	1000.641
3.600	18.050	1243.995	986.502
4.615	13.435	1171.122	903.493
5.629	5.146	1093.333	801.013
6.644	0.670	1071.128	762.136
7.659	0.208	1068.824	758.101
8.673	0.158	1067.800	757.055
9.688	0.046	1066.859	755.760
10.702	0.447	1064.428	755.980
11.717	4.918	1071.112	783.172
12.731	12.900	1081.683	831.205
13.746	16.939	1086.051	854.888
14.761	17.002	1085.736	854.885
15.775	16.119	1084.014	849.008
16.790	15.233	1081.454	842.477
17.804	14.453	1080.071	837.409
18.819	14.107	1079.093	834.840
19.834	13.718	1078.105	832.048
20.848	13.594	1076.841	830.377
21.863	13.332	1076.197	828.494
22.877	13.088	1075.705	826.822
23.892	13.055	1074.811	825.897
24.907	13.177	1074.017	825.826
25.921	13.280	1073.339	825.743
26.936	13.195	1072.409	824.530
27.950	13.107	1071.486	823.309
28.965	13.339	1069.836	823.125
29.980	13.366	1068.802	822.390
30.994	13.330	1067.931	821.468
32.009	13.439	1066.618	820.923
33.023	13.355	1065.747	819.768
34.038	13.274	1065.117	818.808
35.053	13.207	1064.002	817.545
36.067	13.304	1062.757	816.996
37.082	13.335	1062.040	816.529
38.096	13.403	1061.074	816.047
39.111	13.294	1060.422	814.936
40.126	13.294	1059.437	814.108
41.140	13.109	1058.208	812.180
42.155	13.160	1057.141	811.543
43.169	13.145	1056.057	810.563
44.184	13.169	1054.942	809.753
45.199	13.085	1053.843	808.428
46.213	13.250	1053.076	808.572
47.228	13.278	1052.369	808.098
48.242	13.209	1050.962	806.609
49.257	13.270	1050.108	806.178
50.271	13.283	1049.094	805.390
51.286	13.183	1048.544	804.410
52.301	13.163	1047.406	803.372
53.315	13.211	1046.408	802.767
54.330	13.142	1044.833	801.152
55.344	13.104	1044.416	800.578
56.359	13.125	1043.569	799.960
57.374	13.167	1042.578	799.332
58.388	13.139	1041.938	798.636
59.403	13.018	1041.375	797.548
60.417	12.942	1040.603	796.520
61.432	13.081	1039.309	796.130
62.447	12.969	1038.562	794.947
63.461	13.021	1037.884	794.608
64.476	13.118	1036.356	793.835
65.490	13.115	1035.644	793.204
66.505	12.992	1035.100	792.127
67.520	13.051	1034.255	791.695
68.534	13.093	1033.921	791.571
69.549	12.998	1033.075	790.397
70.563	12.993	1032.278	789.693
71.578	13.128	1031.117	789.380
72.593	13.067	1030.587	788.614
73.607	13.028	1029.771	787.735
74.622	12.966	1029.478	787.142
75.636	13.107	1028.352	786.885
76.651	12.975	1027.876	785.822
77.666	13.019	1027.344	785.557
78.680	13.053	1026.640	785.110
79.695	12.978	1025.905	784.120
80.709	13.081	1025.144	783.958
81.724	13.093	1024.650	783.568
82.739	13.043	1023.867	782.663
83.753	13.152	1023.111	782.531
84.768	13.258	1021.904	782.041
85.782	13.325	1020.798	781.442
86.797	13.306	1020.105	780.753
87.812	13.226	1019.224	779.635
88.826	13.237	1018.438	779.014
89.841	13.226	1017.528	778.198
90.855	13.262	1016.557	777.555
91.870	13.288	1015.768	777.005
92.884	13.291	1014.649	776.097
93.899	13.359	1013.593	775.539
94.914	13.447	1013.261	775.628
95.928	13.289	1012.408	774.168
96.943	13.308	1011.411	773.424
97.957	13.351	1010.715	773.024
98.972	13.152	1009.692	771.245
99.987	13.299	1008.890	771.247
101.001	13.302	1008.134	770.616
102.016	13.337	1006.834	769.718
103.030	13.273	1006.294	768.940
104.045	13.309	1005.314	768.288
105.060	13.379	1004.556	767.966
106.074	13.371	1003.558	767.102
107.089	13.260	1002.908	766.021
108.103	13.215	1001.694	764.817
109.118	13.064	1001.269	763.727
110.133	13.181	999.937	763.183
111.147	13.096	999.235	762.188
112.162	13.244	997.984	761.848
113.176	13.164	997.457	761.010
114.191	13.342	996.759	761.230
115.206	13.448	995.750	760.877
116.220	13.226	995.409	759.533
117.235	13.230	994.681	758.929
118.249	13.284	993.383	758.118
119.264	13.264	993.029	757.689
120.279	13.263	992.056	756.873
121.293	13.054	990.989	755.040
122.308	13.228	990.280	755.225
123.322	13.186	989.368	754.272
124.337	13.243	988.083	753.484
125.352	13.174	987.000	752.276
126.366	13.139	986.002	751.290
127.381	13.285	984.457	750.711
128.395	13.221	983.730	749.801
129.410	13.185	983.230	749.190
130.424	13.317	982.230	748.957
131.439	13.235	981.304	747.813
132.454	13.361	980.431	747.653
133.468	13.464	979.616	747.429
134.483	13.412	978.956	746.625
135.497	13.242	978.099	745.143
136.512	13.365	977.426	745.114
137.527	13.439	976.468	744.653
138.541	13.442	975.647	743.973
139.556	13.361	975.097	743.124
140.570	13.549	973.995	743.065
141.585	13.567	973.255	742.513
142.600	13.528	972.452	741.659
143.614	13.601	971.463	741.167
144.629	13.410	971.138	740.000
145.643	13.501	970.002	739.474
146.658	13.410	969.030	738.262
147.673	13.510	967.686	737.617
148.687	13.424	967.153	736.767
149.702	13.416	966.147	735.898
150.716	13.356	965.644	735.180
151.731	13.454	964.700	734.833
152.746	13.357	964.188	733.949
153.760	13.326	963.593	733.292
154.775	13.444	962.903	733.225
155.789	13.600	961.953	733.128
156.804	13.576	961.165	732.357
157.819	13.514	960.680	731.647
158.833	13.607	960.023	731.493
159.848	13.606	959.188	730.787
160.862	13.564	958.329	729.882
161.877	13.564	957.442	729.144
162.892	13.494	956.471	728.030
163.906	13.510	955.440	727.252
164.921	13.508	954.717	726.629
165.935	13.562	953.504	725.879
166.950	13.441	953.235	725.079
167.964	13.550	952.096	724.626
168.979	13.559	951.114	723.856
169.994	13.650	950.272	723.546
171.008	13.565	949.461	722.496
172.023	13.686	949.027	722.626
173.037	13.703	948.011	721.865
174.052	13.714	947.656	721.578
175.067	13.581	946.631	720.155
176.081	13.543	946.642	719.934
177.096	13.566	945.716	719.268
178.110	13.550	945.598	719.045
179.125	13.533	944.641	718.179
180.140	13.683	944.120	718.368
181.154	13.616	943.457	717.512
182.169	13.672	943.229	717.514
183.183	13.769	942.360	717.210
184.198	13.756	941.619	716.528
185.213	13.718	940.663	715.573
186.227	13.683	940.564	715.283
187.242	13.776	939.691	714.958
188.256	13.858	938.850	714.605
189.271	13.831	938.253	713.972
190.286	13.801	937.420	713.148
191.300	13.704	936.493	711.964
192.315	13.533	936.658	711.288
193.329	13.669	935.842	711.189
194.344	13.684	935.294	710.776
195.359	13.733	934.329	710.190
196.373	13.863	933.517	710.066
197.388	13.900	933.418	710.085
198.402	14.036	932.358	709.796
199.417	14.070	931.967	709.581
200.432	13.964	931.675	708.844
201.446	14.069	930.847	708.599
202.461	13.924	930.994	708.033
203.475	14.027	929.950	707.613
204.490	14.008	929.125	706.841
205.504	13.969	928.297	705.982
206.519	13.934	927.544	705.201
207.534	14.061	926.764	705.083
208.548	14.096	926.173	704.719
209.563	14.026	925.446	703.809
210.577	14.006	924.915	703.255
211.592	14.148	924.288	703.320
212.607	14.095	923.410	702.365
213.621	14.092	922.866	701.875
214.636	14.207	921.953	701.603
215.650	14.265	921.000	701.063
216.665	14.280	920.554	700.723
217.680	14.240	919.855	699.959
218.694	14.345	919.322	699.932
219.709	14.261	918.919	699.211
220.723	14.264	917.820	698.328
221.738	14.180	917.455	697.635
222.753	14.252	916.475	697.130
223.767	14.280	916.152	696.939
224.782	14.394	915.765	697.059
225.796	14.277	914.830	695.799
226.811	14.310	914.214	695.406
227.826	14.439	913.238	695.141
228.840	14.469	912.352	694.527
229.855	14.464	911.543	693.831
230.869	14.319	910.806	692.605
231.884	14.460	910.318	692.760
232.899	14.360	909.668	691.787
233.913	14.444	908.453	691.150
234.928	14.300	908.317	690.389
235.942	14.303	907.707	689.875
236.957	14.209	907.220	689.056
237.972	14.334	906.645	689.075
238.986	14.325	906.101	688.566
240.001	14.434	905.249	688.307
241.015	14.491	904.240	687.712
242.030	14.431	904.240	687.406
243.045	14.545	903.242	687.056
244.059	14.590	902.674	686.750
245.074	14.541	901.968	685.946
246.088	14.672	901.332	685.941
247.103	14.543	900.483	684.707
248.117	14.782	900.010	685.265
249.132	14.743	899.469	684.632
250.147	14.734	899.118	684.267
251.161	14.693	898.660	683.692
252.176	14.684	898.008	683.099
253.190	14.770	897.006	682.626
254.205	14.863	896.515	682.573
255.220	14.880	895.623	681.903
256.234	14.829	895.029	681.182
257.249	14.858	894.515	680.847
258.263	14.921	893.606	680.355
259.278	14.909	893.075	679.840
260.293	14.885	892.534	679.269
261.307	15.002	891.635	679.000
262.322	14.980	891.412	678.681
263.336	15.030	890.525	678.149
264.351	15.028	889.953	677.647
265.366	15.014	888.944	676.762
266.380	15.045	888.338	676.364
267.395	15.093	887.780	676.074
268.409	15.035	887.122	675.280
269.424	14.918	886.132	673.994
270.439	15.099	885.918	674.502
271.453	15.074	884.764	673.462
272.468	15.034	884.314	672.899
273.482	15.058	883.706	672.472
274.497	15.310	882.974	672.868
275.512	15.133	882.733	671.915
276.526	15.154	882.284	671.597
277.541	15.237	881.498	671.271
278.555	15.258	881.130	671.016
279.570	15.210	880.611	670.370
280.585	15.256	879.886	669.944
281.599	15.211	878.858	668.922
282.614	15.207	878.259	668.392
283.628	15.286	877.870	668.350
284.643	15.290	877.264	667.847
285.657	15.118	876.769	666.726
286.672	15.302	875.704	666.589
287.687	15.336	875.113	666.215
288.701	15.301	874.865	665.827
289.716	15.257	874.631	665.417
290.730	15.428	873.671	665.305
291.745	15.368	872.854	664.384
292.760	15.476	872.341	664.363
293.774	15.510	871.507	663.806
294.789	15.423	871.222	663.187
295.803	15.443	870.370	662.557
296.818	15.502	869.564	662.116
297.833	15.340	869.212	661.151
298.847	15.540	868.369	661.238
299.862	15.495	868.028	660.744
300.876	15.499	867.326	660.169
301.891	15.510	866.919	659.841
302.906	15.484	866.373	659.267
303.920	15.572	866.092	659.338
304.935	15.639	864.956	658.680
305.949	15.782	864.165	658.577
306.964	15.721	863.807	658.009
307.979	15.729	863.146	657.478
308.993	15.730	862.850	657.199
310.008	15.752	861.866	656.478
311.022	15.816	861.307	656.240
312.037	15.653	860.927	655.259
313.052	15.659	860.407	654.827
314.066	15.750	859.537	654.464
315.081	15.740	859.058	654.001
316.095	15.768	858.478	653.611
317.110	15.761	857.936	653.114
318.125	15.691	857.262	652.270
319.139	15.803	857.009	652.455
320.154	15.679	856.302	651.377
321.168	15.772	856.135	651.552
322.183	15.768	855.435	650.948
323.197	15.865	854.842	650.815
324.212	15.904	854.059	650.312
325.227	15.810	853.798	649.692
326.241	15.734	853.354	649.002
327.256	15.813	852.941	648.936
328.270	15.856	852.156	648.448
329.285	15.911	851.172	647.853
330.300	15.880	851.094	647.615
331.314	15.897	850.488	647.162
332.329	15.887	850.190	646.840
333.343	15.905	849.479	646.314
334.358	15.952	848.913	646.002
335.373	15.918	848.491	645.497
336.387	16.042	848.328	645.789
337.402	15.996	848.138	645.412
338.416	16.010	847.391	644.841
339.431	16.144	847.304	645.229
340.446	16.207	846.813	645.038
341.460	16.173	846.376	644.521
342.475	16.111	845.950	643.903
343.489	16.283	845.326	644.026
344.504	16.202	845.032	643.436
345.519	16.379	844.619	643.738
346.533	16.315	843.868	642.867
347.548	16.261	843.501	642.324
348.562	16.226	843.157	641.871
349.577	16.145	842.362	640.903
350.592	16.244	841.619	640.657
351.606	16.277	841.031	640.275
352.621	16.273	840.348	639.687
353.635	16.254	839.806	639.142
354.650	16.433	838.942	639.108
355.665	16.351	838.424	638.344
356.679	16.347	837.863	637.849
357.694	16.236	837.344	636.976
358.708	16.293	836.727	636.668
359.723	16.243	836.377	636.156
360.738	16.482	835.604	636.410
361.752	16.363	834.819	635.309
362.767	16.289	834.654	634.847
363.781	16.564	833.633	635.049
364.796	16.718	833.113	635.172
365.810	16.663	832.874	634.729
366.825	16.595	832.673	634.264
367.840	16.735	831.460	633.807
368.854	16.487	831.863	633.132
369.869	16.544	831.367	632.912
370.883	16.503	830.911	632.354
371.898	16.760	830.465	632.921
372.913	16.690	829.894	632.166
373.927	16.671	829.380	631.649
374.942	16.653	829.044	631.268
375.956	16.824	828.753	631.629
376.971	16.957	827.775	631.324
377.986	16.948	827.276	630.853
379.000	16.893	827.234	630.561
380.015	16.765	826.819	629.715
381.029	16.967	825.808	629.637
382.044	16.795	825.473	628.687
383.059	16.897	824.900	628.575
384.073	16.812	824.575	627.955
385.088	16.782	823.959	627.320
386.102	16.959	823.137	627.292
387.117	16.897	822.254	626.338
388.132	16.875	821.974	625.985
389.146	16.829	821.548	625.438
390.161	16.936	821.291	625.580
391.175	16.843	820.721	624.746
392.190	16.936	820.264	624.688
393.205	16.763	819.780	623.627
394.219	16.916	819.265	623.741
395.234	16.992	818.491	623.379
396.248	16.863	818.564	622.904
397.263	16.918	817.851	622.510
398.278	16.946	817.217	622.074
399.292	16.928	817.197	621.938
400.307	16.684	816.946	620.796
401.321	16.975	815.999	621.086
402.336	16.954	815.629	620.674
403.350	16.983	815.326	620.496
404.365	16.950	814.858	619.963
405.380	17.007	814.621	619.937
406.394	17.189	813.288	619.531
407.409	17.173	813.375	619.483
408.423	17.160	812.966	619.071
409.438	17.131	812.720	618.723
410.453	17.235	812.491	618.872
411.467	17.361	811.380	618.429
412.482	17.238	811.570	618.070
413.496	17.309	810.845	617.723
414.511	17.320	810.396	617.364
415.526	17.367	809.965	617.153
416.540	17.350	809.575	616.739
417.555	17.261	809.286	616.143
418.569	17.382	808.649	616.040
419.584	17.400	808.076	615.615
420.599	17.490	807.711	615.608
421.613	99.029	1277.935	1415.687
422.628	85.048	1346.456	1415.833
