DTS Sentinel unit serial number:	SN413079Multiplexer serial number:	ORYXHardware model number:	OX4-SRSoftware version number:	ORYX F/W v4.00 Oryx Data Collector v3.7.2.0data status	okinstallation	princeton_trtdifferential loss correction	single-endedforward channel	channel 1reverse channel	N/Adate	2019/09/14time	04:26:35forward acquisition time	60.00reverse acquisition time	0.00gamma	496.2192k internal	0.2335k external	0.2335temperature offset calibration	1.0078default loss term (dB/km)	0.3790temperature slope calibration	1.0000multiplexer offset coefficient	1.0000multiplexer slope coefficient	1.0000fibre end	0.00T internal ref (°C)	26.75T ext. ref 1 (°C)	3.34T ext. ref 2 (°C)	21.90length (m)	temperature (°C)	Stokes	anti-Stokes-747.200	97.169	0.206	0.238
-746.185	-77.556	-0.500	-0.174
-745.171	63.617	-0.271	0.273
-744.156	37.099	-0.098	0.088
-743.142	-117.512	-0.180	0.033
-742.127	175.570	-0.144	0.210
-741.112	-159.944	-0.241	-0.013
-740.098	-174.997	-0.198	-0.006
-739.083	57.002	-0.084	0.082
-738.069	-54.695	-0.220	-0.100
-737.054	-200.000	-0.055	-0.366
-736.039	-200.000	-0.034	-0.267
-735.025	-200.000	-0.006	0.033
-734.010	381.960	0.177	-0.366
-732.996	-200.000	-0.056	0.348
-731.981	103.087	0.076	0.089
-730.966	-76.701	-0.207	0.073
-729.952	20.146	-0.109	0.088
-728.937	182.254	-0.117	-0.173
-727.923	152.736	0.073	0.100
-726.908	231.790	0.083	0.137
-725.894	-200.000	0.027	0.149
-724.879	-200.000	0.001	-0.007
-723.864	50.976	-0.220	-0.209
-722.850	508.342	-0.172	-0.401
-721.835	-200.000	-0.012	0.059
-720.821	-91.167	-0.225	0.065
-719.806	304.004	-0.259	0.483
-718.791	-3.083	-0.187	0.131
-717.777	-200.000	-0.009	-0.402
-716.762	362.893	-0.072	0.146
-715.748	17.912	-0.260	0.208
-714.733	-95.009	0.377	0.102
-713.718	-66.533	-0.370	0.147
-712.704	-138.029	-0.247	0.028
-711.689	-4.187	0.012	-0.008
-710.675	-67.139	-0.394	0.156
-709.660	-51.777	-0.264	0.123
-708.645	-123.916	-0.173	-0.027
-707.631	-114.173	-0.334	-0.065
-706.616	-137.269	-0.083	0.009
-705.602	799.746	0.061	-0.168
-704.587	-200.000	-0.040	-0.258
-703.572	225.715	-0.157	-0.256
-702.558	675.568	0.098	-0.255
-701.543	800.000	-0.036	0.135
-700.529	246.244	0.065	0.111
-699.514	120.886	0.159	0.199
-698.499	-113.735	0.055	0.011
-697.485	15.234	-0.124	0.098
-696.470	24.934	0.273	-0.227
-695.456	-200.000	0.005	-0.304
-694.441	358.021	0.059	0.118
-693.426	263.819	0.100	-0.174
-692.412	-153.190	-0.192	0.013
-691.397	-200.000	0.014	0.140
-690.383	800.000	0.086	0.348
-689.368	3.787	-0.021	0.016
-688.354	-111.791	-0.201	0.041
-687.339	800.000	-0.090	-0.395
-686.324	-153.687	0.131	0.009
-685.310	-178.159	-0.167	0.004
-684.295	45.845	0.054	-0.050
-683.281	-15.941	-0.052	0.033
-682.266	-200.000	-0.033	0.186
-681.251	-200.000	-0.074	0.379
-680.237	230.965	0.145	0.237
-679.222	-143.297	0.294	0.028
-678.208	-99.997	-0.410	0.103
-677.193	25.423	0.214	-0.178
-676.178	-13.659	0.043	-0.028
-675.164	-200.000	-0.016	0.086
-674.149	-113.022	0.236	-0.047
-673.135	83.506	0.260	0.284
-672.120	34.505	0.160	0.140
-671.105	77.115	0.120	0.128
-670.091	-9.440	0.242	-0.162
-669.076	-72.045	0.229	0.085
-668.062	624.903	0.062	0.157
-667.047	195.776	0.211	-0.321
-666.032	37.373	-0.347	-0.308
-665.018	91.926	0.217	-0.245
-664.003	-57.563	-0.179	-0.079
-662.989	800.000	0.035	-0.144
-661.974	292.987	0.190	-0.348
-660.959	800.000	0.071	0.221
-659.945	149.067	0.107	-0.144
-658.930	237.032	-0.198	-0.328
-657.916	-111.681	0.412	0.084
-656.901	-73.828	0.375	0.137
-655.886	-72.469	-0.362	0.134
-654.872	800.000	0.066	-0.214
-653.857	800.000	-0.111	-0.309
-652.843	6.020	-0.145	0.108
-651.828	-112.096	0.134	-0.027
-650.814	-200.000	-0.059	0.287
-649.799	-200.000	-0.043	0.242
-648.784	800.000	-0.081	-0.352
-647.770	800.000	0.014	0.058
-646.755	-200.000	0.068	0.361
-645.741	-200.000	0.039	0.179
-644.726	-200.000	-0.011	0.093
-643.711	-89.595	-0.288	-0.085
-642.697	-86.536	0.052	0.016
-641.682	1.537	0.254	0.183
-640.668	479.305	-0.026	0.058
-639.653	800.000	0.078	0.225
-638.638	-98.081	-0.258	-0.066
-637.624	61.222	-0.110	-0.110
-636.609	800.000	0.044	0.131
-635.595	71.800	-0.101	0.105
-634.580	-200.000	0.054	0.261
-633.565	-106.324	-0.168	0.038
-632.551	222.129	-0.189	-0.305
-631.536	-200.000	0.066	0.365
-630.522	97.188	0.180	-0.207
-629.507	800.000	0.066	0.278
-628.492	800.000	-0.048	-0.164
-627.478	443.962	-0.161	0.354
-626.463	-157.915	0.125	0.007
-625.449	800.000	-0.095	-0.338
-624.434	264.414	-0.074	-0.129
-623.419	172.428	-0.049	-0.070
-622.405	-113.702	0.240	-0.047
-621.390	800.000	0.036	-0.140
-620.376	-189.547	-0.456	0.005
-619.361	14.437	-0.268	-0.209
-618.346	175.526	0.031	-0.045
-617.332	-136.716	0.302	0.035
-616.317	-102.880	-0.225	-0.054
-615.303	450.080	0.047	-0.104
-614.288	-123.726	-0.046	0.007
-613.273	59.976	-0.282	-0.279
-612.259	14.194	-0.010	-0.007
-611.244	411.691	0.072	-0.152
-610.230	800.000	-0.040	0.120
-609.215	-7.064	-0.119	-0.081
-608.201	-53.742	-0.193	0.088
-607.186	-200.000	0.029	-0.259
-606.171	800.000	-0.037	-0.134
-605.157	-19.371	-0.178	-0.110
-604.142	-19.235	0.076	0.047
-603.128	-143.779	0.118	0.011
-602.113	325.101	-0.108	0.206
-601.098	800.000	-0.171	-0.567
-600.084	23.492	0.204	0.168
-599.069	-13.891	-0.248	-0.160
-598.055	508.736	-0.183	0.426
-597.040	34.485	-0.324	0.282
-596.025	64.721	-0.069	-0.070
-595.011	129.025	0.071	-0.091
-593.996	-141.644	0.084	0.008
-592.982	106.370	-0.020	0.024
-591.967	-42.239	0.234	-0.119
-590.952	-55.232	-0.281	-0.126
-589.938	800.000	-0.032	0.114
-588.923	22.043	0.202	-0.164
-587.909	-70.706	0.417	-0.157
-586.894	-188.640	0.267	-0.003
-585.879	-87.173	-0.191	-0.058
-584.865	-180.402	0.056	0.001
-583.850	95.332	0.113	0.129
-582.836	-81.094	0.198	0.065
-581.821	-46.538	-0.203	-0.099
-580.806	-200.000	0.060	-0.282
-579.792	800.000	-0.118	0.349
-578.777	-200.000	-0.016	0.179
-577.763	4.051	0.173	-0.127
-576.748	800.000	0.064	0.180
-575.733	73.485	0.264	0.276
-574.719	107.320	-0.294	0.349
-573.704	-200.000	0.020	-0.215
-572.690	-58.918	0.180	0.078
-571.675	118.642	0.067	-0.082
-570.661	-70.591	-0.372	0.141
-569.646	-110.023	0.439	-0.092
-568.631	-82.500	0.494	0.160
-567.617	-200.000	-0.001	-0.023
-566.602	-200.000	-0.026	-0.180
-565.588	-37.429	0.238	0.127
-564.573	-185.497	-0.441	-0.007
-563.558	-58.295	0.227	0.099
-562.544	-157.654	0.080	-0.005
-561.529	-96.638	0.052	0.014
-560.515	-125.100	-0.357	-0.055
-559.500	-178.780	-0.297	0.007
-558.485	-66.155	-0.290	0.115
-557.471	-200.000	-0.028	0.173
-556.456	229.025	0.137	0.223
-555.442	-51.207	-0.218	-0.102
-554.427	258.589	-0.055	-0.094
-553.412	-137.512	-0.098	0.011
-552.398	-164.166	-0.097	-0.004
-551.383	-79.332	0.139	0.047
-550.369	800.000	-0.024	0.083
-549.354	-61.537	0.126	-0.053
-548.339	3.571	-0.017	0.012
-547.325	-140.043	-0.152	0.016
-546.310	-67.371	0.245	-0.096
-545.296	-152.568	0.243	0.017
-544.281	22.246	0.244	-0.198
-543.266	415.683	0.037	0.078
-542.252	800.000	0.047	-0.178
-541.237	-101.165	0.137	-0.034
-540.223	-89.565	0.332	-0.097
-539.208	-62.601	0.285	-0.118
-538.193	-200.000	-0.036	-0.229
-537.179	800.000	0.110	0.309
-536.164	484.641	0.064	0.145
-535.150	800.000	0.075	-0.304
-534.135	39.688	-0.328	0.293
-533.121	176.858	-0.043	0.063
-532.106	130.896	-0.149	-0.190
-531.091	-143.296	-0.201	0.019
-530.077	207.352	0.152	-0.236
-529.062	-159.243	0.291	0.016
-528.048	-172.180	-0.223	-0.007
-527.033	-14.771	0.033	-0.021
-526.018	-109.405	0.262	0.055
-525.004	419.499	-0.035	0.074
-523.989	-125.860	0.052	0.008
-522.975	377.194	-0.016	-0.034
-521.960	246.441	0.133	-0.224
-520.945	-13.535	-0.071	-0.046
-519.931	86.224	0.158	-0.174
-518.916	-114.150	-0.639	0.123
-517.902	484.265	-0.160	-0.363
-516.887	-132.752	-0.315	0.040
-515.872	538.841	0.028	0.067
-514.858	284.151	0.144	-0.258
-513.843	380.816	0.025	-0.051
-512.829	-168.200	-0.064	0.002
-511.814	297.297	0.007	0.013
-510.799	554.250	-0.084	0.202
-509.785	-101.084	-0.346	0.085
-508.770	110.117	0.211	-0.252
-507.756	-54.195	0.103	0.046
-506.741	-47.920	-0.216	0.104
-505.726	49.902	0.135	0.127
-504.712	-134.950	-0.131	-0.016
-503.697	-200.000	-0.273	0.001
-502.683	-114.017	0.225	0.043
-501.668	800.000	-0.072	-0.296
-500.653	497.384	-0.121	-0.276
-499.639	-5.615	0.249	0.170
-498.624	-29.445	0.194	-0.110
-497.610	-191.927	0.151	0.001
-496.595	183.753	0.169	-0.249
-495.581	465.751	-0.129	-0.288
-494.566	68.960	0.235	0.240
-493.551	-122.278	-0.070	-0.011
-492.537	92.602	0.103	-0.116
-491.522	74.775	-0.272	-0.285
-490.508	800.000	0.053	0.207
-489.493	-143.549	0.349	0.033
-488.478	308.588	-0.007	-0.014
-487.464	554.054	0.024	-0.058
-486.449	-126.989	0.188	0.027
-485.435	-131.792	0.328	-0.043
-484.420	-84.634	0.040	-0.012
-483.405	-200.000	-0.046	0.251
-482.391	167.982	-0.102	-0.144
-481.376	402.875	0.086	0.179
-480.362	47.844	-0.535	0.497
-479.347	-200.000	-0.143	0.000
-478.332	800.000	-0.026	0.099
-477.318	800.000	-0.041	0.169
-476.303	304.121	-0.034	-0.062
-475.289	-200.000	-0.052	0.331
-474.274	-118.089	-0.190	0.034
-473.259	274.488	-0.104	0.184
-472.245	203.197	0.100	-0.154
-471.230	-110.848	0.139	-0.028
-470.216	561.715	-0.049	-0.117
-469.201	-200.000	-0.053	0.275
-468.186	-26.209	-0.237	-0.139
-467.172	-30.159	0.172	-0.097
-466.157	605.315	-0.104	0.257
-465.143	-100.396	0.212	-0.052
-464.128	-200.000	-0.020	0.250
-463.113	-29.485	0.120	-0.068
-462.099	800.000	-0.016	-0.064
-461.084	-200.000	-0.031	0.347
-460.070	36.891	0.244	-0.214
-459.055	-111.192	0.278	0.057
-458.040	1.457	0.032	0.023
-457.026	800.000	-0.071	-0.228
-456.011	-117.436	0.188	0.034
-454.997	-56.297	-0.180	-0.079
-453.982	685.832	-0.071	0.185
-452.968	-147.816	-0.285	-0.024
-451.953	-200.000	-0.020	-0.108
-450.938	-43.590	0.115	-0.058
-449.924	234.025	0.035	0.057
-448.909	46.013	-0.271	0.249
-447.895	695.697	-0.114	0.298
-446.880	-47.208	0.075	-0.036
-445.865	-78.938	0.188	-0.064
-444.851	-29.445	0.298	0.169
-443.836	-200.000	-0.023	-0.258
-442.822	800.000	0.015	0.059
-441.807	362.749	-0.102	-0.203
-440.792	579.298	0.148	-0.360
-439.778	61.870	-0.032	-0.032
-438.763	52.225	0.329	0.311
-437.749	199.987	-0.182	-0.277
-436.734	-1.486	0.020	-0.014
-435.719	-139.943	-0.273	0.029
-434.705	0.293	-0.190	0.134
-433.690	574.746	0.105	0.255
-432.676	188.192	0.096	-0.143
-431.661	-99.857	-0.189	-0.047
-430.646	191.951	-0.084	0.126
-429.632	-156.113	0.241	0.015
-428.617	496.159	-0.011	-0.024
-427.603	-100.592	-0.123	-0.030
-426.588	105.005	0.153	-0.179
-425.573	-175.561	0.240	-0.006
-424.559	455.774	0.038	0.083
-423.544	800.000	0.026	-0.092
-422.530	-200.000	-0.036	-0.248
-421.515	734.257	0.117	0.312
-420.500	-80.945	-0.167	-0.055
-419.486	51.713	0.166	-0.157
-418.471	-155.928	-0.121	-0.008
-417.457	-5.063	0.134	-0.091
-416.442	-24.370	0.212	-0.125
-415.428	-110.140	0.319	-0.066
-414.413	108.778	0.035	-0.041
-413.398	214.642	-0.070	-0.110
-412.384	-41.009	0.246	-0.126
-411.369	386.226	0.183	-0.376
-410.355	800.000	-0.077	-0.263
-409.340	800.000	-0.044	0.133
-408.325	-77.204	-0.247	0.085
-407.311	23.868	0.319	0.261
-406.296	-200.000	0.029	0.283
-405.282	-172.240	-0.489	0.016
-404.267	-119.843	0.370	-0.063
-403.252	118.381	-0.304	0.372
-402.238	70.540	0.136	0.140
-401.223	-46.642	0.081	-0.039
-400.209	-13.904	-0.182	-0.117
-399.194	172.289	-0.097	0.138
-398.179	163.442	0.087	0.121
-397.165	752.130	0.054	-0.145
-396.150	143.653	-0.069	-0.091
-395.136	44.028	-0.236	-0.215
-394.121	-200.000	0.019	0.219
-393.106	45.308	-0.089	0.081
-392.092	-129.037	0.234	0.033
-391.077	770.203	-0.141	0.381
-390.063	4.067	0.073	-0.053
-389.048	-200.000	-0.048	-0.274
-388.033	-64.254	-0.025	0.010
-387.019	800.000	-0.029	-0.101
-386.004	271.132	0.126	-0.220
-384.990	296.748	0.074	-0.135
-383.975	-122.703	0.124	-0.020
-382.960	181.361	-0.115	-0.168
-381.946	502.920	-0.084	-0.193
-380.931	-43.892	0.054	0.027
-379.917	-85.775	-0.351	0.108
-378.902	-74.422	-0.193	-0.069
-377.888	-18.677	0.160	-0.099
-376.873	800.000	0.051	-0.140
-375.858	748.341	0.162	0.433
-374.844	-91.570	-0.058	-0.016
-373.829	33.518	-0.156	0.134
-372.815	800.000	-0.061	-0.255
-371.800	-40.679	0.373	0.192
-370.785	798.707	0.131	-0.357
-369.771	599.102	0.076	-0.186
-368.756	-72.714	0.063	0.023
-367.742	178.122	0.199	0.288
-366.727	0.702	0.065	0.046
-365.712	43.004	-0.065	-0.059
-364.698	139.506	-0.297	0.387
-363.683	-63.753	0.106	0.043
-362.669	-200.000	0.000	0.258
-361.654	-200.000	-0.037	0.181
-360.639	30.940	0.254	0.216
-359.625	92.859	-0.154	0.172
-358.610	-95.508	-0.221	0.059
-357.596	-10.412	-0.068	-0.045
-356.581	272.237	-0.104	0.182
-355.566	75.267	0.255	0.266
-354.552	-34.627	0.189	0.102
-353.537	102.353	-0.138	-0.160
-352.523	97.683	0.012	0.014
-351.508	-200.000	0.026	0.163
-350.493	-55.338	0.115	0.051
-349.479	-200.000	-0.028	-0.146
-348.464	-53.801	0.272	0.123
-347.450	800.000	-0.030	0.094
-346.435	800.000	-0.093	-0.264
-345.420	0.571	-0.061	0.043
-344.406	565.849	-0.029	0.071
-343.391	3.989	-0.076	-0.055
-342.377	-136.437	0.166	-0.019
-341.362	76.836	-0.069	0.073
-340.348	-178.444	0.288	0.007
-339.333	63.258	-0.134	0.133
-338.318	13.289	-0.159	-0.122
-337.304	13.199	0.094	0.072
-336.289	-36.180	0.495	-0.264
-335.275	-200.000	-0.006	0.146
-334.260	800.000	0.120	-0.388
-333.245	-28.841	0.098	-0.055
-332.231	88.922	0.293	-0.323
-331.216	800.000	0.013	-0.052
-330.202	-200.000	0.029	0.153
-329.187	800.000	0.069	-0.245
-328.172	-64.680	-0.078	0.031
-327.158	-200.000	0.013	0.181
-326.143	64.482	0.028	0.027
-325.129	295.179	0.113	-0.204
-324.114	-179.803	-0.443	-0.009
-323.099	-13.134	0.158	0.102
-322.085	-67.387	-0.116	-0.045
-321.070	800.000	0.065	-0.180
-320.056	-27.008	-0.019	0.011
-319.041	-76.162	0.170	0.059
-318.026	-8.803	0.320	0.212
-317.012	-166.861	-0.074	-0.003
-315.997	-112.486	0.276	-0.054
-314.983	-122.654	-0.100	-0.016
-313.968	-94.557	-0.220	0.059
-312.953	-200.000	0.077	-0.344
-311.939	249.643	-0.117	-0.197
-310.924	-200.000	-0.016	0.086
-309.910	-10.354	0.210	0.138
-308.895	481.273	-0.051	0.114
-307.880	-47.018	-0.146	0.070
-306.866	5.435	-0.179	-0.130
-305.851	122.989	-0.160	0.198
-304.837	-139.388	0.161	0.017
-303.822	-200.000	-0.023	-0.148
-302.807	-62.526	-0.164	-0.067
-301.793	573.205	-0.080	-0.192
-300.778	-200.000	-0.026	-0.121
-299.764	800.000	0.099	-0.297
-298.749	160.135	0.069	0.095
-297.735	800.000	-0.035	0.150
-296.720	-111.181	0.427	0.086
-295.705	317.067	0.089	-0.166
-294.691	-200.000	0.016	0.180
-293.676	-200.000	0.001	0.354
-292.662	-200.000	-0.002	0.151
-291.647	32.999	0.103	0.088
-290.632	273.381	0.080	0.139
-289.618	-59.163	0.123	-0.052
-288.603	165.098	0.112	0.156
-287.589	-200.000	0.013	-0.093
-286.574	-200.000	-0.031	-0.140
-285.559	110.307	0.160	-0.190
-284.545	111.370	-0.074	-0.088
-283.530	-200.000	0.025	0.352
-282.516	-200.000	0.083	0.463
-281.501	-200.000	-0.002	-0.114
-280.486	-200.000	-0.001	0.139
-279.472	81.106	0.021	0.023
-278.457	-109.989	0.216	0.045
-277.443	-116.912	0.149	-0.027
-276.428	158.305	-0.084	-0.116
-275.413	-150.751	-0.148	0.011
-274.399	-4.496	0.025	0.017
-273.384	-200.000	0.013	-0.128
-272.370	800.000	-0.117	0.334
-271.355	146.174	-0.162	0.215
-270.340	800.000	-0.048	-0.181
-269.326	-200.000	0.005	0.029
-268.311	408.999	-0.019	-0.039
-267.297	291.564	-0.051	-0.091
-266.282	800.000	0.040	-0.127
-265.267	-200.000	0.001	0.135
-264.253	-31.551	-0.163	-0.090
-263.238	-74.885	0.163	-0.058
-262.224	72.289	-0.085	-0.087
-261.209	800.000	0.036	-0.118
-260.195	-137.970	-0.251	0.028
-259.180	-92.084	-0.414	-0.115
-258.165	-135.502	0.276	-0.032
-257.151	-38.798	0.082	0.042
-256.136	-189.649	-0.343	-0.004
-255.122	-71.068	0.096	-0.035
-254.107	-200.000	-0.010	0.125
-253.092	57.103	0.141	0.136
-252.078	-82.991	0.041	-0.013
-251.063	-114.445	-0.348	-0.066
-250.049	-200.000	0.023	-0.179
-249.034	-200.000	-0.047	-0.322
-248.019	-43.136	0.132	-0.066
-247.005	-134.296	0.316	-0.038
-245.990	604.053	-0.091	-0.224
-244.976	96.738	0.058	0.065
-243.961	-200.000	-0.045	-0.325
-242.946	35.840	0.091	0.079
-241.932	369.182	0.045	-0.089
-240.917	109.682	-0.039	0.046
-239.903	88.354	0.210	0.230
-238.888	-146.943	-0.308	0.026
-237.873	-200.000	0.031	-0.170
-236.859	52.482	0.049	-0.046
-235.844	-7.544	0.097	-0.065
-234.830	420.051	0.065	-0.137
-233.815	160.919	-0.179	-0.247
-232.800	800.000	-0.062	0.206
-231.786	-40.523	0.198	0.101
-230.771	-200.000	-0.003	0.030
-229.757	18.122	0.209	0.164
-228.742	-51.110	0.031	0.014
-227.727	800.000	0.047	0.162
-226.713	348.350	-0.028	-0.055
-225.698	394.843	-0.113	-0.232
-224.684	-123.602	-0.119	-0.019
-223.669	-23.660	-0.222	-0.131
-222.655	800.000	-0.086	-0.268
-221.640	98.968	-0.172	0.195
-220.625	-115.693	0.134	0.025
-219.611	-200.000	-0.056	-0.457
-218.596	800.000	0.090	-0.344
-217.582	-200.000	-0.003	-0.090
-216.567	217.646	0.088	0.139
-215.552	-56.015	0.340	0.149
-214.538	-183.907	-0.255	-0.004
-213.523	800.000	0.084	0.245
-212.509	-44.045	-0.275	0.136
-211.494	800.000	0.133	-0.419
-210.479	-200.000	0.004	-0.031
-209.465	-72.730	-0.078	0.028
-208.450	800.000	-0.020	0.062
-207.436	164.678	0.038	0.053
-206.421	210.882	0.120	0.186
-205.406	-200.000	-0.005	-0.096
-204.392	-47.279	0.276	-0.132
-203.377	-200.000	0.060	-0.411
-202.363	-200.000	0.010	-0.129
-201.348	286.609	-0.082	-0.145
-200.333	452.294	-0.128	0.279
-199.319	800.000	0.036	-0.130
-198.304	193.648	-0.148	-0.221
-197.290	-12.834	-0.260	0.167
-196.275	800.000	0.060	0.185
-195.260	-57.565	-0.278	0.120
-194.246	114.979	-0.215	0.258
-193.231	113.217	0.237	0.282
-192.217	-82.210	-0.116	0.037
-191.202	-89.457	-0.248	0.072
-190.187	-200.000	-0.005	-0.033
-189.173	-48.421	-0.223	-0.105
-188.158	59.518	-0.161	0.157
-187.144	400.769	-0.029	-0.059
-186.129	-159.041	0.170	0.009
-185.114	-159.468	-0.124	0.007
-184.100	-200.000	-0.048	0.366
-183.085	-83.931	-0.338	-0.106
-182.071	311.196	-0.148	-0.273
-181.056	800.000	-0.069	-0.270
-180.042	-13.370	0.115	-0.073
-179.027	-14.736	-0.116	0.073
-178.012	38.614	-0.153	0.135
-176.998	81.063	-0.308	0.326
-175.983	245.089	0.129	0.213
-174.969	387.870	0.067	0.137
-173.954	-109.236	-0.202	-0.042
-172.939	-200.000	0.013	0.329
-171.925	-43.044	-0.214	-0.106
-170.910	412.562	-0.206	-0.430
-169.896	-76.076	0.188	0.065
-168.881	25.515	-0.201	-0.165
-167.866	-200.000	-0.041	-0.330
-166.852	-200.000	-0.009	-0.067
-165.837	125.503	-0.084	-0.104
-164.823	197.079	0.051	-0.077
-163.808	639.567	0.112	-0.280
-162.793	19.092	0.292	0.230
-161.779	110.254	0.151	0.178
-160.764	-10.601	0.083	0.054
-159.750	-200.000	-0.002	0.202
-158.735	75.954	0.106	-0.110
-157.720	-200.000	0.014	0.220
-156.706	142.431	-0.161	0.209
-155.691	-132.441	0.126	-0.016
-154.677	-200.000	0.030	0.255
-153.662	800.000	0.032	0.120
-152.647	-200.000	0.011	0.190
-151.633	-7.845	-0.339	-0.225
-150.618	-109.431	0.393	-0.082
-149.604	800.000	-0.110	-0.384
-148.589	58.479	0.172	-0.166
-147.574	72.014	0.201	-0.205
-146.560	20.059	-0.062	-0.049
-145.545	-50.765	0.121	0.056
-144.531	170.607	0.149	-0.210
-143.516	160.240	0.036	0.049
-142.502	-98.290	-0.199	0.050
-141.487	-109.335	0.136	0.028
-140.472	78.077	-0.219	0.230
-139.458	51.533	0.072	-0.068
-138.443	320.628	0.150	0.280
-137.429	800.000	0.060	0.239
-136.414	-200.000	0.016	0.176
-135.399	-24.730	-0.199	0.116
-134.385	199.874	0.173	-0.260
-133.370	-146.894	-0.369	-0.031
-132.356	404.662	-0.121	0.250
-131.341	-200.000	-0.000	0.187
-130.326	497.756	0.151	0.340
-129.312	-75.858	-0.288	-0.100
-128.297	-200.000	-0.022	-0.159
-127.283	-150.317	-0.170	-0.013
-126.268	-114.636	0.128	-0.024
-125.253	245.705	0.163	0.269
-124.239	-134.161	-0.333	-0.040
-123.224	34.327	0.159	0.136
-122.210	-200.000	0.045	0.292
-121.195	-41.402	0.115	-0.058
-120.180	-47.387	-0.036	-0.017
-119.166	-29.781	-0.283	-0.158
-118.151	123.100	-0.168	0.206
-117.137	-200.000	-0.057	-0.257
-116.122	-161.712	0.500	-0.025
-115.107	-14.058	-0.252	-0.160
-114.093	800.000	-0.157	0.525
-113.078	-200.000	0.011	0.357
-112.064	-200.000	0.025	-0.160
-111.049	0.952	-0.262	-0.184
-110.034	-200.000	-0.017	-0.252
-109.020	800.000	0.035	0.109
-108.005	28.542	-0.240	-0.199
-106.991	42.205	0.203	-0.181
-105.976	120.581	0.195	0.238
-104.962	101.477	0.136	-0.156
-103.947	-200.000	0.043	0.228
-102.932	78.972	-0.159	0.167
-101.918	-27.858	0.386	-0.219
-100.903	800.000	0.027	0.084
-99.889	-151.417	0.163	0.012
-98.874	-169.072	-0.096	-0.003
-97.859	800.000	-0.057	-0.215
-96.845	-20.112	-0.174	-0.105
-95.830	4.124	0.088	0.063
-94.816	-200.000	0.026	-0.145
-93.801	252.068	-0.160	0.267
-92.786	-137.142	0.228	0.025
-91.772	-200.000	-0.004	0.084
-90.757	800.000	-0.035	-0.105
-89.743	-200.000	-0.021	0.137
-88.728	-142.435	-0.062	-0.006
-87.713	223.788	0.199	0.315
-86.699	-123.311	0.205	-0.032
-85.684	-200.000	-0.045	0.211
-84.670	-104.573	0.154	-0.035
-83.655	26.421	-0.258	0.211
-82.640	-200.000	-0.007	-0.183
-81.626	-107.151	-0.274	0.059
-80.611	-129.376	0.168	-0.023
-79.597	-15.318	-0.065	-0.041
-78.582	800.000	0.045	-0.165
-77.567	476.478	-0.148	-0.328
-76.553	57.240	0.192	0.183
-75.538	101.252	0.059	-0.067
-74.524	-200.000	-0.021	-0.345
-73.509	-164.117	0.549	-0.025
-72.494	-28.371	-0.178	-0.100
-71.480	182.434	-0.102	-0.147
-70.465	259.905	-0.039	0.066
-69.451	-51.436	0.172	0.079
-68.436	-140.709	0.154	0.016
-67.422	-117.658	-0.337	0.059
-66.407	-135.896	-0.252	0.029
-65.392	-106.804	-0.213	0.046
-64.378	-123.223	-0.383	0.060
-63.363	-200.000	0.029	0.231
-62.349	70.412	-0.362	0.367
-61.334	183.060	-0.753	-1.088
-60.319	201.822	0.508	0.767
-59.305	-200.000	-0.082	-1.053
-58.290	800.000	0.451	1.237
-57.276	754.971	0.506	1.339
-56.261	-200.000	116.654	657.172
-55.246	519.360	1538.078	3524.647
-54.232	175.501	2709.835	3842.814
-53.217	107.963	2160.750	2518.678
-52.203	38.637	1595.537	1392.276
-51.188	30.077	1338.195	1116.370
-50.173	27.188	1300.189	1067.686
-49.159	54.947	1357.554	1281.988
-48.144	52.817	1371.900	1282.746
-47.130	30.308	1326.342	1107.689
-46.115	26.831	1308.183	1071.968
-45.100	26.570	1303.715	1066.727
-44.086	26.564	1300.899	1064.345
-43.071	26.577	1298.314	1062.267
-42.057	26.530	1296.328	1060.324
-41.042	26.741	1294.580	1060.086
-40.027	26.628	1293.126	1058.193
-39.013	26.601	1291.679	1056.809
-37.998	26.698	1289.564	1055.603
-36.984	26.730	1287.963	1054.433
-35.969	26.745	1286.324	1053.137
-34.954	26.802	1284.301	1051.773
-33.940	26.868	1282.992	1051.039
-32.925	26.844	1281.387	1049.541
-31.911	26.819	1280.195	1048.382
-30.896	26.824	1278.557	1047.029
-29.881	26.803	1277.375	1045.898
-28.867	26.823	1275.687	1044.588
-27.852	26.841	1274.939	1044.040
-26.838	26.904	1273.230	1042.958
-25.823	26.909	1271.622	1041.626
-24.809	26.818	1270.212	1039.908
-23.794	26.737	1269.622	1038.921
-22.779	26.744	1267.766	1037.402
-21.765	26.870	1266.230	1036.822
-20.750	26.762	1265.431	1035.511
-19.736	26.796	1263.964	1034.462
-18.721	26.761	1262.706	1033.195
-17.706	26.831	1261.636	1032.678
-16.692	26.746	1260.655	1031.350
-15.677	26.732	1259.534	1030.314
-14.663	26.772	1258.221	1029.426
-13.648	26.584	1257.683	1027.875
-12.633	26.685	1256.226	1027.215
-11.619	26.629	1256.054	1026.715
-10.604	26.699	1254.581	1025.868
-9.590	26.778	1253.848	1025.677
-8.575	26.670	1253.328	1024.600
-7.560	26.592	1252.356	1023.322
-6.546	26.666	1250.997	1022.587
-5.531	26.648	1250.105	1021.720
-4.517	26.717	1249.472	1021.549
-3.502	26.711	1248.336	1020.544
-2.487	26.674	1247.479	1019.595
-1.473	26.748	1242.918	1016.243
-0.458	25.207	1228.967	996.245
0.556	22.303	1211.577	960.201
1.571	18.611	1218.426	945.238
2.586	17.854	1233.543	952.657
3.600	17.485	1221.641	941.343
4.615	13.089	1149.986	863.118
5.629	6.282	1079.013	776.290
6.644	3.474	1061.408	749.919
7.659	3.324	1059.213	747.572
8.673	3.213	1057.774	745.952
9.688	3.349	1056.550	745.683
10.702	3.445	1054.677	744.759
11.717	7.297	1059.498	766.758
12.731	14.660	1069.875	810.051
13.746	19.009	1075.090	835.085
14.761	19.593	1075.384	838.077
15.775	18.684	1074.074	832.571
16.790	17.742	1071.867	826.229
17.804	17.048	1070.190	821.505
18.819	16.718	1069.341	819.183
19.834	16.553	1068.487	817.656
20.848	16.461	1067.907	816.697
21.863	16.228	1067.119	814.896
22.877	16.090	1066.126	813.400
23.892	16.043	1065.429	812.572
24.907	16.187	1064.310	812.337
25.921	16.091	1063.816	811.431
26.936	16.067	1062.410	810.168
27.950	16.033	1061.252	809.051
28.965	16.250	1059.495	808.678
29.980	16.435	1057.770	808.178
30.994	16.311	1057.402	807.230
32.009	16.518	1055.800	806.925
33.023	16.369	1054.603	805.228
34.038	16.157	1053.849	803.570
35.053	16.081	1053.398	802.797
36.067	16.234	1051.807	802.239
37.082	16.206	1051.030	801.440
38.096	16.225	1050.669	801.187
39.111	16.378	1049.610	801.033
40.126	16.185	1048.540	799.229
41.140	15.927	1047.083	796.829
42.155	15.740	1045.995	795.048
43.169	15.954	1044.190	794.614
44.184	15.904	1044.074	794.219
45.199	15.914	1042.911	793.314
46.213	16.008	1041.584	792.676
47.228	16.114	1040.966	792.631
48.242	16.244	1039.595	792.129
49.257	16.187	1038.649	791.069
50.271	16.236	1038.311	790.973
51.286	16.319	1037.398	790.597
52.301	16.232	1036.277	789.266
53.315	16.116	1035.104	787.762
54.330	15.967	1034.310	786.392
55.344	16.000	1033.423	785.802
56.359	15.996	1032.565	785.061
57.374	15.909	1031.116	783.483
58.388	15.861	1030.840	782.980
59.403	15.845	1029.791	782.042
60.417	15.816	1029.084	781.301
61.432	15.816	1027.923	780.348
62.447	15.762	1027.200	779.483
63.461	15.552	1026.875	778.194
64.476	15.703	1025.214	777.562
65.490	15.634	1024.519	776.651
66.505	15.829	1023.697	776.856
67.520	15.772	1023.075	776.055
68.534	15.851	1022.153	775.648
69.549	15.769	1021.411	774.639
70.563	15.714	1020.751	773.816
71.578	15.547	1020.375	772.699
72.593	15.625	1019.438	772.278
73.607	15.600	1018.341	771.262
74.622	15.704	1018.170	771.542
75.636	15.693	1017.289	770.756
76.651	15.737	1016.342	770.170
77.666	15.710	1015.627	769.437
78.680	15.610	1015.453	768.784
79.695	15.746	1014.540	768.645
80.709	15.828	1014.035	768.567
81.724	15.902	1013.543	768.465
82.739	16.057	1012.602	768.387
83.753	16.047	1011.656	767.557
84.768	16.457	1010.605	768.556
85.782	16.379	1010.141	767.780
86.797	16.263	1009.657	766.819
87.812	16.144	1008.418	765.270
88.826	16.260	1006.996	764.650
89.841	16.253	1006.460	764.142
90.855	16.346	1005.378	763.673
91.870	16.399	1004.640	763.287
92.884	16.487	1003.609	762.834
93.899	16.444	1002.904	762.035
94.914	16.505	1002.357	761.829
95.928	16.464	1001.715	761.088
96.943	16.414	1000.643	759.978
97.957	16.288	999.793	758.702
98.972	16.338	999.038	758.284
99.987	16.282	998.337	757.433
101.001	16.250	997.100	756.286
102.016	16.231	996.322	755.545
103.030	16.354	995.529	755.426
104.045	16.188	995.033	754.241
105.060	16.343	994.023	754.101
106.074	15.983	992.874	751.559
107.089	16.040	991.245	750.511
108.103	15.861	990.790	749.302
109.118	15.869	990.082	748.739
110.133	15.744	989.564	747.721
111.147	15.742	988.788	747.064
112.162	15.899	987.689	746.864
113.176	15.963	987.098	746.631
114.191	16.057	986.453	746.494
115.206	15.992	985.482	745.407
116.220	15.841	984.846	744.193
117.235	16.029	983.505	743.944
118.249	15.995	982.700	743.118
119.264	16.003	981.775	742.389
120.279	15.896	980.811	741.121
121.293	15.790	979.964	739.950
122.308	15.824	978.936	739.259
123.322	15.721	978.490	738.406
124.337	15.622	977.569	737.209
125.352	15.830	975.947	736.833
126.366	15.789	974.679	735.629
127.381	15.879	973.633	735.171
128.395	15.834	972.955	734.395
129.410	15.924	972.152	734.119
130.424	15.877	971.253	733.169
131.439	15.999	970.562	733.112
132.454	16.120	969.664	732.894
133.468	16.011	969.120	731.944
134.483	15.897	968.724	731.085
135.497	16.007	967.602	730.654
136.512	15.952	966.943	729.851
137.527	16.058	965.447	729.115
138.541	16.152	965.146	729.233
139.556	16.130	964.459	728.554
140.570	16.097	964.108	728.080
141.585	16.278	963.320	728.202
142.600	16.329	962.212	727.521
143.614	16.320	961.989	727.248
144.629	16.371	960.792	726.498
145.643	16.392	959.908	725.858
146.658	16.175	958.874	724.080
147.673	16.117	957.899	723.032
148.687	16.215	956.944	722.663
149.702	16.144	956.062	721.630
150.716	16.012	955.816	720.817
151.731	16.099	954.366	720.032
152.746	16.096	953.869	719.580
153.760	16.054	952.941	718.635
154.775	16.199	952.717	719.022
155.789	16.396	951.847	719.140
156.804	16.294	950.786	717.841
157.819	16.322	950.416	717.618
158.833	16.503	949.617	717.721
159.848	16.474	949.350	717.332
160.862	16.435	948.114	716.169
161.877	16.222	947.098	714.435
162.892	16.161	945.758	713.105
163.906	16.213	944.814	712.548
164.921	16.212	943.987	711.859
165.935	16.156	943.646	711.300
166.950	16.204	942.548	710.614
167.964	16.291	941.879	710.412
168.979	16.226	940.744	709.220
169.994	16.212	939.930	708.486
171.008	16.383	939.038	708.467
172.023	16.506	938.457	708.480
173.037	16.515	938.026	708.130
174.052	16.499	937.003	707.228
175.067	16.233	936.675	705.804
176.081	16.146	936.138	704.976
177.096	16.243	935.136	704.565
178.110	16.310	934.865	704.575
179.125	16.189	934.434	703.686
180.140	16.267	933.807	703.476
181.154	16.280	933.422	703.178
182.169	16.546	932.611	703.611
183.183	16.609	932.232	703.526
184.198	16.498	931.191	702.217
185.213	16.495	930.861	701.891
186.227	16.685	930.104	702.048
187.242	16.676	929.510	701.498
188.256	16.815	928.922	701.571
189.271	16.736	928.412	700.796
190.286	16.407	927.136	698.409
191.300	16.152	926.005	696.444
192.315	16.028	925.554	695.532
193.329	16.097	925.412	695.648
194.344	16.404	924.296	696.012
195.359	16.526	923.718	696.020
196.373	16.610	923.364	696.036
197.388	16.678	923.247	696.166
198.402	16.827	922.661	696.271
199.417	16.889	921.998	695.965
200.432	16.946	921.544	695.796
201.446	16.995	921.076	695.582
202.461	17.028	920.167	694.970
203.475	16.988	919.912	694.549
204.490	16.861	918.801	693.133
205.504	16.733	917.975	691.922
206.519	16.748	917.249	691.378
207.534	16.749	916.246	690.564
208.548	16.707	916.091	690.216
209.563	16.748	915.266	689.700
210.577	16.610	915.411	689.184
211.592	16.911	914.190	689.428
212.607	16.974	913.328	688.973
213.621	16.981	912.435	688.268
214.636	17.033	911.970	688.067
215.650	16.979	911.429	687.380
216.665	16.980	910.904	686.927
217.680	17.052	910.245	686.659
218.694	17.236	909.398	686.704
219.709	17.091	908.480	685.366
220.723	17.290	907.526	685.385
221.738	17.270	907.142	684.956
222.753	16.940	906.916	683.396
223.767	17.098	906.363	683.552
224.782	17.321	905.592	683.810
225.796	17.313	905.168	683.395
226.811	17.247	904.291	682.408
227.826	17.221	903.357	681.538
228.840	17.115	902.702	680.561
229.855	17.023	902.187	679.741
230.869	17.111	901.251	679.330
231.884	16.886	900.615	677.889
232.899	17.050	899.714	677.806
233.913	17.017	898.880	676.989
234.928	16.913	898.504	676.229
235.942	16.897	897.886	675.639
236.957	16.889	897.403	675.184
237.972	16.778	897.305	674.610
238.986	16.845	896.336	674.088
240.001	16.907	895.509	673.652
241.015	17.077	894.987	673.875
242.030	17.062	894.285	673.226
243.045	16.991	894.141	672.779
244.059	17.047	893.365	672.355
245.074	17.278	892.645	672.668
246.088	17.283	891.952	672.108
247.103	17.318	891.410	671.778
248.117	17.560	890.896	672.286
249.132	17.640	890.375	672.150
250.147	17.537	890.398	671.700
251.161	17.676	889.423	671.452
252.176	17.748	888.678	671.114
253.190	17.822	888.280	671.044
254.205	17.822	887.683	670.537
255.220	17.857	886.946	670.059
256.234	17.674	886.422	668.884
257.249	17.770	885.721	668.671
258.263	17.835	884.424	667.887
259.278	17.805	883.860	667.285
260.293	17.812	883.388	666.898
261.307	17.921	883.079	667.030
262.322	18.041	882.065	666.676
263.336	18.150	881.299	666.461
264.351	17.976	881.054	665.542
265.366	18.109	880.175	665.335
266.380	18.083	879.408	664.596
267.395	18.022	878.795	663.837
268.409	17.869	878.097	662.656
269.424	17.910	877.614	662.391
270.439	17.811	876.990	661.477
271.453	17.690	876.015	660.216
272.468	17.732	875.800	660.159
273.482	17.918	874.727	660.008
274.497	17.866	874.313	659.437
275.512	17.936	873.964	659.387
276.526	17.928	873.307	658.803
277.541	17.951	873.133	658.702
278.555	18.219	872.482	659.185
279.570	18.231	871.691	658.575
280.585	18.099	871.186	657.629
281.599	18.046	870.123	656.561
282.614	17.946	869.813	655.887
283.628	17.924	869.014	655.140
284.643	17.983	868.427	654.868
285.657	18.047	867.731	654.530
286.672	18.000	867.420	654.056
287.687	18.071	866.607	653.659
288.701	18.116	865.707	653.095
289.716	18.177	865.194	652.881
290.730	18.012	865.092	652.116
291.745	18.150	864.436	652.093
292.760	17.985	864.280	651.285
293.774	18.309	863.232	651.672
294.789	18.193	862.347	650.508
295.803	18.008	862.041	649.514
296.818	18.193	861.224	649.544
297.833	18.198	860.187	648.722
298.847	18.238	859.341	648.181
299.862	18.205	859.349	648.005
300.876	18.266	859.255	648.106
301.891	18.455	858.111	647.898
302.906	18.476	857.960	647.809
303.920	18.732	857.043	648.026
304.935	18.734	856.642	647.671
305.949	18.456	856.049	646.120
306.964	18.475	855.228	645.513
307.979	18.313	855.098	644.747
308.993	18.514	854.683	645.133
310.008	18.623	853.866	644.868
311.022	18.390	853.166	643.409
312.037	18.488	852.234	643.018
313.052	18.291	851.462	641.638
314.066	18.245	850.982	641.049
315.081	18.227	850.809	640.794
316.095	18.209	850.387	640.351
317.110	18.262	849.516	639.839
318.125	18.241	849.217	639.476
319.139	18.353	848.409	639.232
320.154	18.485	848.181	639.493
321.168	18.319	847.750	638.494
322.183	18.472	847.235	638.619
323.197	18.293	846.702	637.494
324.212	18.420	846.037	637.412
325.227	18.429	845.348	636.869
326.241	18.399	844.821	636.305
327.256	18.394	844.607	636.069
328.270	18.431	843.894	635.611
329.285	18.429	842.943	634.831
330.300	18.326	842.214	633.846
331.314	18.335	842.316	633.900
332.329	18.625	841.189	634.067
333.343	18.519	841.305	633.708
334.358	18.667	840.815	633.827
335.373	18.647	840.301	633.312
336.387	18.678	840.247	633.330
337.402	18.780	840.125	633.555
338.416	18.785	839.630	633.147
339.431	19.023	839.099	633.566
340.446	18.970	838.840	633.119
341.460	18.895	838.126	632.249
342.475	19.046	837.701	632.426
343.489	19.217	836.993	632.464
344.504	19.093	837.058	632.001
345.519	19.110	836.830	631.837
346.533	19.059	836.245	631.151
347.548	18.843	835.758	629.938
348.562	18.908	834.779	629.381
349.577	18.849	833.635	628.247
350.592	18.751	833.305	627.583
351.606	18.848	832.566	627.327
352.621	18.865	832.057	626.949
353.635	18.905	831.342	626.502
354.650	18.952	830.875	626.264
355.665	18.908	830.384	625.679
356.679	19.017	829.827	625.600
357.694	19.045	829.178	625.158
358.708	18.903	828.609	624.159
359.723	19.040	827.923	624.083
360.738	19.187	827.455	624.208
361.752	19.118	826.929	623.506
362.767	19.259	826.585	623.701
363.781	19.366	826.069	623.643
364.796	19.328	825.712	623.180
365.810	19.262	825.271	622.555
366.825	19.577	824.611	623.138
367.840	19.395	824.256	622.159
368.854	19.243	823.695	621.133
369.869	19.313	823.221	620.972
370.883	19.473	822.593	621.019
371.898	19.473	822.378	620.803
372.913	19.495	822.071	620.594
373.927	19.388	821.417	619.664
374.942	19.446	820.893	619.422
375.956	19.528	820.924	619.682
376.971	19.512	820.408	619.183
377.986	19.798	819.401	619.390
379.000	19.682	819.377	618.901
380.015	19.548	818.681	617.844
381.029	19.766	818.121	618.143
382.044	19.728	817.372	617.389
383.059	19.689	816.877	616.821
384.073	19.509	816.344	615.723
385.088	19.512	815.763	615.239
386.102	19.420	815.256	614.475
387.117	19.479	814.561	614.107
388.132	19.483	814.119	613.733
389.146	19.524	813.586	613.423
390.161	19.577	813.024	613.134
391.175	19.764	812.561	613.394
392.190	19.500	812.171	612.109
393.205	19.537	811.830	611.928
394.219	19.671	811.201	611.875
395.234	19.600	810.611	611.126
396.248	19.408	810.675	610.440
397.263	19.305	809.886	609.427
398.278	19.308	809.345	608.977
399.292	19.448	809.179	609.291
400.307	19.391	808.488	608.517
401.321	19.486	808.012	608.439
402.336	19.534	807.954	608.513
403.350	19.555	807.403	608.115
404.365	19.545	807.126	607.819
405.380	19.791	806.293	608.004
406.394	19.913	805.870	608.060
407.409	19.900	805.391	607.597
408.423	20.044	805.005	607.756
409.438	20.001	805.060	607.596
410.453	19.951	804.513	606.953
411.467	20.168	803.844	607.154
412.482	20.083	803.647	606.656
413.496	20.262	803.308	606.972
414.511	20.135	803.240	606.420
415.526	20.258	802.346	606.124
416.540	20.176	801.731	605.318
417.555	20.140	801.409	604.896
418.569	20.200	800.931	604.692
419.584	20.230	800.557	604.459
420.599	20.113	800.201	603.730
421.613	162.059	1371.838	1797.153
422.628	140.711	1455.117	1797.210
