DTS Sentinel unit serial number:	SN413079Multiplexer serial number:	ORYXHardware model number:	OX4-SRSoftware version number:	ORYX F/W v4.00 Oryx Data Collector v3.7.2.0data status	okinstallation	princeton_trtdifferential loss correction	single-endedforward channel	channel 1reverse channel	N/Adate	2019/09/16time	09:10:35forward acquisition time	60.00reverse acquisition time	0.00gamma	496.2192k internal	0.2324k external	0.2324temperature offset calibration	0.9974default loss term (dB/km)	0.3790temperature slope calibration	1.0000multiplexer offset coefficient	1.0000multiplexer slope coefficient	1.0000fibre end	0.00T internal ref (°C)	30.92T ext. ref 1 (°C)	12.10T ext. ref 2 (°C)	28.24length (m)	temperature (°C)	Stokes	anti-Stokes-747.200	-200.000	0.006	0.189
-746.185	477.956	0.080	0.183
-745.171	18.124	-0.238	-0.192
-744.156	800.000	-0.028	0.084
-743.142	-123.002	-0.266	-0.043
-742.127	66.027	-0.082	0.084
-741.112	437.987	0.150	-0.329
-740.098	-200.000	0.001	0.305
-739.083	-93.343	-0.131	-0.037
-738.069	-11.105	-0.126	0.084
-737.054	202.254	-0.233	-0.362
-736.039	-200.000	-0.072	-0.423
-735.025	-68.685	-0.211	-0.082
-734.010	83.236	0.193	-0.212
-732.996	-67.748	-0.523	-0.207
-731.981	-0.685	0.174	0.124
-730.966	213.310	-0.178	0.284
-729.952	-200.000	0.001	-0.362
-728.937	-9.075	0.109	-0.074
-727.923	541.363	-0.016	-0.039
-726.908	-112.027	-0.324	-0.066
-725.894	22.312	0.146	-0.120
-724.879	-125.875	0.199	-0.030
-723.864	69.204	-0.124	-0.128
-722.850	800.000	0.060	0.250
-721.835	210.085	0.099	0.156
-720.821	800.000	-0.089	-0.360
-719.806	-150.554	-0.184	0.014
-718.791	35.206	-0.165	-0.146
-717.777	-149.337	-0.145	0.012
-716.762	-171.033	-0.279	0.010
-715.748	-29.975	-0.104	-0.059
-714.733	-0.060	0.156	0.112
-713.718	-106.549	0.170	0.038
-712.704	408.220	0.064	-0.137
-711.689	340.940	0.056	-0.110
-710.675	-13.583	0.293	-0.191
-709.660	19.813	0.020	0.016
-708.645	-76.505	-0.217	0.077
-707.631	-200.000	-0.002	0.024
-706.616	15.563	0.188	0.149
-705.602	-93.584	0.140	-0.039
-704.587	-110.422	0.229	0.048
-703.572	-92.102	-0.161	0.046
-702.558	424.932	0.097	0.211
-701.543	15.986	0.141	-0.112
-700.529	383.799	-0.096	-0.199
-699.514	14.587	-0.360	0.283
-698.499	571.892	-0.089	-0.219
-697.485	-98.838	0.216	0.055
-696.470	57.273	0.226	-0.222
-695.456	3.950	0.200	-0.147
-694.441	101.321	0.090	0.106
-693.426	-200.000	0.003	0.203
-692.412	-114.209	0.127	0.025
-691.397	123.414	-0.045	-0.056
-690.383	-83.917	0.102	-0.033
-689.368	800.000	0.105	-0.297
-688.354	684.569	0.041	0.109
-687.339	261.008	0.106	-0.185
-686.324	81.292	-0.284	0.309
-685.310	-31.700	0.253	-0.143
-684.295	-145.427	-0.283	-0.026
-683.281	703.109	-0.167	-0.444
-682.266	92.227	-0.098	0.111
-681.251	30.370	0.077	0.067
-680.237	-14.601	0.083	-0.054
-679.222	239.308	0.072	-0.121
-678.208	-118.896	-0.301	-0.053
-677.193	-15.212	-0.181	0.116
-676.178	-151.107	-0.284	-0.021
-675.164	-12.403	0.216	0.142
-674.149	-91.258	-0.164	-0.047
-673.135	66.612	0.195	0.199
-672.120	800.000	0.059	0.174
-671.105	-182.171	-0.058	-0.001
-670.091	152.278	0.051	0.069
-669.076	58.019	0.102	0.100
-668.062	-10.113	-0.291	0.195
-667.047	119.061	0.092	-0.115
-666.032	800.000	-0.091	-0.291
-665.018	800.000	-0.070	-0.257
-664.003	1.974	0.106	0.077
-662.989	-8.707	-0.343	0.231
-661.974	2.202	-0.303	0.221
-660.959	-104.202	0.144	-0.034
-659.945	591.115	-0.082	-0.204
-658.930	1.750	0.235	-0.171
-657.916	-1.617	-0.039	-0.028
-656.901	39.405	0.089	-0.080
-655.886	-200.000	-0.017	0.448
-654.872	-200.000	-0.024	0.147
-653.857	-11.685	-0.158	0.104
-652.843	-48.119	-0.249	-0.121
-651.828	-13.991	0.234	-0.152
-650.814	-108.218	-0.152	-0.033
-649.799	145.696	-0.160	0.216
-648.784	800.000	0.040	-0.111
-647.770	110.663	-0.255	-0.308
-646.755	-62.365	0.040	0.017
-645.741	40.929	0.253	-0.229
-644.726	-108.768	-0.365	0.079
-643.711	262.144	0.139	0.243
-642.697	-200.000	0.103	0.505
-641.682	24.096	-0.371	0.308
-640.668	268.714	0.086	-0.151
-639.653	-200.000	0.029	-0.247
-638.638	-56.832	-0.245	0.109
-637.624	-127.107	0.340	-0.050
-636.609	-200.000	-0.013	0.115
-635.595	44.541	0.087	-0.080
-634.580	-200.000	0.043	-0.209
-633.565	366.276	0.046	-0.093
-632.551	-200.000	0.009	-0.154
-631.536	800.000	-0.101	-0.341
-630.522	622.230	-0.116	0.293
-629.507	22.245	-0.150	-0.123
-628.492	98.940	-0.037	-0.043
-627.478	708.688	0.113	-0.300
-626.463	-26.220	0.188	0.111
-625.449	-200.000	-0.014	-0.203
-624.434	208.614	0.051	0.081
-623.419	-123.341	0.432	0.069
-622.405	-145.270	0.159	-0.014
-621.390	12.615	0.272	-0.211
-620.376	-60.914	0.179	-0.076
-619.361	133.372	0.081	-0.105
-618.346	395.248	-0.086	-0.179
-617.332	-5.964	-0.152	0.105
-616.317	800.000	0.046	-0.164
-615.303	800.000	-0.066	-0.232
-614.288	-6.752	0.189	-0.129
-613.273	-63.862	-0.070	-0.029
-612.259	145.647	-0.179	-0.241
-611.244	104.333	-0.151	-0.179
-610.230	96.253	0.108	-0.124
-609.215	-90.706	-0.278	-0.081
-608.201	-137.167	-0.245	0.028
-607.186	216.136	0.141	-0.225
-606.171	541.899	0.067	-0.159
-605.157	800.000	-0.079	-0.222
-604.142	-200.000	0.019	0.171
-603.128	-80.575	-0.207	-0.069
-602.113	460.811	-0.040	0.089
-601.098	-104.908	0.125	-0.029
-600.084	-67.086	-0.319	-0.126
-599.069	257.242	0.038	-0.065
-598.055	-200.000	0.004	-0.034
-597.040	-200.000	-0.031	0.163
-596.025	14.640	0.088	-0.069
-595.011	800.000	-0.067	0.256
-593.996	281.908	-0.146	0.262
-592.982	-200.000	0.041	0.220
-591.967	275.519	0.139	0.247
-590.952	15.362	-0.143	0.112
-589.938	-106.267	0.224	-0.050
-588.923	80.715	-0.125	0.135
-587.909	-200.000	0.067	0.328
-586.894	-136.908	0.204	0.024
-585.879	-72.879	0.379	-0.140
-584.865	401.723	-0.082	0.172
-583.850	-118.267	-0.264	-0.047
-582.836	-115.127	0.072	-0.014
-581.821	-200.000	0.014	-0.242
-580.806	-200.000	-0.031	-0.247
-579.792	-200.000	0.053	-0.262
-578.777	37.961	-0.117	-0.104
-577.763	482.599	-0.051	-0.117
-576.748	-99.246	-0.157	-0.040
-575.733	-200.000	0.041	-0.341
-574.719	-61.662	0.282	-0.119
-573.704	393.599	0.072	0.151
-572.690	-200.000	0.051	-0.234
-571.675	-42.066	-0.335	0.172
-570.661	800.000	-0.068	0.218
-569.646	800.000	0.020	0.063
-568.631	-156.700	0.045	-0.003
-567.617	133.942	-0.186	-0.241
-566.602	-60.523	-0.226	-0.096
-565.588	800.000	0.038	-0.141
-564.573	-158.981	-0.038	-0.002
-563.558	800.000	0.053	0.217
-562.544	233.271	-0.163	0.269
-561.529	370.058	-0.039	0.078
-560.515	312.476	0.106	0.199
-559.500	-200.000	-0.021	0.227
-558.485	51.709	-0.061	0.059
-557.471	-200.000	0.014	-0.293
-556.456	-200.000	0.022	-0.120
-555.442	-149.170	-0.170	0.014
-554.427	800.000	0.084	0.301
-553.412	-200.000	0.023	0.241
-552.398	-21.463	-0.093	-0.057
-551.383	-116.129	-0.211	0.039
-550.369	-13.509	-0.182	-0.118
-549.354	-168.871	-0.139	-0.005
-548.339	-200.000	0.063	0.337
-547.325	800.000	0.016	0.063
-546.310	-93.296	-0.248	0.069
-545.296	-200.000	0.031	0.158
-544.281	-23.988	-0.132	-0.079
-543.266	-200.000	-0.036	0.179
-542.252	8.549	-0.091	0.068
-541.237	-38.370	-0.090	-0.048
-540.223	-200.000	-0.011	0.314
-539.208	1.596	-0.188	0.135
-538.193	-75.897	0.119	0.042
-537.179	-200.000	0.365	0.002
-536.164	181.674	0.100	0.148
-535.150	94.922	-0.197	-0.225
-534.135	-135.577	0.358	0.043
-533.121	446.430	0.052	-0.114
-532.106	-200.000	-0.004	-0.054
-531.091	26.165	0.066	-0.055
-530.077	162.422	0.005	-0.007
-529.062	-200.000	0.065	-0.311
-528.048	-71.478	-0.302	-0.113
-527.033	-5.957	0.207	0.141
-526.018	623.818	0.053	0.133
-525.004	138.880	0.122	0.161
-523.989	-95.506	-0.028	-0.008
-522.975	-200.000	0.000	0.060
-521.960	-39.558	-0.074	0.039
-520.945	-103.593	0.221	-0.052
-519.931	-132.119	0.013	0.002
-518.916	-184.733	-0.180	-0.003
-517.902	-40.077	-0.128	0.067
-516.887	800.000	0.066	-0.184
-515.872	8.231	0.196	0.148
-514.858	-124.237	0.220	-0.034
-513.843	28.863	0.239	-0.203
-512.829	103.605	-0.281	0.330
-511.814	-36.306	-0.160	-0.086
-510.799	-200.000	-0.005	-0.079
-509.785	283.380	-0.074	-0.132
-508.770	370.257	0.131	-0.265
-507.756	-26.620	0.148	-0.087
-506.741	-67.112	-0.253	0.100
-505.726	-155.630	0.176	0.011
-504.712	-200.000	0.007	-0.096
-503.697	-102.470	0.484	-0.116
-502.683	19.596	-0.233	0.187
-501.668	800.000	-0.087	-0.250
-500.653	192.197	-0.051	-0.076
-499.639	-200.000	-0.051	0.249
-498.624	640.483	-0.054	-0.138
-497.610	800.000	-0.055	-0.154
-496.595	-67.421	-0.231	0.091
-495.581	-132.796	0.109	0.014
-494.566	25.033	-0.075	0.062
-493.551	789.323	0.092	-0.253
-492.537	-200.000	-0.011	0.149
-491.522	-86.877	-0.099	0.030
-490.508	-200.000	0.000	0.108
-489.493	-125.409	0.167	-0.025
-488.478	30.394	-0.038	0.033
-487.464	42.626	-0.089	0.081
-486.449	85.557	-0.198	0.217
-485.435	-200.000	0.031	0.229
-484.420	800.000	0.109	-0.410
-483.405	199.952	-0.095	-0.146
-482.391	-38.525	-0.039	0.021
-481.376	-200.000	-0.025	0.188
-480.362	-200.000	0.011	0.130
-479.347	-98.874	-0.172	-0.044
-478.332	800.000	0.041	-0.161
-477.318	38.109	0.089	-0.079
-476.303	198.460	0.172	-0.262
-475.289	349.902	0.040	0.079
-474.274	655.709	0.065	0.165
-473.259	-200.000	0.026	0.232
-472.245	-200.000	0.080	-0.453
-471.230	67.832	0.057	0.059
-470.216	679.112	-0.094	0.244
-469.201	-83.500	-0.140	0.045
-468.186	-200.000	-0.028	0.179
-467.172	52.361	-0.252	0.240
-466.157	13.326	-0.081	0.063
-465.143	800.000	0.105	0.336
-464.128	66.421	-0.227	0.231
-463.113	196.955	0.063	0.097
-462.099	-200.000	-0.003	0.046
-461.084	-200.000	0.026	-0.239
-460.070	-120.916	-0.263	-0.044
-459.055	800.000	0.066	-0.266
-458.040	-80.509	-0.027	-0.009
-457.026	108.832	-0.202	-0.240
-456.011	-74.891	-0.346	-0.124
-454.997	-200.000	0.003	-0.363
-453.982	130.797	-0.199	-0.255
-452.968	-13.989	0.243	0.157
-451.953	269.443	-0.089	0.155
-450.938	-200.000	-0.006	-0.484
-449.924	20.325	0.148	0.119
-448.909	-158.164	-0.334	0.019
-447.895	-90.157	-0.154	-0.045
-446.880	-76.605	-0.190	0.067
-445.865	63.596	-0.200	-0.201
-444.851	67.831	0.105	0.107
-443.836	113.898	0.184	0.223
-442.822	45.216	-0.156	0.143
-441.807	-200.000	0.080	0.378
-440.792	-120.966	-0.055	-0.009
-439.778	64.505	0.288	0.290
-438.763	-41.377	0.289	-0.148
-437.749	129.834	-0.040	-0.051
-436.734	504.232	-0.100	0.230
-435.719	800.000	0.052	-0.209
-434.705	534.648	0.156	0.369
-433.690	-96.147	0.181	0.048
-432.676	160.475	-0.141	-0.196
-431.661	-132.783	0.169	0.021
-430.646	-200.000	-0.029	-0.448
-429.632	800.000	0.021	0.084
-428.617	-193.780	-0.235	0.002
-427.603	-0.119	-0.194	-0.138
-426.588	800.000	-0.074	0.227
-425.573	241.153	0.119	-0.199
-424.559	-200.000	0.037	-0.163
-423.544	-30.859	-0.184	0.104
-422.530	800.000	-0.018	-0.068
-421.515	17.001	-0.073	0.058
-420.500	-115.450	0.242	-0.046
-419.486	-32.588	0.157	0.087
-418.471	-60.195	-0.211	0.090
-417.457	-200.000	-0.006	0.186
-416.442	-200.000	-0.017	0.131
-415.428	-200.000	-0.008	0.080
-414.413	119.683	-0.265	-0.327
-413.398	149.235	0.176	-0.238
-412.384	-115.358	-0.343	0.064
-411.369	-74.550	0.121	-0.044
-410.355	-127.583	-0.272	0.039
-409.340	-195.848	-0.342	-0.002
-408.325	-125.644	0.288	-0.043
-407.311	170.930	0.185	-0.264
-406.296	-68.788	-0.065	-0.025
-405.282	-200.000	0.013	-0.078
-404.267	-200.000	-0.058	-0.425
-403.252	90.841	-0.120	-0.134
-402.238	19.335	0.208	-0.167
-401.223	-166.314	0.059	0.002
-400.209	-47.878	-0.129	0.062
-399.194	-106.052	0.040	-0.009
-398.179	-129.614	-0.204	0.028
-397.165	467.126	-0.054	-0.119
-396.150	16.636	-0.217	-0.171
-395.136	573.167	-0.051	-0.124
-394.121	-94.661	0.161	-0.044
-393.106	-152.082	-0.393	0.028
-392.092	237.440	-0.176	0.291
-391.077	166.251	0.155	0.219
-390.063	-84.917	-0.186	0.058
-389.048	-200.000	-0.005	-0.027
-388.033	-42.605	0.121	-0.061
-387.019	800.000	0.040	-0.123
-386.004	-200.000	0.049	0.213
-384.990	522.239	-0.043	0.101
-383.975	14.007	0.291	-0.226
-382.960	-200.000	0.004	0.052
-381.946	-200.000	-0.016	-0.119
-380.931	-63.086	-0.058	-0.024
-379.917	359.526	0.120	0.240
-378.902	449.285	-0.247	-0.543
-377.888	-200.000	-0.021	0.191
-376.873	-64.190	0.359	-0.146
-375.858	-82.337	0.133	0.043
-374.844	-124.507	0.281	-0.043
-373.829	617.223	-0.044	0.110
-372.815	800.000	-0.046	-0.199
-371.800	-200.000	0.005	-0.062
-370.785	346.085	0.163	0.318
-369.771	174.933	-0.073	-0.105
-368.756	-200.000	-0.032	0.250
-367.742	7.121	0.258	0.192
-366.727	-27.615	0.158	-0.091
-365.712	-200.000	-0.057	-0.309
-364.698	314.780	-0.118	-0.221
-363.683	250.961	-0.156	-0.264
-362.669	-86.392	-0.273	0.083
-361.654	28.645	0.147	0.124
-360.639	651.750	0.054	-0.138
-359.625	-200.000	0.013	0.328
-358.610	47.078	0.305	-0.282
-357.596	211.112	-0.110	-0.172
-356.581	-200.000	-0.018	0.136
-355.566	-94.296	0.284	0.077
-354.552	48.591	-0.122	-0.113
-353.537	-135.943	-0.251	-0.029
-352.523	310.970	0.094	-0.174
-351.508	-95.784	0.410	-0.109
-350.493	-42.181	0.098	0.050
-349.479	-132.775	0.113	-0.014
-348.464	-14.371	0.247	0.158
-347.450	-200.000	-0.053	-0.380
-346.435	-136.805	-0.156	-0.018
-345.420	-104.412	0.179	-0.041
-344.406	-113.270	-0.325	0.063
-343.391	363.754	-0.050	-0.100
-342.377	148.009	-0.106	-0.142
-341.362	12.255	-0.116	-0.089
-340.348	-125.671	-0.081	0.012
-339.333	-200.000	0.017	-0.111
-338.318	159.668	0.072	-0.100
-337.304	-44.561	-0.197	0.098
-336.289	220.503	-0.175	0.279
-335.275	-30.195	0.042	0.024
-334.260	800.000	-0.036	0.149
-333.245	-93.097	-0.213	0.059
-332.231	-24.684	0.230	0.136
-331.216	-67.018	-0.059	-0.023
-330.202	800.000	-0.126	0.443
-329.187	-81.486	0.385	-0.126
-328.172	-200.000	0.016	0.253
-327.158	374.290	-0.111	-0.224
-326.143	-200.000	0.017	-0.106
-325.129	24.057	-0.153	-0.125
-324.114	308.786	0.184	0.341
-323.099	800.000	-0.015	0.050
-322.085	149.285	-0.063	-0.085
-321.070	-100.334	0.286	-0.070
-320.056	133.269	-0.108	-0.138
-319.041	-28.681	-0.415	-0.237
-318.026	231.941	0.058	0.095
-317.012	-100.801	0.498	0.122
-315.997	73.891	0.240	0.250
-314.983	-200.000	0.000	0.211
-313.968	76.379	0.228	0.240
-312.953	-200.000	-0.012	-0.246
-311.939	10.523	0.161	-0.122
-310.924	-4.492	0.038	0.026
-309.910	443.858	0.061	-0.132
-308.895	214.659	0.149	0.235
-307.880	-132.373	0.294	0.038
-306.866	-200.000	-0.034	0.187
-305.851	133.208	0.162	-0.208
-304.837	-200.000	-0.002	0.235
-303.822	-95.660	-0.238	0.063
-302.807	-49.457	-0.132	0.062
-301.793	800.000	0.035	0.109
-300.778	-47.958	0.332	-0.159
-299.764	146.862	-0.050	0.066
-298.749	153.104	0.127	-0.172
-297.735	352.712	0.118	0.233
-296.720	-68.046	0.151	0.058
-295.705	92.095	-0.116	0.129
-294.691	-200.000	-0.033	0.196
-293.676	27.110	-0.092	-0.077
-292.662	-127.083	0.161	-0.023
-291.647	-68.070	0.091	-0.035
-290.632	-93.194	-0.121	0.033
-289.618	-130.780	-0.244	0.032
-288.603	260.785	0.210	0.360
-287.589	86.111	0.022	-0.024
-286.574	61.175	0.212	0.209
-285.559	-62.030	-0.166	-0.069
-284.545	-130.879	0.078	0.010
-283.530	-88.479	0.156	-0.046
-282.516	-200.000	0.012	0.059
-281.501	-94.589	0.053	0.014
-280.486	-200.000	-0.031	-0.224
-279.472	350.020	0.127	0.249
-278.457	727.148	0.071	-0.187
-277.443	-55.396	0.272	-0.121
-276.428	56.951	0.268	0.259
-275.413	-200.000	-0.006	-0.404
-274.399	-200.000	0.003	-0.181
-273.384	24.584	0.158	-0.129
-272.370	218.468	-0.155	0.245
-271.355	800.000	0.042	-0.147
-270.340	-43.673	-0.193	-0.096
-269.326	800.000	0.034	-0.136
-268.311	-43.993	-0.086	-0.043
-267.297	66.973	-0.032	-0.032
-266.282	311.789	0.078	0.144
-265.267	75.990	0.120	-0.126
-264.253	435.837	-0.072	0.156
-263.238	-29.879	0.100	0.056
-262.224	800.000	-0.028	0.117
-261.209	-64.543	0.319	0.128
-260.195	223.911	0.054	-0.086
-259.180	-200.000	0.044	0.264
-258.165	141.212	0.077	0.100
-257.151	-76.060	-0.169	0.059
-256.136	800.000	-0.031	-0.098
-255.122	-139.020	-0.047	0.005
-254.107	-200.000	-0.025	-0.130
-253.092	0.923	-0.238	0.169
-252.078	52.179	0.115	-0.109
-251.063	22.783	-0.159	-0.129
-250.049	-149.554	-0.117	-0.009
-249.034	148.525	-0.290	0.388
-248.019	139.388	0.106	0.139
-247.005	0.367	-0.073	0.051
-245.990	166.371	0.131	-0.184
-244.976	-200.000	-0.006	0.059
-243.961	107.330	-0.180	0.212
-242.946	800.000	-0.059	-0.184
-241.932	-139.978	0.191	0.020
-240.917	649.168	-0.100	0.254
-239.903	-200.000	-0.014	0.252
-238.888	9.442	0.044	0.033
-237.873	-86.559	-0.112	0.034
-236.859	800.000	0.070	0.259
-235.844	552.376	0.187	-0.443
-234.830	-44.726	-0.272	-0.134
-233.815	-196.652	0.345	0.002
-232.800	-80.242	0.137	-0.045
-231.786	198.345	0.133	-0.202
-230.771	638.990	-0.069	-0.173
-229.757	-34.797	0.248	0.134
-228.742	51.836	0.074	-0.070
-227.727	-52.207	-0.067	-0.031
-226.713	33.030	0.235	-0.201
-225.698	-29.308	-0.177	0.100
-224.684	-200.000	-0.049	0.000
-223.669	359.930	-0.104	-0.206
-222.655	23.734	0.163	0.133
-221.640	-42.982	-0.237	-0.119
-220.625	800.000	-0.026	0.108
-219.611	-150.436	-0.500	-0.038
-218.596	29.362	0.410	-0.344
-217.582	800.000	-0.084	0.272
-216.567	65.943	-0.053	-0.053
-215.552	800.000	-0.096	0.378
-214.538	19.109	0.111	0.088
-213.523	-101.647	-0.232	-0.056
-212.509	82.937	0.099	-0.106
-211.494	270.778	0.056	-0.098
-210.479	-3.259	0.183	0.126
-209.465	115.332	-0.093	0.113
-208.450	9.581	0.242	-0.181
-207.436	-38.980	0.276	0.144
-206.421	-158.353	0.226	0.013
-205.406	-200.000	0.011	-0.239
-204.392	561.145	-0.180	-0.431
-203.377	14.550	0.101	-0.078
-202.363	-36.985	-0.340	-0.180
-201.348	800.000	0.037	-0.109
-200.333	-200.000	0.004	0.260
-199.319	-200.000	-0.052	-0.308
-198.304	77.082	-0.168	0.176
-197.290	594.488	0.049	0.120
-196.275	-200.000	0.043	-0.257
-195.260	-200.000	0.000	0.051
-194.246	-82.187	0.141	-0.045
-193.231	-86.694	0.069	-0.021
-192.217	-107.073	0.059	-0.013
-191.202	239.854	0.113	0.185
-190.187	-173.152	0.121	0.004
-189.173	603.351	0.082	0.200
-188.158	-83.071	0.118	-0.037
-187.144	-200.000	0.023	0.290
-186.129	800.000	-0.072	-0.287
-185.114	134.448	-0.073	0.094
-184.100	-103.208	-0.185	0.043
-183.085	41.701	-0.117	-0.105
-182.071	174.855	0.214	0.306
-181.056	128.813	-0.374	0.471
-180.042	-47.829	-0.227	-0.109
-179.027	800.000	-0.067	-0.194
-178.012	132.443	-0.124	0.157
-176.998	660.125	-0.082	0.208
-175.983	-71.687	-0.191	0.070
-174.969	-200.000	0.003	0.209
-173.954	4.633	0.082	0.060
-172.939	-33.527	0.457	0.249
-171.925	-37.035	0.150	-0.079
-170.910	212.155	-0.230	-0.358
-169.896	-200.000	-0.002	-0.061
-168.881	4.730	0.123	-0.089
-167.866	800.000	-0.037	-0.138
-166.852	314.069	0.123	0.228
-165.837	-115.441	-0.168	-0.031
-164.823	-1.237	0.343	0.239
-163.808	800.000	-0.042	0.117
-162.793	-40.878	0.053	0.027
-161.779	-200.000	0.355	0.001
-160.764	105.572	-0.166	0.193
-159.750	800.000	-0.083	0.287
-158.735	-9.519	0.129	-0.085
-157.720	-30.040	-0.259	-0.146
-156.706	-94.923	-0.298	0.080
-155.691	482.878	0.071	0.160
-154.677	184.231	-0.099	0.144
-153.662	800.000	0.057	0.233
-152.647	-160.108	-0.160	-0.009
-151.633	800.000	-0.074	-0.310
-150.618	800.000	-0.059	-0.171
-149.604	-57.917	-0.134	0.058
-148.589	-24.626	-0.169	-0.099
-147.574	-50.935	0.355	0.164
-146.560	75.185	0.192	0.200
-145.545	-119.975	0.320	-0.054
-144.531	-98.807	-0.086	-0.021
-143.516	254.861	-0.101	-0.170
-142.502	-200.000	-0.018	0.078
-141.487	-114.096	-0.294	-0.056
-140.472	800.000	-0.027	-0.115
-139.458	136.183	-0.065	-0.084
-138.443	72.268	-0.105	-0.108
-137.429	-200.000	0.018	0.158
-136.414	-200.000	0.040	-0.185
-135.399	124.559	-0.174	0.216
-134.385	189.262	0.027	-0.039
-133.370	800.000	0.071	0.196
-132.356	0.472	0.196	0.138
-131.341	800.000	0.148	0.505
-130.326	137.412	0.112	-0.145
-129.312	-51.495	0.165	0.076
-128.297	-200.000	0.036	0.253
-127.283	79.692	0.159	0.169
-126.268	316.583	-0.267	0.497
-125.253	0.408	0.194	-0.136
-124.239	30.228	-0.192	-0.162
-123.224	88.309	-0.078	-0.085
-122.210	53.192	-0.158	-0.149
-121.195	-200.000	0.107	-0.484
-120.180	-40.556	0.257	0.131
-119.166	315.300	-0.123	-0.228
-118.151	-200.000	0.038	0.300
-117.137	-200.000	0.001	0.144
-116.122	46.477	-0.169	0.154
-115.107	72.115	0.012	0.012
-114.093	366.324	0.127	0.253
-113.078	8.735	-0.092	-0.068
-112.064	-20.616	-0.183	-0.111
-111.049	-63.590	0.266	0.107
-110.034	-200.000	0.053	0.271
-109.020	-39.100	-0.131	-0.068
-108.005	-200.000	-0.035	-0.354
-106.991	-32.158	0.113	0.062
-105.976	-23.761	-0.473	-0.279
-104.962	183.051	0.066	0.096
-103.947	-121.896	0.007	0.001
-102.932	-15.019	0.189	0.119
-101.918	136.173	0.197	-0.253
-100.903	-200.000	-0.076	-0.366
-99.889	-74.751	0.373	0.132
-98.874	-200.000	0.009	-0.093
-97.859	73.110	-0.293	0.301
-96.845	-200.000	-0.089	-0.000
-95.830	-4.729	-0.229	-0.156
-94.816	-13.914	0.095	-0.060
-93.801	-200.000	0.069	-0.342
-92.786	-28.844	0.227	-0.128
-91.772	-151.814	-0.153	0.011
-90.757	178.709	0.285	-0.410
-89.743	174.764	-0.087	0.124
-88.728	-200.000	-0.017	0.118
-87.713	800.000	0.114	0.375
-86.699	-131.459	-0.238	0.031
-85.684	-200.000	-0.070	-0.439
-84.670	-125.915	0.183	0.027
-83.655	-114.846	0.195	-0.037
-82.640	-200.000	-0.038	0.174
-81.626	7.756	-0.298	0.220
-80.611	-95.582	0.278	-0.073
-79.597	94.567	-0.082	-0.092
-78.582	44.010	-0.080	-0.072
-77.567	438.289	0.089	0.191
-76.553	-33.601	-0.179	-0.097
-75.538	85.504	0.123	0.132
-74.524	71.208	0.242	0.247
-73.509	-59.490	-0.060	-0.025
-72.494	-27.051	0.396	-0.227
-71.480	-200.000	0.035	-0.217
-70.465	-100.396	0.187	0.046
-69.451	-17.063	0.143	0.089
-68.436	-51.751	0.176	-0.081
-67.422	-58.458	-0.177	-0.076
-66.407	447.005	0.018	-0.040
-65.392	-134.765	-0.237	0.028
-64.378	148.314	-0.275	0.365
-63.363	219.318	-0.187	0.294
-62.349	-200.000	0.037	0.243
-61.334	167.396	-0.831	-1.160
-60.319	68.994	0.293	0.296
-59.305	-200.000	-0.246	-1.072
-58.290	490.659	0.387	0.870
-57.276	248.089	0.720	1.196
-56.261	-200.000	97.333	587.366
-55.246	523.526	1407.463	3249.974
-54.232	155.531	2594.484	3509.662
-53.217	111.797	2168.443	2571.764
-52.203	43.169	1614.403	1447.499
-51.188	34.436	1345.718	1153.986
-50.173	31.230	1303.159	1098.617
-49.159	54.124	1351.316	1276.779
-48.144	55.678	1367.543	1301.352
-47.130	34.650	1326.206	1138.346
-46.115	31.128	1309.150	1102.890
-45.100	30.897	1304.174	1097.295
-44.086	30.899	1301.415	1094.938
-43.071	30.857	1299.295	1092.864
-42.057	30.890	1296.613	1090.760
-41.042	30.784	1295.378	1089.060
-40.027	30.802	1294.024	1087.978
-39.013	30.834	1292.372	1086.736
-37.998	30.806	1290.451	1084.911
-36.984	30.861	1288.907	1083.896
-35.969	30.894	1287.120	1082.540
-34.954	31.038	1285.393	1081.882
-33.940	30.924	1283.969	1079.974
-32.925	31.038	1282.851	1079.651
-31.911	30.995	1281.572	1078.285
-30.896	30.989	1279.896	1076.796
-29.881	31.058	1278.628	1076.087
-28.867	31.106	1277.211	1075.129
-27.852	31.024	1275.482	1073.156
-26.838	31.036	1274.228	1072.132
-25.823	31.013	1273.022	1070.940
-24.809	31.162	1271.384	1070.377
-23.794	31.030	1270.451	1068.789
-22.779	30.933	1269.511	1067.402
-21.765	31.112	1267.602	1066.777
-20.750	30.972	1266.371	1064.897
-19.736	30.894	1264.941	1063.212
-18.721	30.828	1263.787	1061.819
-17.706	30.828	1262.949	1061.074
-16.692	30.835	1261.595	1059.933
-15.677	30.972	1260.354	1059.631
-14.663	30.818	1259.483	1057.981
-13.648	30.874	1258.118	1057.108
-12.633	30.828	1257.186	1056.023
-11.619	30.897	1256.268	1055.603
-10.604	30.918	1255.522	1055.051
-9.590	30.858	1254.460	1053.779
-8.575	30.746	1253.788	1052.541
-7.560	30.827	1252.603	1051.960
-6.546	30.802	1251.978	1051.251
-5.531	30.817	1251.001	1050.472
-4.517	30.861	1250.133	1049.951
-3.502	30.935	1248.971	1049.349
-2.487	30.864	1248.060	1048.146
-1.473	30.875	1244.854	1045.472
-0.458	29.994	1230.632	1028.594
0.556	25.810	1214.297	996.042
1.571	22.576	1221.114	983.528
2.586	21.739	1235.970	990.679
3.600	21.198	1225.706	979.332
4.615	18.728	1158.351	912.320
5.629	14.562	1089.175	836.904
6.644	12.242	1071.548	811.825
7.659	12.117	1069.122	809.299
8.673	11.988	1068.105	807.821
9.688	12.044	1066.454	806.780
10.702	12.328	1064.611	806.707
11.717	15.104	1068.123	822.958
12.731	18.344	1072.629	842.321
13.746	18.851	1071.610	843.937
14.761	17.819	1069.931	837.479
15.775	16.681	1068.098	830.387
16.790	15.596	1066.084	823.438
17.804	14.864	1064.330	818.426
18.819	14.401	1063.018	815.080
19.834	14.178	1061.751	812.949
20.848	13.782	1061.375	810.651
21.863	13.746	1060.348	809.623
22.877	13.484	1059.604	807.703
23.892	13.493	1058.791	807.054
24.907	13.475	1058.028	806.317
25.921	13.646	1056.692	806.059
26.936	13.627	1055.530	805.006
27.950	13.666	1054.150	804.075
28.965	13.769	1052.575	803.300
29.980	13.797	1051.353	802.433
30.994	13.680	1050.459	801.111
32.009	13.685	1049.488	800.328
33.023	13.776	1048.233	799.737
34.038	13.794	1047.293	799.035
35.053	13.698	1046.368	797.795
36.067	13.650	1045.596	796.905
37.082	13.747	1044.702	796.622
38.096	13.739	1043.392	795.512
39.111	13.788	1042.703	795.150
40.126	13.699	1041.927	794.063
41.140	13.482	1040.661	791.990
42.155	13.531	1039.450	791.233
43.169	13.359	1038.144	789.350
44.184	13.326	1037.080	788.312
45.199	13.588	1035.742	788.474
46.213	13.505	1035.063	787.491
47.228	13.579	1034.128	787.062
48.242	13.619	1033.214	786.486
49.257	13.526	1031.789	784.891
50.271	13.697	1030.987	785.019
51.286	13.661	1030.466	784.386
52.301	13.707	1029.151	783.531
53.315	13.632	1027.923	782.176
54.330	13.523	1027.538	781.298
55.344	13.573	1026.419	780.615
56.359	13.494	1026.033	779.880
57.374	13.378	1024.866	778.378
58.388	13.371	1023.858	777.511
59.403	13.541	1023.031	777.613
60.417	13.434	1022.302	776.485
61.432	13.567	1021.469	776.408
62.447	13.375	1020.889	775.001
63.461	13.414	1020.042	774.468
64.476	13.363	1019.091	773.440
65.490	13.434	1017.960	772.847
66.505	13.448	1017.529	772.517
67.520	13.388	1016.876	771.672
68.534	13.613	1015.976	771.970
69.549	13.455	1015.408	770.735
70.563	13.497	1014.342	770.052
71.578	13.474	1013.307	769.089
72.593	13.360	1012.984	768.248
73.607	13.366	1012.042	767.493
74.622	13.345	1011.701	767.068
75.636	13.331	1011.067	766.457
76.651	13.277	1010.541	765.741
77.666	13.388	1010.143	765.884
78.680	13.503	1008.822	765.347
79.695	13.395	1008.556	764.577
80.709	13.406	1007.704	763.916
81.724	13.597	1006.854	764.085
82.739	13.551	1005.858	763.048
83.753	13.545	1005.980	763.044
84.768	13.724	1005.049	763.098
85.782	13.803	1003.392	762.132
86.797	13.689	1002.485	760.854
87.812	13.610	1002.007	760.062
88.826	13.673	1001.077	759.577
89.841	13.516	1000.380	758.263
90.855	13.619	999.161	757.744
91.870	13.835	998.371	758.064
92.884	13.774	997.358	756.947
93.899	13.797	996.657	756.455
94.914	13.818	995.797	755.831
95.928	13.688	995.430	754.890
96.943	13.601	994.769	753.930
97.957	13.740	993.273	753.361
98.972	13.739	992.574	752.758
99.987	13.658	991.785	751.728
101.001	13.609	991.087	750.907
102.016	13.704	989.905	750.378
103.030	13.710	989.733	750.206
104.045	13.647	988.866	749.197
105.060	13.607	988.172	748.428
106.074	13.594	986.672	747.165
107.089	13.496	986.027	746.166
108.103	13.517	985.415	745.736
109.118	13.461	983.633	744.067
110.133	13.531	983.249	744.028
111.147	13.557	982.266	743.333
112.162	13.609	981.390	742.837
113.176	13.601	980.637	742.166
114.191	13.637	979.778	741.611
115.206	13.732	979.150	741.495
116.220	13.609	978.391	740.307
117.235	13.640	977.078	739.383
118.249	13.627	976.451	738.788
119.264	13.646	975.494	738.080
120.279	13.564	975.322	737.523
121.293	13.705	973.889	737.000
122.308	13.607	973.266	736.029
123.322	13.661	971.988	735.235
124.337	13.531	971.418	734.162
125.352	13.506	970.243	733.099
126.366	13.558	969.102	732.404
127.381	13.452	968.240	731.218
128.395	13.583	967.074	730.848
129.410	13.606	966.362	730.350
130.424	13.631	965.499	729.744
131.439	13.675	964.546	729.153
132.454	13.659	964.028	728.624
133.468	13.651	963.417	728.063
134.483	13.651	962.817	727.546
135.497	13.691	961.125	726.378
136.512	13.651	960.707	725.824
137.527	13.730	959.753	725.384
138.541	13.634	959.243	724.516
139.556	13.743	958.209	724.146
140.570	13.749	957.627	723.667
141.585	13.871	957.045	723.697
142.600	13.800	955.776	722.361
143.614	13.927	954.845	722.145
144.629	13.881	954.275	721.453
145.643	13.863	953.077	720.406
146.658	13.890	952.028	719.665
147.673	13.667	951.753	718.425
148.687	13.668	951.202	717.951
149.702	13.751	950.170	717.466
150.716	13.634	949.578	716.452
151.731	13.746	948.497	716.057
152.746	13.687	947.916	715.299
153.760	13.685	947.704	715.070
154.775	13.849	946.554	714.843
155.789	13.886	946.088	714.590
156.804	13.890	945.209	713.877
157.819	14.060	944.312	713.866
158.833	13.940	944.154	713.172
159.848	14.064	943.067	712.815
160.862	14.056	942.359	712.184
161.877	13.897	941.210	710.572
162.892	13.827	940.138	709.400
163.906	13.862	939.072	708.683
164.921	13.727	938.767	707.814
165.935	13.844	937.549	707.333
166.950	13.931	936.846	707.109
167.964	13.845	936.289	706.260
168.979	13.835	935.204	705.338
169.994	13.815	934.623	704.753
171.008	13.955	933.900	704.737
172.023	14.029	932.896	704.232
173.037	13.881	932.675	703.374
174.052	13.994	931.967	703.259
175.067	13.948	931.518	702.661
176.081	13.929	930.517	701.765
177.096	14.026	930.012	701.733
178.110	14.001	929.515	701.188
179.125	13.975	928.634	700.353
180.140	13.858	928.453	699.663
181.154	14.036	927.538	699.657
182.169	14.189	926.802	699.687
183.183	14.179	926.331	699.226
184.198	14.192	925.519	698.608
185.213	14.201	925.055	698.230
186.227	14.228	924.255	697.680
187.242	14.358	923.494	697.588
188.256	14.230	923.113	696.703
189.271	14.230	922.505	696.182
190.286	14.081	921.787	694.956
191.300	13.844	920.974	693.291
192.315	13.972	920.402	693.333
193.329	13.938	919.823	692.694
194.344	14.102	919.009	692.701
195.359	14.044	918.614	692.103
196.373	14.352	917.975	692.840
197.388	14.314	917.263	692.083
198.402	14.289	917.164	691.843
199.417	14.416	916.440	691.764
200.432	14.304	916.035	690.934
201.446	14.466	915.741	691.320
202.461	14.596	914.682	691.000
203.475	14.492	914.117	690.080
204.490	14.390	913.204	688.907
205.504	14.321	913.020	688.423
206.519	14.366	911.808	687.637
207.534	14.415	911.044	687.202
208.548	14.442	910.412	686.775
209.563	14.554	909.728	686.658
210.577	14.503	909.235	686.016
211.592	14.593	908.514	685.780
212.607	14.666	907.495	685.253
213.621	14.541	906.662	684.050
214.636	14.651	906.210	684.098
215.650	14.597	905.990	683.651
216.665	14.690	904.663	682.968
217.680	14.762	903.809	682.559
218.694	14.695	903.634	682.092
219.709	14.494	903.518	681.121
220.723	14.605	902.836	681.002
221.738	14.661	901.702	680.315
222.753	14.598	901.406	679.775
223.767	14.669	900.774	679.525
224.782	14.827	899.924	679.465
225.796	14.987	899.045	679.393
226.811	14.828	898.524	678.295
227.826	14.794	897.866	677.599
228.840	14.762	897.142	676.865
229.855	14.790	896.156	676.174
230.869	14.632	895.992	675.352
231.884	14.824	894.888	675.236
232.899	14.655	894.275	674.029
233.913	14.716	893.880	673.916
234.928	14.655	893.008	672.956
235.942	14.639	892.672	672.576
236.957	14.825	891.377	672.292
237.972	14.753	891.011	671.665
238.986	14.657	890.746	671.022
240.001	14.686	890.151	670.628
241.015	14.768	889.751	670.599
242.030	14.871	888.681	670.146
243.045	14.859	888.322	669.767
244.059	14.893	887.788	669.440
245.074	14.956	887.019	669.052
246.088	14.999	886.459	668.744
247.103	14.987	885.941	668.246
248.117	15.002	885.663	668.038
249.132	15.106	884.689	667.658
250.147	15.218	884.212	667.686
251.161	14.999	884.314	666.833
252.176	15.178	883.022	666.512
253.190	15.285	882.142	666.214
254.205	15.334	881.777	666.074
255.220	15.333	880.873	665.326
256.234	15.318	880.603	665.003
257.249	15.307	880.093	664.515
258.263	15.109	879.638	663.328
259.278	15.420	878.107	663.345
260.293	15.371	877.842	662.893
261.307	15.474	877.296	662.828
262.322	15.481	876.599	662.271
263.336	15.507	875.489	661.479
264.351	15.528	875.072	661.187
265.366	15.518	874.400	660.582
266.380	15.484	873.845	659.971
267.395	15.584	873.067	659.717
268.409	15.582	872.133	658.944
269.424	15.569	871.055	658.021
270.439	15.469	870.898	657.452
271.453	15.550	870.332	657.283
272.468	15.561	869.902	656.945
273.482	15.459	869.306	656.035
274.497	15.531	868.874	655.934
275.512	15.465	868.495	655.334
276.526	15.521	867.776	654.951
277.541	15.525	867.349	654.584
278.555	15.677	866.413	654.411
279.570	15.675	866.000	654.035
280.585	15.735	865.249	653.642
281.599	15.736	864.202	652.800
282.614	15.682	863.619	652.092
283.628	15.653	863.036	651.482
284.643	15.628	862.592	650.989
285.657	15.600	862.119	650.468
286.672	15.718	861.469	650.375
287.687	15.686	860.639	649.569
288.701	15.809	860.063	649.551
289.716	15.713	859.622	648.792
290.730	15.690	859.229	648.346
291.745	15.830	858.441	648.235
292.760	15.697	858.457	647.677
293.774	15.834	857.588	647.491
294.789	15.849	856.802	646.898
295.803	15.878	855.822	646.213
296.818	15.968	855.465	646.232
297.833	15.963	854.761	645.622
298.847	15.890	853.986	644.701
299.862	15.904	853.599	644.406
300.876	16.060	852.904	644.418
301.891	16.032	852.277	643.782
302.906	16.080	851.759	643.515
303.920	16.082	851.449	643.234
304.935	16.047	851.109	642.786
305.949	16.190	850.028	642.458
306.964	16.202	849.340	641.925
307.979	16.165	848.671	641.222
308.993	16.259	848.224	641.186
310.008	16.201	848.036	640.766
311.022	16.079	847.510	639.851
312.037	16.196	846.468	639.449
313.052	16.172	845.739	638.752
314.066	16.191	845.385	638.502
315.081	15.995	844.860	637.306
316.095	15.914	844.504	636.676
317.110	15.984	843.847	636.386
318.125	16.069	843.407	636.321
319.139	16.074	842.912	635.911
320.154	16.124	842.413	635.666
321.168	16.363	841.594	635.889
322.183	16.197	841.370	635.039
323.197	16.190	840.913	634.614
324.212	16.265	840.098	634.222
325.227	16.325	839.365	633.838
326.241	16.264	838.941	633.233
327.256	16.234	838.548	632.768
328.270	16.239	837.729	632.115
329.285	16.255	837.399	631.867
330.300	16.140	836.765	630.904
331.314	16.259	836.387	631.009
332.329	16.334	836.134	631.041
333.343	16.395	835.525	630.754
334.358	16.367	835.233	630.373
335.373	16.361	834.595	629.813
336.387	16.413	834.341	629.760
337.402	16.436	834.065	629.582
338.416	16.528	833.599	629.515
339.431	16.619	833.044	629.379
340.446	16.683	832.334	629.026
341.460	16.634	832.496	628.910
342.475	16.588	832.230	628.483
343.489	16.614	831.706	628.129
344.504	16.670	831.005	627.751
345.519	16.727	830.589	627.592
346.533	16.773	829.983	627.248
347.548	16.591	829.584	626.219
348.562	16.704	828.908	626.071
349.577	16.539	828.485	625.086
350.592	16.630	827.686	624.764
351.606	16.628	827.238	624.363
352.621	16.669	826.328	623.772
353.635	16.694	825.867	623.460
354.650	16.589	825.211	622.525
355.665	16.712	824.461	622.355
356.679	16.675	824.003	621.819
357.694	16.789	823.348	621.688
358.708	16.771	822.925	621.246
359.723	16.812	822.232	620.819
360.738	16.856	821.538	620.401
361.752	16.867	820.915	619.917
362.767	16.833	820.569	619.477
363.781	16.922	820.522	619.710
364.796	17.111	819.773	619.780
365.810	17.005	819.085	618.820
366.825	17.155	819.045	619.281
367.840	16.987	818.642	618.308
368.854	17.091	817.373	617.676
369.869	17.091	817.524	617.734
370.883	16.957	817.269	616.998
371.898	17.045	816.862	616.959
372.913	17.215	816.136	616.973
373.927	17.227	815.822	616.726
374.942	17.253	815.076	616.199
375.956	17.104	815.052	615.586
376.971	17.246	814.296	615.474
377.986	17.277	814.138	615.413
379.000	17.284	813.817	615.140
380.015	17.359	813.042	614.772
381.029	17.336	812.393	614.145
382.044	17.296	811.887	613.562
383.059	17.325	811.468	613.296
384.073	17.307	811.018	612.838
385.088	17.163	810.394	611.792
386.102	17.336	809.499	611.684
387.117	17.392	809.270	611.658
388.132	17.275	808.672	610.732
389.146	17.270	807.742	609.961
390.161	17.367	807.718	610.235
391.175	17.498	806.755	609.924
392.190	17.363	806.575	609.248
393.205	17.357	806.146	608.849
394.219	17.430	805.645	608.681
395.234	17.214	805.370	607.643
396.248	17.389	804.777	607.768
397.263	17.285	804.561	607.180
398.278	17.396	804.285	607.315
399.292	17.287	803.549	606.318
400.307	17.370	803.397	606.445
401.321	17.416	802.712	606.035
402.336	17.439	802.323	605.773
403.350	17.420	802.031	605.428
404.365	17.438	801.659	605.159
405.380	17.433	801.372	604.871
406.394	17.629	800.662	604.977
407.409	17.613	800.238	604.546
408.423	17.708	799.738	604.455
409.438	17.775	799.226	604.251
410.453	17.730	798.823	603.733
411.467	17.694	798.717	603.472
412.482	17.758	798.594	603.553
413.496	17.757	798.177	603.180
414.511	17.890	797.515	603.096
415.526	17.648	797.380	602.085
416.540	17.826	796.465	601.969
417.555	17.850	795.823	601.517
418.569	17.885	795.299	601.188
419.584	17.966	794.973	601.176
420.599	17.727	795.022	600.317
421.613	108.774	1289.044	1461.673
422.628	93.485	1361.023	1461.769
