DTS Sentinel unit serial number:	SN413079Multiplexer serial number:	ORYXHardware model number:	OX4-SRSoftware version number:	ORYX F/W v4.00 Oryx Data Collector v3.7.2.0data status	okinstallation	princeton_trtdifferential loss correction	single-endedforward channel	channel 1reverse channel	N/Adate	2019/09/12time	06:16:11forward acquisition time	60.00reverse acquisition time	0.00gamma	496.2192k internal	0.2320k external	0.2320temperature offset calibration	1.0048default loss term (dB/km)	0.3790temperature slope calibration	1.0000multiplexer offset coefficient	1.0000multiplexer slope coefficient	1.0000fibre end	0.00T internal ref (°C)	32.12T ext. ref 1 (°C)	1.57T ext. ref 2 (°C)	27.43length (m)	temperature (°C)	Stokes	anti-Stokes-747.200	800.000	0.054	-0.190
-746.185	-118.391	-0.319	-0.057
-745.171	-200.000	-0.001	-0.150
-744.156	-18.401	-0.189	0.119
-743.142	-78.815	-0.272	-0.094
-742.127	95.750	0.067	0.077
-741.112	73.276	0.144	-0.152
-740.098	-200.000	0.025	0.310
-739.083	20.361	0.152	-0.124
-738.069	44.762	-0.187	0.174
-737.054	-58.863	0.427	-0.187
-736.039	-58.202	-0.429	0.189
-735.025	-7.185	0.589	0.404
-734.010	-46.342	-0.308	-0.153
-732.996	413.736	0.140	-0.301
-731.981	-200.000	0.008	0.129
-730.966	-200.000	0.024	0.165
-729.952	342.411	0.104	0.206
-728.937	285.691	0.106	-0.193
-727.923	212.947	-0.209	-0.334
-726.908	-119.857	-0.259	0.045
-725.894	501.380	0.146	-0.341
-724.879	88.403	-0.157	-0.176
-723.864	-200.000	-0.015	-0.117
-722.850	140.269	0.174	0.232
-721.835	-38.699	-0.152	0.081
-720.821	33.064	-0.152	-0.133
-719.806	-131.864	-0.106	-0.014
-718.791	-28.123	0.223	-0.130
-717.777	-47.310	-0.419	0.206
-716.762	141.292	-0.225	-0.301
-715.748	800.000	-0.037	-0.147
-714.733	33.297	0.050	-0.043
-713.718	-45.997	0.217	0.108
-712.704	-143.908	-0.288	0.027
-711.689	-200.000	-0.056	-0.259
-710.675	70.770	-0.111	-0.116
-709.660	122.719	0.065	-0.082
-708.645	800.000	0.063	0.268
-707.631	-200.000	-0.027	0.193
-706.616	517.547	-0.066	-0.156
-705.602	-23.894	-0.357	0.216
-704.587	629.174	0.151	0.385
-703.572	-3.441	-0.212	-0.149
-702.558	-167.645	-0.176	0.007
-701.543	24.036	0.195	-0.162
-700.529	800.000	-0.009	-0.036
-699.514	-55.074	-0.244	-0.111
-698.499	-76.697	0.155	0.055
-697.485	-61.166	0.075	-0.032
-696.470	29.500	0.224	-0.193
-695.456	800.000	0.055	-0.226
-694.441	-17.526	0.073	-0.046
-693.426	-200.000	-0.013	0.153
-692.412	-200.000	0.017	-0.255
-691.397	-200.000	-0.008	-0.252
-690.383	-91.336	0.257	0.074
-689.368	800.000	-0.107	-0.347
-688.354	375.799	0.152	0.312
-687.339	172.057	-0.093	0.135
-686.324	-56.436	-0.172	-0.077
-685.310	166.381	-0.083	-0.118
-684.295	800.000	-0.027	0.110
-683.281	-200.000	-0.010	-0.232
-682.266	65.545	-0.327	-0.334
-681.251	-200.000	0.074	0.377
-680.237	-200.000	-0.010	0.097
-679.222	471.373	-0.087	0.197
-678.208	211.966	-0.118	0.188
-677.193	252.277	-0.219	-0.377
-676.178	-200.000	-0.035	-0.241
-675.164	491.917	0.078	-0.179
-674.149	392.536	-0.154	0.324
-673.135	82.223	-0.279	0.305
-672.120	323.495	-0.094	0.180
-671.105	-200.000	0.003	-0.312
-670.091	-200.000	-0.020	0.159
-669.076	-13.140	-0.124	-0.081
-668.062	-200.000	-0.016	-0.101
-667.047	86.805	-0.153	-0.171
-666.032	-146.232	0.212	-0.019
-665.018	-59.415	-0.268	-0.116
-664.003	-10.311	-0.156	-0.105
-662.989	800.000	-0.060	0.257
-661.974	131.951	0.198	0.256
-660.959	169.275	-0.170	0.245
-659.945	-200.000	0.016	0.284
-658.930	-200.000	0.028	0.179
-657.916	-200.000	-0.064	0.307
-656.901	77.929	0.298	0.320
-655.886	-121.636	0.384	0.064
-654.872	-33.569	-0.195	-0.109
-653.857	-200.000	0.034	0.184
-652.843	-200.000	0.002	-0.267
-651.828	-200.000	-0.002	0.050
-650.814	-117.962	-0.128	0.023
-649.799	644.292	0.039	0.101
-648.784	13.950	-0.085	0.067
-647.770	-118.837	-0.125	0.022
-646.755	-183.724	0.208	0.004
-645.741	-200.000	0.025	0.122
-644.726	50.122	0.157	0.149
-643.711	800.000	0.062	0.182
-642.697	-87.565	-0.323	-0.098
-641.682	-200.000	-0.029	-0.324
-640.668	800.000	-0.073	0.244
-639.653	-200.000	0.002	0.160
-638.638	1.416	-0.135	0.098
-637.624	227.787	0.078	0.128
-636.609	-29.253	0.113	0.065
-635.595	643.782	-0.021	0.054
-634.580	-178.288	0.107	0.003
-633.565	-200.000	-0.000	0.052
-632.551	-67.607	0.155	0.061
-631.536	-200.000	0.036	-0.317
-630.522	104.968	0.249	-0.295
-629.507	438.113	-0.148	-0.324
-628.492	83.964	-0.333	-0.367
-627.478	-63.068	0.216	-0.090
-626.463	-77.425	0.248	-0.087
-625.449	-150.720	-0.538	-0.041
-624.434	-200.000	0.040	-0.393
-623.419	116.475	-0.151	0.186
-622.405	-10.305	0.204	-0.136
-621.390	168.129	0.156	0.223
-620.376	-200.000	0.024	0.439
-619.361	800.000	-0.090	-0.263
-618.346	800.000	-0.168	-0.693
-617.332	800.000	-0.041	-0.125
-616.317	149.690	0.208	0.283
-615.303	-200.000	0.000	0.265
-614.288	-165.229	0.113	-0.005
-613.273	-57.587	0.264	0.117
-612.259	78.076	-0.121	-0.130
-611.244	-70.886	-0.180	-0.068
-610.230	-128.503	-0.071	0.010
-609.215	800.000	-0.016	-0.053
-608.201	-52.945	0.272	0.126
-607.186	800.000	0.070	0.247
-606.171	-79.875	0.173	-0.058
-605.157	44.339	-0.107	-0.098
-604.142	-200.000	-0.033	-0.161
-603.128	-200.000	0.036	-0.209
-602.113	33.735	0.168	-0.147
-601.098	140.560	0.153	0.203
-600.084	-83.627	0.279	0.090
-599.069	-200.000	0.040	-0.353
-598.055	-77.781	-0.449	-0.156
-597.040	150.333	0.056	-0.077
-596.025	-61.498	0.098	-0.041
-595.011	-186.674	0.329	-0.005
-593.996	800.000	-0.070	0.252
-592.982	-164.184	0.364	0.017
-591.967	-79.900	-0.186	0.063
-590.952	-85.909	-0.059	0.019
-589.938	-200.000	-0.032	-0.233
-588.923	-1.365	0.244	-0.173
-587.909	-200.000	0.011	-0.174
-586.894	-4.267	0.118	-0.082
-585.879	421.908	-0.016	0.034
-584.865	-200.000	0.002	-0.328
-583.850	23.437	-0.235	-0.195
-582.836	319.660	-0.178	0.340
-581.821	699.914	-0.079	0.209
-580.806	270.019	0.215	-0.380
-579.792	-7.790	0.281	0.191
-578.777	206.828	0.125	0.195
-577.763	-21.743	-0.126	-0.077
-576.748	29.706	0.241	0.206
-575.733	24.396	0.213	0.177
-574.719	800.000	0.072	0.233
-573.704	98.857	-0.174	0.202
-572.690	224.832	0.086	0.139
-571.675	-31.810	-0.329	-0.185
-570.661	-169.360	-0.123	0.005
-569.646	-73.022	-0.160	-0.059
-568.631	-82.766	-0.203	-0.066
-567.617	146.352	0.273	0.369
-566.602	800.000	-0.083	0.256
-565.588	-200.000	-0.011	0.403
-564.573	210.948	-0.116	-0.183
-563.558	-87.803	-0.164	-0.050
-562.544	566.306	-0.187	-0.457
-561.529	-13.192	-0.148	0.096
-560.515	-46.840	0.330	-0.162
-559.500	-32.726	0.213	-0.119
-558.485	139.516	0.079	0.105
-557.471	800.000	-0.025	0.109
-556.456	141.092	0.306	-0.407
-555.442	-71.969	-0.147	-0.055
-554.427	31.631	0.127	0.110
-553.412	543.492	-0.105	-0.252
-552.398	-105.288	-0.264	-0.060
-551.383	11.117	-0.178	-0.136
-550.369	-200.000	-0.013	-0.516
-549.354	-39.326	0.234	-0.123
-548.339	-39.619	0.215	-0.113
-547.325	-1.717	-0.143	-0.101
-546.310	-200.000	-0.013	0.079
-545.296	90.850	-0.222	-0.250
-544.281	-90.739	-0.196	0.057
-543.266	34.175	0.287	0.251
-542.252	-64.804	0.307	-0.125
-541.237	-142.038	-0.248	0.025
-540.223	-200.000	-0.046	-0.379
-539.208	79.029	-0.391	-0.421
-538.193	-97.294	-0.155	-0.041
-537.179	-127.095	-0.133	0.020
-536.164	-200.000	-0.049	-0.410
-535.150	800.000	0.025	0.074
-534.135	-109.826	-0.156	-0.033
-533.121	-114.141	-0.072	0.014
-532.106	-92.944	-0.087	0.024
-531.091	230.035	-0.143	0.234
-530.077	142.430	-0.202	0.269
-529.062	-113.326	0.112	-0.022
-528.048	46.621	-0.114	0.106
-527.033	-200.000	-0.005	-0.055
-526.018	38.475	-0.221	0.197
-525.004	9.708	-0.043	0.033
-523.989	-154.638	-0.128	-0.009
-522.975	-200.000	0.010	0.057
-521.960	-200.000	0.030	0.170
-520.945	-32.644	0.149	0.083
-519.931	212.494	0.117	-0.185
-518.916	-200.000	0.029	-0.278
-517.902	358.648	-0.097	-0.194
-516.887	176.901	-0.044	-0.064
-515.872	61.820	-0.266	-0.265
-514.858	145.277	-0.226	-0.303
-513.843	32.478	-0.205	0.177
-512.829	307.359	0.102	0.190
-511.814	47.086	0.136	0.127
-510.799	800.000	-0.010	0.036
-509.785	684.472	-0.121	0.317
-508.770	-25.789	-0.126	-0.074
-507.756	-43.444	0.326	-0.165
-506.741	-138.614	0.223	-0.024
-505.726	800.000	0.077	-0.325
-504.712	-19.460	0.097	-0.060
-503.697	-30.847	-0.167	0.094
-502.683	268.921	0.098	0.173
-501.668	-48.276	-0.089	0.043
-500.653	163.354	0.147	-0.207
-499.639	25.267	0.094	0.078
-498.624	-35.586	-0.315	-0.171
-497.610	-115.424	-0.075	-0.014
-496.595	390.178	0.182	0.378
-495.581	-77.012	-0.149	-0.052
-494.566	800.000	-0.039	-0.155
-493.551	-200.000	0.006	-0.097
-492.537	800.000	0.054	-0.179
-491.522	185.528	0.163	-0.242
-490.508	-151.571	-0.329	0.024
-489.493	-41.229	0.256	0.132
-488.478	-132.429	-0.483	-0.062
-487.464	-127.780	0.421	0.061
-486.449	521.566	-0.061	-0.142
-485.435	-104.667	0.052	-0.012
-484.420	-200.000	-0.040	0.204
-483.405	156.268	-0.207	0.286
-482.391	-72.253	-0.142	0.053
-481.376	-56.057	-0.247	0.110
-480.362	-200.000	0.003	0.036
-479.347	83.878	-0.249	0.272
-478.332	-137.602	0.266	-0.030
-477.318	-200.000	-0.074	-0.500
-476.303	283.835	-0.126	0.226
-475.289	321.252	0.068	-0.130
-474.274	-200.000	-0.019	0.345
-473.259	526.601	-0.157	-0.370
-472.245	126.133	-0.163	-0.207
-471.230	-38.503	0.222	0.117
-470.216	232.129	0.106	0.174
-469.201	-117.628	0.191	-0.035
-468.186	211.378	-0.115	-0.180
-467.172	-4.819	0.141	0.097
-466.157	-18.333	0.028	0.018
-465.143	-180.370	-0.132	0.003
-464.128	-65.815	0.079	0.032
-463.113	331.715	0.210	0.405
-462.099	-150.447	0.176	0.014
-461.084	-91.379	-0.374	-0.107
-460.070	444.713	0.161	-0.353
-459.055	160.306	-0.100	-0.139
-458.040	-200.000	-0.043	-0.258
-457.026	800.000	0.095	-0.333
-456.011	133.201	0.211	0.273
-454.997	-200.000	0.069	0.346
-453.982	102.715	0.054	0.064
-452.968	-200.000	-0.074	-0.389
-451.953	-200.000	-0.058	0.285
-450.938	118.273	0.056	0.069
-449.924	96.609	0.169	-0.194
-448.909	800.000	-0.093	-0.307
-447.895	-200.000	0.042	0.240
-446.880	13.096	-0.027	0.021
-445.865	-52.122	0.019	-0.009
-444.851	-4.528	0.126	0.087
-443.836	800.000	-0.024	-0.099
-442.822	-200.000	-0.044	0.304
-441.807	648.877	-0.084	-0.215
-440.792	-39.185	0.019	0.010
-439.778	-200.000	-0.002	-0.138
-438.763	-200.000	-0.036	0.247
-437.749	800.000	-0.081	-0.255
-436.734	297.576	0.090	-0.165
-435.719	206.731	0.133	0.207
-434.705	-39.615	0.130	-0.068
-433.690	-106.942	0.142	-0.031
-432.676	-31.679	0.098	-0.055
-431.661	800.000	0.106	-0.384
-430.646	113.092	-0.324	-0.393
-429.632	213.400	-0.138	0.218
-428.617	-52.091	0.108	-0.050
-427.603	-85.195	0.330	-0.103
-426.588	7.305	0.202	-0.151
-425.573	-10.215	-0.161	0.107
-424.559	800.000	-0.110	0.390
-423.544	-105.220	-0.309	0.070
-422.530	-200.000	0.008	0.255
-421.515	-4.451	0.120	-0.083
-420.500	-53.448	-0.393	-0.180
-419.486	-200.000	-0.021	-0.346
-418.471	-200.000	0.011	0.201
-417.457	-24.869	0.079	-0.047
-416.442	350.245	-0.052	0.102
-415.428	-200.000	-0.075	0.355
-414.413	75.888	0.040	0.042
-413.398	521.796	0.153	0.358
-412.384	-12.632	-0.148	-0.096
-411.369	-91.042	-0.216	0.062
-410.355	-12.269	-0.025	0.016
-409.340	75.046	-0.281	0.296
-408.325	221.171	-0.119	0.191
-407.311	144.797	-0.157	-0.209
-406.296	-136.341	-0.313	-0.036
-405.282	382.165	-0.145	-0.298
-404.267	800.000	0.053	0.208
-403.252	-200.000	-0.003	-0.019
-402.238	-200.000	0.040	0.248
-401.223	-82.233	0.081	0.026
-400.209	-102.865	0.278	-0.066
-399.194	43.134	0.244	-0.222
-398.179	18.425	0.264	0.210
-397.165	299.944	0.088	-0.162
-396.150	-180.842	0.069	-0.001
-395.136	-49.327	-0.311	0.148
-394.121	-31.466	-0.192	0.108
-393.106	-200.000	-0.016	0.175
-392.092	-74.427	0.063	-0.023
-391.077	398.066	0.138	0.288
-390.063	-200.000	0.015	0.076
-389.048	-124.123	0.408	0.064
-388.033	111.366	0.203	-0.243
-387.019	-200.000	-0.059	-0.319
-386.004	624.458	-0.103	0.258
-384.990	800.000	0.080	0.271
-383.975	-74.659	0.374	0.134
-382.960	800.000	-0.117	-0.384
-381.946	-42.999	0.313	0.159
-380.931	-110.736	0.260	-0.053
-379.917	-120.978	-0.285	-0.048
-378.902	389.594	-0.044	-0.091
-377.888	-63.551	-0.239	-0.098
-376.873	-200.000	-0.004	-0.063
-375.858	-81.995	0.165	-0.054
-374.844	-2.488	-0.105	0.073
-373.829	-117.583	-0.306	0.055
-372.815	-34.483	0.132	-0.072
-371.800	94.039	0.125	0.141
-370.785	-122.868	-0.082	0.013
-369.771	-37.616	-0.245	-0.130
-368.756	26.140	-0.179	-0.149
-367.742	-69.350	-0.047	-0.018
-366.727	57.557	0.151	0.147
-365.712	-95.122	0.089	-0.024
-364.698	-155.177	0.183	0.012
-363.683	-71.836	-0.230	0.085
-362.669	-36.630	-0.203	-0.109
-361.654	52.306	-0.056	0.053
-360.639	103.683	0.068	0.079
-359.625	15.281	0.139	-0.108
-358.610	210.091	-0.177	0.277
-357.596	800.000	0.145	0.548
-356.581	83.043	0.244	0.264
-355.566	-176.297	0.334	-0.009
-354.552	223.420	0.143	0.229
-353.537	-77.245	0.265	0.092
-352.523	800.000	-0.039	-0.147
-351.508	800.000	-0.047	-0.146
-350.493	610.126	0.019	0.047
-349.479	800.000	-0.029	0.111
-348.464	-61.112	0.334	-0.140
-347.450	-52.638	0.119	-0.055
-346.435	308.004	0.088	0.164
-345.420	387.200	-0.110	-0.226
-344.406	26.413	-0.162	0.135
-343.391	49.389	-0.084	-0.079
-342.377	-94.333	-0.169	0.046
-341.362	-84.211	0.114	0.036
-340.348	-113.405	0.434	0.085
-339.333	-92.034	0.065	-0.018
-338.318	668.256	-0.053	-0.136
-337.304	-47.794	0.288	-0.139
-336.289	-37.943	-0.187	-0.099
-335.275	-200.000	-0.029	0.186
-334.260	593.577	-0.113	-0.277
-333.245	-200.000	-0.042	0.327
-332.231	-200.000	0.035	0.236
-331.216	91.381	-0.179	0.201
-330.202	534.042	-0.087	-0.204
-329.187	-118.180	-0.158	-0.028
-328.172	31.735	-0.250	-0.214
-327.158	-109.415	0.091	0.019
-326.143	-151.570	0.260	0.019
-325.129	-200.000	-0.031	-0.387
-324.114	214.096	0.136	0.213
-323.099	-82.658	0.044	0.014
-322.085	800.000	0.110	-0.428
-321.070	5.861	0.212	0.156
-320.056	-111.860	-0.375	-0.075
-319.041	800.000	-0.128	-0.446
-318.026	-99.784	-0.254	0.063
-317.012	18.885	0.086	0.069
-315.997	800.000	-0.073	-0.281
-314.983	-6.836	0.226	-0.153
-313.968	-44.318	0.170	-0.084
-312.953	155.899	0.173	-0.237
-311.939	70.690	-0.204	-0.210
-310.924	-77.554	-0.350	-0.121
-309.910	-55.961	0.210	-0.093
-308.895	-80.611	-0.163	0.054
-307.880	-143.221	0.196	0.019
-306.866	531.002	0.127	-0.298
-305.851	-75.762	-0.338	-0.119
-304.837	800.000	-0.026	0.098
-303.822	200.494	-0.109	0.167
-302.807	-198.430	-0.246	-0.001
-301.793	-130.716	0.233	0.031
-300.778	308.213	0.133	-0.246
-299.764	-200.000	0.005	-0.047
-298.749	-53.084	0.084	-0.038
-297.735	800.000	-0.122	0.346
-296.720	800.000	-0.039	0.113
-295.705	575.589	0.121	0.294
-294.691	80.833	0.238	0.255
-293.676	-141.583	-0.197	0.020
-292.662	800.000	-0.080	0.336
-291.647	-46.822	0.361	-0.175
-290.632	144.214	-0.119	-0.158
-289.618	402.454	-0.220	-0.458
-288.603	178.853	0.232	0.337
-287.589	-185.042	0.199	-0.003
-286.574	86.247	-0.055	0.061
-285.559	-200.000	-0.062	0.407
-284.545	-92.489	0.130	0.036
-283.530	477.898	-0.109	-0.246
-282.516	161.283	-0.144	-0.200
-281.501	79.026	-0.231	-0.246
-280.486	-96.482	0.292	0.077
-279.472	-108.128	0.294	-0.063
-278.457	-124.974	-0.397	0.061
-277.443	-91.841	0.258	-0.073
-276.428	-84.006	-0.279	0.088
-275.413	-148.064	-0.065	-0.005
-274.399	-1.684	-0.078	-0.055
-273.384	106.002	0.109	-0.128
-272.370	-58.973	0.259	0.111
-271.355	-14.439	-0.123	0.079
-270.340	6.764	-0.010	0.007
-269.326	-144.956	0.308	0.028
-268.311	-77.303	0.103	-0.036
-267.297	163.494	0.149	0.209
-266.282	-77.735	-0.319	-0.110
-265.267	83.974	-0.301	0.327
-264.253	-61.701	-0.126	0.052
-263.238	-200.000	0.008	0.145
-262.224	800.000	0.028	0.081
-261.209	-200.000	-0.022	-0.285
-260.195	-162.368	-0.095	0.005
-259.180	121.279	-0.294	0.363
-258.165	97.634	0.125	0.142
-257.151	-86.934	-0.142	0.043
-256.136	-108.425	0.199	0.043
-255.122	-28.419	-0.024	0.014
-254.107	-6.613	0.182	0.123
-253.092	800.000	0.112	0.315
-252.078	800.000	-0.026	-0.075
-251.063	30.675	-0.121	0.103
-250.049	283.584	-0.201	-0.358
-249.034	271.928	0.068	-0.120
-248.019	95.964	-0.158	0.179
-247.005	-153.316	-0.333	0.023
-245.990	800.000	-0.099	0.290
-244.976	239.351	-0.068	0.112
-243.961	79.456	0.177	-0.188
-242.946	-89.004	0.088	-0.026
-241.932	-13.465	-0.374	0.241
-240.917	-200.000	-0.047	0.212
-239.903	6.132	0.264	0.194
-238.888	113.836	0.146	0.176
-237.873	292.504	-0.232	-0.419
-236.859	12.372	-0.122	-0.093
-235.844	296.356	0.069	0.125
-234.830	-124.056	-0.160	-0.025
-233.815	-200.000	-0.031	0.173
-232.800	151.529	-0.166	-0.224
-231.786	-200.000	-0.018	-0.197
-230.771	79.235	0.322	-0.342
-229.757	-125.545	0.152	0.023
-228.742	-84.241	-0.122	-0.038
-227.727	-134.812	-0.329	-0.040
-226.713	761.779	0.149	0.402
-225.698	-95.239	0.110	-0.029
-224.684	800.000	-0.036	0.121
-223.669	81.708	-0.290	0.310
-222.655	-200.000	0.012	0.212
-221.640	597.251	-0.057	0.141
-220.625	-36.759	-0.050	-0.027
-219.611	57.313	0.361	0.349
-218.596	800.000	-0.089	0.268
-217.582	128.729	-0.341	0.431
-216.567	58.298	0.066	0.064
-215.552	-152.720	0.307	0.022
-214.538	-200.000	0.007	-0.255
-213.523	800.000	-0.061	0.171
-212.509	83.286	0.034	-0.037
-211.494	-58.542	-0.389	-0.167
-210.479	9.858	0.194	-0.146
-209.465	2.619	-0.080	-0.057
-208.450	-106.764	-0.198	-0.044
-207.436	400.445	-0.044	-0.091
-206.421	-200.000	-0.038	0.221
-205.406	648.693	-0.134	-0.339
-204.392	-115.215	0.029	0.006
-203.377	-101.890	0.262	0.063
-202.363	-40.055	-0.040	-0.021
-201.348	-200.000	0.022	0.123
-200.333	526.134	0.160	0.372
-199.319	61.346	-0.222	-0.219
-198.304	-119.731	-0.204	0.035
-197.290	800.000	-0.036	0.110
-196.275	-11.079	0.182	0.119
-195.260	73.266	-0.055	-0.057
-194.246	-73.828	-0.161	0.058
-193.231	223.150	0.079	-0.126
-192.217	-10.510	0.073	0.048
-191.202	119.090	-0.112	-0.137
-190.187	94.806	-0.035	0.040
-189.173	-200.000	-0.059	0.271
-188.158	-41.415	-0.115	-0.059
-187.144	-200.000	0.023	-0.154
-186.129	-15.852	-0.307	-0.194
-185.114	-114.019	-0.268	0.051
-184.100	-200.000	0.011	-0.205
-183.085	229.110	-0.082	-0.133
-182.071	800.000	0.042	0.116
-181.056	530.422	0.154	-0.359
-180.042	10.734	0.111	-0.084
-179.027	-104.513	0.099	0.023
-178.012	-32.762	0.043	0.024
-176.998	-152.123	0.260	0.019
-175.983	171.420	0.107	-0.151
-174.969	-74.612	0.405	0.144
-173.954	-200.000	-0.026	0.236
-172.939	-200.000	-0.033	-0.280
-171.925	-11.404	0.061	0.040
-170.910	800.000	0.141	-0.434
-169.896	-47.533	0.208	-0.100
-168.881	148.213	-0.031	-0.041
-167.866	155.867	0.182	0.248
-166.852	500.333	-0.135	0.307
-165.837	28.170	0.278	0.232
-164.823	263.302	-0.058	0.100
-163.808	-70.719	-0.228	0.085
-162.793	687.627	0.117	0.301
-161.779	-200.000	0.033	-0.142
-160.764	-200.000	0.086	-0.381
-159.750	-192.616	0.066	0.001
-158.735	461.507	0.149	0.328
-157.720	0.155	0.419	0.296
-156.706	541.447	0.075	0.176
-155.691	153.493	0.100	-0.135
-154.677	-200.000	-0.020	-0.121
-153.662	800.000	-0.036	0.102
-152.647	190.836	-0.201	0.298
-151.633	-123.699	0.244	-0.038
-150.618	237.312	0.035	0.057
-149.604	258.445	-0.176	0.300
-148.589	-166.856	0.371	-0.015
-147.574	5.885	0.223	-0.163
-146.560	-52.550	0.134	-0.061
-145.545	-15.100	0.125	-0.079
-144.531	-77.712	-0.254	-0.087
-143.516	-43.061	-0.181	0.091
-142.502	-81.222	0.203	-0.066
-141.487	86.769	0.025	0.027
-140.472	-182.859	0.087	-0.002
-139.458	-16.422	-0.315	-0.197
-138.443	-126.479	-0.061	-0.009
-137.429	-64.902	-0.268	0.107
-136.414	386.127	-0.096	0.195
-135.399	800.000	-0.089	0.288
-134.385	-89.970	-0.215	-0.062
-133.370	-68.006	-0.136	0.052
-132.356	-179.825	-0.115	-0.002
-131.341	-110.383	-0.393	0.081
-130.326	180.790	-0.133	0.193
-129.312	-200.000	0.024	0.503
-128.297	-27.881	0.358	0.205
-127.283	284.961	0.157	-0.279
-126.268	-200.000	0.008	0.310
-125.253	800.000	0.069	-0.246
-124.239	-92.426	0.188	0.052
-123.224	-36.529	0.146	0.078
-122.210	314.963	0.113	-0.211
-121.195	321.509	0.104	-0.195
-120.180	-200.000	-0.008	-0.253
-119.166	-200.000	-0.018	0.139
-118.151	58.541	-0.185	-0.179
-117.137	800.000	0.129	-0.365
-116.122	76.323	-0.089	-0.093
-115.107	-148.411	0.274	0.022
-114.093	78.193	-0.255	0.269
-113.078	-33.076	-0.206	-0.113
-112.064	-200.000	0.052	0.230
-111.049	-200.000	0.016	0.078
-110.034	-117.020	-0.405	0.073
-109.020	-102.008	-0.311	0.074
-108.005	459.085	-0.058	-0.128
-106.991	-31.782	0.263	0.146
-105.976	-27.331	0.132	-0.076
-104.962	46.014	0.186	-0.170
-103.947	-25.195	0.344	0.201
-102.932	100.799	-0.087	0.100
-101.918	196.192	-0.124	0.186
-100.903	-199.741	0.264	-0.001
-99.889	-53.948	-0.127	0.057
-98.874	54.400	0.203	0.193
-97.859	-200.000	-0.048	-0.244
-96.845	800.000	0.062	-0.237
-95.830	-109.374	0.160	0.034
-94.816	-200.000	0.073	0.375
-93.801	-36.103	-0.164	0.087
-92.786	-200.000	-0.007	0.167
-91.772	-119.309	-0.175	-0.030
-90.757	-9.448	-0.170	0.112
-89.743	-84.194	0.239	-0.075
-88.728	66.067	0.210	0.210
-87.713	-200.000	0.032	0.274
-86.699	365.514	-0.077	-0.152
-85.684	-40.935	-0.298	0.152
-84.670	-24.310	-0.266	-0.156
-83.655	159.530	-0.193	0.265
-82.640	-147.923	0.320	-0.026
-81.626	100.863	0.161	0.185
-80.611	-31.382	-0.299	0.166
-79.597	27.313	-0.039	0.032
-78.582	385.281	0.103	-0.210
-77.567	189.055	0.018	-0.027
-76.553	-73.844	-0.239	0.086
-75.538	94.340	0.240	-0.268
-74.524	-200.000	-0.037	0.202
-73.509	-200.000	0.032	-0.160
-72.494	800.000	0.054	-0.157
-71.480	-92.972	0.441	0.121
-70.465	-128.350	0.331	-0.046
-69.451	366.256	0.189	0.374
-68.436	-152.459	0.277	-0.020
-67.422	11.324	0.106	-0.080
-66.407	190.992	0.114	0.168
-65.392	512.230	-0.123	0.283
-64.378	-69.622	0.310	0.117
-63.363	-200.000	-0.027	0.178
-62.349	95.450	0.180	-0.203
-61.334	87.710	-0.807	-0.880
-60.319	-200.000	0.190	0.863
-59.305	-200.000	-0.020	-1.039
-58.290	165.076	0.719	1.000
-57.276	648.429	0.619	1.559
-56.261	-200.000	95.550	593.147
-55.246	568.039	1370.347	3276.749
-54.232	161.158	2549.688	3508.081
-53.217	113.516	2141.876	2559.893
-52.203	44.018	1604.049	1447.113
-51.188	35.658	1341.562	1160.068
-50.173	32.444	1300.228	1105.439
-49.159	54.514	1347.260	1277.761
-48.144	56.716	1363.390	1306.147
-47.130	35.728	1323.084	1144.327
-46.115	32.325	1305.313	1108.889
-45.100	32.178	1300.061	1103.517
-44.086	32.081	1297.610	1100.823
-43.071	31.979	1295.403	1098.311
-42.057	31.969	1292.817	1096.018
-41.042	32.106	1291.117	1095.331
-40.027	32.007	1290.243	1093.970
-39.013	31.975	1288.371	1092.151
-37.998	32.069	1286.203	1090.816
-36.984	32.169	1284.452	1089.871
-35.969	32.155	1282.645	1088.213
-34.954	32.133	1281.152	1086.776
-33.940	32.134	1280.094	1085.841
-32.925	32.167	1278.345	1084.508
-31.911	32.177	1276.956	1083.340
-30.896	32.274	1274.594	1081.854
-29.881	32.284	1273.844	1081.228
-28.867	32.390	1272.397	1080.571
-27.852	32.331	1271.106	1079.089
-26.838	32.185	1269.757	1077.062
-25.823	32.215	1269.006	1076.558
-24.809	32.208	1267.063	1074.825
-23.794	32.196	1266.045	1073.850
-22.779	32.251	1264.727	1073.005
-21.765	32.192	1263.778	1071.821
-20.750	32.178	1262.217	1070.372
-19.736	32.113	1260.452	1068.465
-18.721	32.084	1259.761	1067.672
-17.706	32.049	1258.209	1066.119
-16.692	32.104	1257.325	1065.634
-15.677	32.099	1256.045	1064.482
-14.663	32.073	1255.412	1063.755
-13.648	32.040	1254.106	1062.418
-12.633	32.092	1252.988	1061.726
-11.619	32.078	1252.215	1060.946
-10.604	32.049	1251.226	1059.907
-9.590	31.992	1250.477	1058.905
-8.575	31.996	1249.111	1057.729
-7.560	31.957	1248.899	1057.290
-6.546	31.971	1247.794	1056.391
-5.531	32.106	1246.630	1056.125
-4.517	32.065	1245.806	1055.151
-3.502	32.087	1245.217	1054.733
-2.487	32.019	1244.117	1053.379
-1.473	32.012	1240.190	1049.974
-0.458	30.713	1225.189	1030.044
0.556	27.104	1208.198	992.755
1.571	23.605	1213.902	978.106
2.586	22.876	1229.500	986.517
3.600	22.331	1218.545	974.624
4.615	15.989	1144.379	882.123
5.629	5.956	1068.460	774.259
6.644	1.845	1048.787	740.003
7.659	1.492	1046.458	736.583
8.673	1.438	1045.120	735.315
9.688	1.487	1043.327	734.226
10.702	1.704	1041.514	733.933
11.717	7.592	1050.097	768.471
12.731	17.844	1064.892	829.296
13.746	23.673	1071.764	862.991
14.761	24.909	1073.625	870.428
15.775	24.904	1073.141	869.936
16.790	24.691	1072.386	868.211
17.804	24.624	1071.839	867.365
18.819	24.693	1071.472	867.325
19.834	24.891	1070.742	867.618
20.848	25.038	1070.460	868.028
21.863	24.830	1070.317	866.827
22.877	24.874	1069.110	865.984
23.892	24.781	1068.885	865.276
24.907	24.894	1067.811	864.873
25.921	24.887	1066.549	863.744
26.936	24.889	1065.204	862.586
27.950	24.802	1063.633	860.819
28.965	24.592	1062.333	858.680
29.980	24.699	1060.570	857.694
30.994	24.994	1059.592	858.240
32.009	24.948	1058.435	857.011
33.023	24.728	1057.052	854.760
34.038	24.795	1056.602	854.641
35.053	24.876	1056.348	854.747
36.067	24.974	1054.855	853.932
37.082	24.950	1054.759	853.666
38.096	25.160	1053.612	853.662
39.111	25.310	1052.776	853.618
40.126	25.021	1051.513	851.145
41.140	24.647	1050.231	848.260
42.155	24.328	1048.838	845.549
43.169	24.603	1047.514	845.707
44.184	24.606	1047.102	845.315
45.199	24.518	1045.773	843.753
46.213	24.621	1045.021	843.558
47.228	24.745	1044.544	843.682
48.242	24.646	1044.103	842.781
49.257	24.902	1042.735	842.810
50.271	24.974	1042.236	842.670
51.286	25.009	1041.151	841.885
52.301	24.867	1040.700	840.775
53.315	24.878	1039.727	839.967
54.330	24.854	1038.467	838.765
55.344	25.014	1037.531	838.683
56.359	24.928	1036.761	837.582
57.374	24.669	1036.245	835.880
58.388	24.907	1034.745	835.711
59.403	24.615	1034.315	833.924
60.417	24.397	1033.496	832.173
61.432	24.620	1032.858	832.628
62.447	24.697	1032.233	832.408
63.461	24.788	1031.391	832.080
64.476	24.589	1030.492	830.355
65.490	24.559	1029.412	829.270
66.505	24.595	1029.213	829.206
67.520	24.604	1028.804	828.845
68.534	24.352	1027.529	826.574
69.549	24.209	1026.232	824.797
70.563	24.174	1025.765	824.186
71.578	24.143	1024.690	823.107
72.593	23.954	1023.677	821.348
73.607	24.063	1023.152	821.359
74.622	24.253	1023.547	822.477
75.636	24.588	1022.110	822.795
76.651	24.360	1021.222	820.959
77.666	24.228	1020.339	819.568
78.680	24.298	1020.204	819.709
79.695	24.480	1019.426	819.845
80.709	24.579	1018.926	819.826
81.724	24.533	1017.853	818.679
82.739	24.586	1017.367	818.457
83.753	24.910	1016.926	819.516
84.768	25.197	1016.417	820.344
85.782	25.263	1015.483	819.821
86.797	25.159	1014.071	818.134
87.812	25.108	1013.308	817.215
88.826	25.060	1012.664	816.405
89.841	25.204	1011.511	816.057
90.855	25.239	1010.523	815.346
91.870	25.156	1009.540	814.105
92.884	25.020	1008.528	812.598
93.899	25.020	1007.470	811.672
94.914	25.093	1007.030	811.579
95.928	25.042	1005.714	810.218
96.943	24.820	1004.693	808.321
97.957	24.451	1003.575	805.684
98.972	24.371	1002.743	804.583
99.987	24.693	1001.976	805.345
101.001	24.867	1001.364	805.565
102.016	24.806	1000.476	804.507
103.030	24.716	999.705	803.409
104.045	24.535	998.612	801.647
105.060	24.481	997.928	800.785
106.074	24.680	996.765	800.674
107.089	25.165	996.521	802.578
108.103	24.887	995.344	800.317
109.118	24.656	993.907	798.061
110.133	24.633	993.241	797.352
111.147	24.532	991.629	795.539
112.162	24.273	991.504	794.211
113.176	24.612	990.826	795.108
114.191	24.474	989.839	793.634
115.206	24.137	989.032	791.419
116.220	24.318	987.591	790.998
117.235	24.362	987.118	790.742
118.249	24.266	986.455	789.719
119.264	24.179	985.532	788.522
120.279	24.355	984.834	788.672
121.293	24.321	984.210	787.956
122.308	24.278	983.410	787.055
123.322	24.225	982.399	785.941
124.337	24.147	981.007	784.416
125.352	23.601	979.425	780.679
126.366	23.677	978.036	779.836
127.381	24.438	978.289	783.312
128.395	24.767	978.071	784.510
129.410	24.885	977.185	784.248
130.424	24.853	976.026	783.107
131.439	24.904	975.376	782.740
132.454	24.711	974.429	781.068
133.468	24.762	973.779	780.699
134.483	24.861	973.101	780.519
135.497	25.068	972.178	780.612
136.512	25.181	970.982	780.074
137.527	25.112	970.171	779.052
138.541	25.040	969.716	778.305
139.556	25.044	969.196	777.839
140.570	25.122	968.425	777.488
141.585	25.169	967.150	776.601
142.600	25.140	965.874	775.383
143.614	25.334	965.515	775.865
144.629	25.437	964.475	775.401
145.643	25.309	963.201	773.758
146.658	25.106	962.082	771.917
147.673	25.004	961.123	770.641
148.687	25.076	959.974	769.960
149.702	24.895	959.124	768.434
150.716	24.778	958.346	767.240
151.731	24.802	957.521	766.616
152.746	25.201	956.964	767.811
153.760	25.210	956.623	767.507
154.775	25.344	955.985	767.499
155.789	25.326	954.805	766.407
156.804	25.251	954.162	765.504
157.819	25.375	953.185	765.181
158.833	25.338	952.984	764.793
159.848	25.522	951.363	764.206
160.862	25.233	950.283	762.044
161.877	25.241	949.410	761.310
162.892	25.183	948.743	760.464
163.906	25.339	947.284	759.887
164.921	25.257	946.325	758.704
165.935	25.276	945.746	758.251
166.950	25.351	945.286	758.135
167.964	25.190	944.125	756.455
168.979	25.130	943.006	755.240
169.994	25.121	941.987	754.319
171.008	25.375	941.478	754.915
172.023	25.353	940.915	754.303
173.037	25.071	939.373	751.818
174.052	24.963	938.535	750.626
175.067	24.935	938.361	750.306
176.081	25.021	937.987	750.300
177.096	24.973	937.406	749.568
178.110	24.618	936.563	747.341
179.125	24.632	935.492	746.481
180.140	24.699	935.054	746.342
181.154	24.783	934.631	746.289
182.169	25.179	934.592	747.846
183.183	25.226	934.308	747.746
184.198	25.210	932.978	746.551
185.213	25.159	932.263	745.699
186.227	25.348	931.735	745.999
187.242	25.289	931.208	745.264
188.256	25.374	930.672	745.124
189.271	25.385	929.953	744.525
190.286	24.950	928.933	741.840
191.300	24.339	927.322	737.964
192.315	23.535	926.082	733.585
193.329	23.553	925.392	733.048
194.344	24.588	925.624	737.445
195.359	25.080	925.805	739.554
196.373	25.150	925.246	739.328
197.388	24.986	924.816	738.244
198.402	25.129	924.063	738.167
199.417	25.167	923.043	737.444
200.432	24.925	922.275	735.772
201.446	24.741	921.629	734.436
202.461	24.879	920.998	734.434
203.475	23.943	918.827	728.801
204.490	23.112	918.028	724.702
205.504	24.053	918.512	728.876
206.519	24.732	917.949	731.143
207.534	24.849	917.632	731.303
208.548	25.185	917.811	732.753
209.563	25.070	916.616	731.264
210.577	24.959	915.824	730.118
211.592	25.380	915.604	731.592
212.607	25.290	914.663	730.408
213.621	25.317	914.315	730.174
214.636	25.411	913.594	729.918
215.650	25.313	912.389	728.492
216.665	25.453	912.182	728.831
217.680	25.318	911.427	727.614
218.694	24.874	910.273	724.832
219.709	24.768	909.541	723.755
220.723	25.169	909.032	724.908
221.738	25.142	908.732	724.498
222.753	25.030	908.359	723.681
223.767	25.220	907.440	723.654
224.782	25.490	907.514	724.735
225.796	25.277	906.641	723.118
226.811	24.641	905.032	719.212
227.826	24.113	904.092	716.276
228.840	24.397	903.001	716.492
229.855	24.492	902.622	716.509
230.869	23.964	901.941	713.787
231.884	24.502	901.819	715.782
232.899	25.071	902.064	718.195
233.913	25.035	901.066	717.192
234.928	24.941	900.693	716.455
235.942	24.980	899.672	715.737
236.957	24.641	898.723	713.566
237.972	24.749	898.369	713.654
238.986	24.705	898.020	713.137
240.001	24.735	897.616	712.871
241.015	24.865	897.026	712.859
242.030	25.084	896.648	713.368
243.045	25.026	896.269	712.772
244.059	25.464	895.273	713.656
245.074	25.191	894.558	711.940
246.088	24.841	893.155	709.374
247.103	25.267	893.090	710.947
248.117	25.743	893.159	712.822
249.132	25.798	893.278	713.072
250.147	25.950	892.143	712.707
251.161	25.978	892.384	712.945
252.176	25.972	891.496	712.147
253.190	26.178	890.648	712.223
254.205	26.228	890.597	712.314
255.220	26.060	890.037	711.141
256.234	25.963	889.187	710.017
257.249	25.837	888.285	708.739
258.263	25.835	887.765	708.253
259.278	26.051	886.820	708.285
260.293	26.072	886.538	708.080
261.307	25.941	886.080	707.137
262.322	25.749	884.935	705.408
263.336	24.979	883.089	700.864
264.351	24.143	881.317	696.131
265.366	24.211	880.909	696.010
266.380	25.356	881.592	700.961
267.395	25.576	881.460	701.651
268.409	25.642	880.694	701.236
269.424	25.851	880.369	701.731
270.439	25.835	879.323	700.774
271.453	25.930	879.027	700.846
272.468	26.041	878.768	701.007
273.482	26.077	878.205	700.637
274.497	25.679	876.789	697.900
275.512	25.286	876.161	695.817
276.526	25.887	876.420	698.291
277.541	25.874	875.923	697.783
278.555	25.608	875.050	695.995
279.570	25.486	874.173	694.765
280.585	25.708	873.639	695.139
281.599	25.617	872.845	694.092
282.614	25.105	871.441	690.940
283.628	25.020	871.314	690.452
284.643	25.544	870.284	691.591
285.657	25.044	869.878	689.283
286.672	24.782	868.942	687.475
287.687	25.399	869.250	690.029
288.701	25.503	868.275	689.593
289.716	25.121	867.195	687.210
290.730	25.128	866.518	686.641
291.745	24.921	865.284	684.812
292.760	25.241	865.538	686.176
293.774	25.886	866.636	689.453
294.789	26.355	866.149	690.795
295.803	26.359	865.659	690.362
296.818	26.454	864.600	689.815
297.833	25.987	863.534	687.126
298.847	25.911	862.676	686.094
299.862	26.274	862.404	687.197
300.876	26.374	862.547	687.631
301.891	26.318	861.827	686.785
302.906	25.918	860.839	684.416
303.920	26.018	860.490	684.458
304.935	26.357	860.597	685.770
305.949	26.317	859.776	684.902
306.964	25.973	859.052	682.960
307.979	26.188	858.426	683.218
308.993	26.600	858.281	684.599
310.008	26.525	857.515	683.646
311.022	26.223	856.589	681.706
312.037	26.215	856.172	681.284
313.052	25.801	855.282	678.956
314.066	24.939	853.690	674.387
315.081	24.697	852.820	672.730
316.095	25.402	853.425	675.800
317.110	26.054	852.797	677.692
318.125	25.225	851.702	673.652
319.139	24.075	850.474	668.307
320.154	24.096	850.127	668.055
321.168	24.966	850.346	671.430
322.183	25.677	850.711	674.322
323.197	25.844	850.250	674.525
324.212	26.209	849.726	675.416
325.227	26.041	849.046	674.186
326.241	26.163	848.188	673.902
327.256	25.982	847.498	672.617
328.270	25.862	846.798	671.557
329.285	25.666	846.091	670.206
330.300	25.426	845.306	668.631
331.314	25.713	844.858	669.286
332.329	26.036	845.410	670.864
333.343	26.229	845.035	671.226
334.358	26.175	844.366	670.434
335.373	26.194	844.218	670.329
336.387	26.525	843.823	671.182
337.402	26.621	844.062	671.669
338.416	26.632	843.276	671.025
339.431	26.753	842.973	671.174
340.446	26.792	842.925	671.220
341.460	26.668	842.306	670.210
342.475	26.531	841.764	669.210
343.489	26.685	841.263	669.321
344.504	26.811	841.161	669.650
345.519	27.070	840.970	670.392
346.533	27.032	840.564	669.870
347.548	27.045	839.758	669.216
348.562	27.249	838.878	669.206
349.577	27.157	838.215	668.280
350.592	26.935	838.226	667.411
351.606	27.003	837.139	666.737
352.621	26.785	836.489	665.361
353.635	26.699	835.717	664.374
354.650	26.108	834.191	660.937
355.665	25.198	832.586	656.282
356.679	25.454	832.780	657.310
357.694	26.078	832.384	659.220
358.708	25.971	831.369	657.969
359.723	26.297	831.497	659.202
360.738	26.574	830.879	659.662
361.752	26.738	830.377	659.801
362.767	27.086	830.238	660.900
363.781	27.282	829.845	661.240
364.796	27.325	829.882	661.370
365.810	27.336	829.750	661.244
366.825	27.335	828.961	660.552
367.840	27.151	827.691	658.817
368.854	26.545	827.131	656.116
369.869	26.751	826.787	656.532
370.883	26.958	826.262	656.806
371.898	26.672	826.012	655.515
372.913	26.829	825.544	655.653
373.927	26.907	825.094	655.518
374.942	27.065	825.012	655.967
375.956	27.030	824.490	655.367
376.971	27.332	823.973	655.989
377.986	27.427	823.358	655.781
379.000	27.240	823.381	655.068
380.015	27.149	822.446	653.940
381.029	27.306	821.855	653.976
382.044	27.447	821.359	654.031
383.059	27.313	820.642	652.920
384.073	27.425	820.392	653.064
385.088	27.283	819.629	651.890
386.102	27.297	818.831	651.248
387.117	27.170	818.273	650.294
388.132	26.650	817.531	647.789
389.146	26.181	816.684	645.383
390.161	26.702	816.511	647.050
391.175	27.185	816.415	648.641
392.190	26.886	814.867	646.288
393.205	25.234	813.231	639.054
394.219	23.813	811.132	632.300
395.234	23.800	810.711	631.866
396.248	25.382	812.408	638.766
397.263	26.890	813.252	644.735
398.278	26.747	813.030	643.995
399.292	26.589	812.032	642.585
400.307	26.576	811.470	642.040
401.321	26.639	811.258	642.040
402.336	27.108	811.337	643.706
403.350	27.561	811.327	645.245
404.365	27.842	811.189	646.072
405.380	28.117	810.958	646.804
406.394	28.249	810.323	646.707
407.409	28.080	809.699	645.557
408.423	27.925	808.853	644.276
409.438	28.040	808.822	644.600
410.453	27.976	808.506	644.067
411.467	28.024	807.645	643.492
412.482	28.047	807.199	643.161
413.496	28.220	807.279	643.775
414.511	28.087	806.494	642.627
415.526	28.213	806.195	642.772
416.540	27.855	805.678	641.050
417.555	27.689	805.052	639.912
418.569	27.874	804.299	639.905
419.584	27.679	804.097	639.002
420.599	27.573	803.346	637.979
421.613	110.636	1286.534	1460.111
422.628	95.497	1356.910	1460.216
