DTS Sentinel unit serial number:	SN413079Multiplexer serial number:	ORYXHardware model number:	OX4-SRSoftware version number:	ORYX F/W v4.00 Oryx Data Collector v3.7.2.0data status	okinstallation	princeton_trtdifferential loss correction	single-endedforward channel	channel 1reverse channel	N/Adate	2019/09/12time	12:24:11forward acquisition time	60.00reverse acquisition time	0.00gamma	496.2192k internal	0.2292k external	0.2292temperature offset calibration	1.0045default loss term (dB/km)	0.3790temperature slope calibration	1.0000multiplexer offset coefficient	1.0000multiplexer slope coefficient	1.0000fibre end	0.00T internal ref (°C)	40.56T ext. ref 1 (°C)	2.03T ext. ref 2 (°C)	35.47length (m)	temperature (°C)	Stokes	anti-Stokes-747.200	800.000	-0.089	-0.357
-746.185	-117.072	0.354	0.066
-745.171	-122.487	0.109	-0.018
-744.156	-42.839	-0.139	0.072
-743.142	-98.025	0.165	0.044
-742.127	80.494	-0.147	0.162
-741.112	16.419	0.225	-0.182
-740.098	-42.687	-0.127	0.066
-739.083	-74.473	-0.304	-0.112
-738.069	-200.000	0.073	-0.385
-737.054	-72.115	0.314	0.119
-736.039	194.933	0.073	-0.113
-735.025	36.772	0.217	0.196
-734.010	-51.515	-0.302	-0.144
-732.996	-154.940	-0.369	-0.025
-731.981	-118.384	-0.042	0.008
-730.966	35.751	0.258	0.232
-729.952	141.975	0.207	-0.281
-728.937	17.714	-0.149	0.121
-727.923	379.879	-0.147	-0.307
-726.908	-44.198	-0.131	-0.067
-725.894	800.000	0.130	-0.418
-724.879	-89.179	-0.365	-0.110
-723.864	-29.745	-0.249	-0.145
-722.850	800.000	0.039	-0.160
-721.835	258.836	-0.117	0.205
-720.821	42.550	0.112	0.104
-719.806	-49.696	-0.306	-0.149
-718.791	-56.162	-0.140	-0.064
-717.777	-200.000	-0.066	0.302
-716.762	388.247	-0.200	-0.422
-715.748	-190.193	0.272	0.003
-714.733	-200.000	-0.000	0.054
-713.718	-137.423	0.084	0.010
-712.704	-200.000	0.018	-0.204
-711.689	-200.000	0.025	0.833
-710.675	12.670	0.168	0.133
-709.660	-200.000	-0.037	-0.198
-708.645	10.619	-0.218	0.170
-707.631	309.027	0.162	-0.310
-706.616	-169.174	-0.071	0.003
-705.602	-4.417	-0.184	0.130
-704.587	248.999	-0.202	-0.350
-703.572	62.945	-0.099	-0.101
-702.558	239.747	-0.052	-0.089
-701.543	-200.000	-0.038	0.322
-700.529	334.778	0.160	-0.317
-699.514	175.813	0.164	-0.243
-698.499	101.176	0.075	0.089
-697.485	-27.892	0.162	-0.096
-696.470	775.152	0.011	0.032
-695.456	-109.125	-0.066	-0.014
-694.441	59.969	-0.037	-0.038
-693.426	-199.293	-0.212	0.001
-692.412	115.020	-0.112	0.140
-691.397	110.416	0.328	0.403
-690.383	610.118	-0.129	-0.329
-689.368	-91.980	0.066	0.019
-688.354	800.000	-0.097	-0.336
-687.339	88.723	-0.307	0.348
-686.324	-200.000	0.010	-0.246
-685.310	82.483	0.125	0.139
-684.295	-44.804	-0.151	0.077
-683.281	130.637	0.151	-0.197
-682.266	-196.643	0.070	0.000
-681.251	-200.000	-0.043	-0.297
-680.237	800.000	-0.125	-0.358
-679.222	-12.168	-0.139	0.093
-678.208	800.000	-0.083	-0.346
-677.193	86.413	-0.210	-0.236
-676.178	800.000	0.030	0.099
-675.164	208.979	-0.123	0.196
-674.149	-200.000	0.016	0.101
-673.135	-101.829	0.429	-0.106
-672.120	-91.679	0.033	0.010
-671.105	274.143	0.066	-0.120
-670.091	-200.000	0.077	-0.459
-669.076	483.659	0.056	-0.130
-668.062	692.989	-0.087	-0.233
-667.047	341.184	-0.156	-0.311
-666.032	-108.990	-0.434	-0.094
-665.018	696.088	-0.096	-0.257
-664.003	-200.000	-0.045	-0.282
-662.989	-109.632	-0.126	0.027
-661.974	-44.507	0.208	0.106
-660.959	-14.532	-0.221	0.145
-659.945	-168.739	-0.111	-0.004
-658.930	34.008	-0.163	0.145
-657.916	237.847	-0.082	0.139
-656.901	-23.677	0.527	0.322
-655.886	800.000	-0.077	-0.329
-654.872	-166.705	-0.198	-0.008
-653.857	681.701	0.095	-0.252
-652.843	-148.986	-0.248	-0.020
-651.828	393.920	-0.093	-0.198
-650.814	-200.000	-0.072	-0.412
-649.799	504.638	-0.085	0.200
-648.784	800.000	-0.098	0.352
-647.770	-200.000	-0.085	-0.404
-646.755	800.000	-0.045	-0.191
-645.741	12.558	0.025	-0.020
-644.726	-162.032	-0.191	-0.010
-643.711	715.083	-0.013	-0.035
-642.697	-200.000	0.058	-0.310
-641.682	-200.000	-0.048	-0.249
-640.668	83.806	-0.140	0.155
-639.653	61.668	-0.064	-0.065
-638.638	6.273	-0.147	-0.111
-637.624	-53.834	-0.084	-0.039
-636.609	-124.385	0.262	0.042
-635.595	-10.417	-0.331	0.224
-634.580	35.111	0.110	-0.099
-633.565	-37.826	-0.187	-0.101
-632.551	146.508	-0.133	0.182
-631.536	203.298	-0.096	0.151
-630.522	276.040	-0.032	-0.058
-629.507	714.464	-0.072	-0.194
-628.492	291.621	-0.115	-0.213
-627.478	-139.285	-0.395	0.043
-626.463	225.660	0.122	0.202
-625.449	-200.000	-0.015	-0.265
-624.434	-200.000	0.043	-0.194
-623.419	668.661	0.190	-0.500
-622.405	800.000	0.007	0.028
-621.390	-122.131	0.290	0.048
-620.376	374.603	-0.083	0.172
-619.361	164.728	-0.216	0.310
-618.346	66.779	0.023	0.024
-617.332	-49.961	-0.206	-0.099
-616.317	103.097	-0.068	0.081
-615.303	93.456	0.059	-0.067
-614.288	5.043	-0.237	-0.178
-613.273	11.052	-0.196	0.152
-612.259	-96.851	0.096	0.026
-611.244	24.285	0.126	0.106
-610.230	527.618	0.038	0.091
-609.215	179.366	0.084	0.126
-608.201	-200.000	0.001	-0.294
-607.186	-39.896	0.369	0.196
-606.171	9.664	0.214	0.165
-605.157	-2.718	-0.130	-0.093
-604.142	-200.000	0.050	0.326
-603.128	-17.856	0.233	0.149
-602.113	190.454	0.190	0.291
-601.098	363.493	-0.193	0.394
-600.084	-79.321	0.224	-0.077
-599.069	247.100	0.132	-0.227
-598.055	282.940	0.094	-0.172
-597.040	158.015	0.145	-0.204
-596.025	-163.304	0.243	0.012
-595.011	196.787	0.109	-0.169
-593.996	143.333	-0.157	-0.212
-592.982	-200.000	-0.023	0.125
-591.967	174.754	0.058	0.086
-590.952	-4.204	-0.112	-0.079
-589.938	-200.000	0.009	-0.198
-588.923	-200.000	-0.044	-0.203
-587.909	-157.481	-0.237	0.014
-586.894	261.629	0.021	0.037
-585.879	166.320	0.205	-0.295
-584.865	-80.956	-0.120	0.040
-583.850	181.802	0.107	0.160
-582.836	-200.000	-0.016	-0.186
-581.821	-125.249	-0.244	0.038
-580.806	86.611	-0.120	-0.134
-579.792	800.000	0.035	0.109
-578.777	-107.603	0.174	-0.039
-577.763	-39.561	0.407	-0.217
-576.748	-178.894	0.239	0.006
-575.733	-200.000	-0.005	0.103
-574.719	-160.715	0.225	-0.012
-573.704	651.953	0.021	0.055
-572.690	248.887	-0.118	-0.203
-571.675	-26.469	-0.217	-0.129
-570.661	34.217	-0.253	-0.224
-569.646	113.740	0.220	0.272
-568.631	800.000	0.081	-0.243
-567.617	-200.000	-0.011	-0.091
-566.602	770.958	0.066	0.182
-565.588	48.148	0.176	-0.168
-564.573	129.771	-0.114	0.148
-563.558	501.494	-0.126	0.296
-562.544	39.431	0.121	0.111
-561.529	17.890	0.340	0.275
-560.515	595.403	0.103	0.259
-559.500	-191.430	-0.191	-0.002
-558.485	-41.889	0.170	0.089
-557.471	800.000	-0.042	-0.132
-556.456	-70.971	-0.124	0.047
-555.442	87.159	0.045	-0.050
-554.427	-147.175	0.215	-0.019
-553.412	5.870	-0.179	0.134
-552.398	-42.728	0.115	0.059
-551.383	-74.540	0.027	-0.010
-550.369	-200.000	-0.004	0.316
-549.354	-17.735	-0.371	0.237
-548.339	-102.568	0.151	0.037
-547.325	-200.000	-0.008	-0.047
-546.310	-200.000	0.015	0.157
-545.296	-129.078	0.284	-0.040
-544.281	-200.000	0.002	0.076
-543.266	-200.000	-0.055	0.315
-542.252	42.468	-0.111	0.103
-541.237	-69.095	0.105	-0.041
-540.223	-169.307	-0.251	0.009
-539.208	800.000	0.081	0.341
-538.193	12.427	0.114	-0.089
-537.179	-43.695	0.161	0.082
-536.164	237.664	0.120	0.201
-535.150	-42.980	-0.164	0.085
-534.135	-200.000	0.048	0.216
-533.121	-200.000	0.008	0.110
-532.106	-34.148	0.060	0.034
-531.091	47.821	-0.153	-0.145
-530.077	470.180	0.148	-0.337
-529.062	382.781	0.105	0.219
-528.048	-186.696	-0.241	0.003
-527.033	-90.580	0.272	-0.080
-526.018	800.000	-0.033	0.140
-525.004	370.494	-0.177	0.364
-523.989	-200.000	-0.024	-0.268
-522.975	-16.432	0.083	0.053
-521.960	800.000	0.132	0.393
-520.945	800.000	-0.029	0.117
-519.931	-200.000	0.000	0.288
-518.916	-61.876	-0.098	0.041
-517.902	355.398	-0.102	-0.207
-516.887	-200.000	0.022	0.122
-515.872	-200.000	0.070	0.523
-514.858	800.000	0.038	0.135
-513.843	97.345	0.247	0.287
-512.829	800.000	-0.046	0.156
-511.814	-76.903	-0.301	0.107
-510.799	-200.000	-0.004	-0.206
-509.785	-117.908	0.209	-0.038
-508.770	-74.381	-0.324	0.118
-507.756	-48.388	0.234	0.115
-506.741	-44.668	-0.306	-0.155
-505.726	-157.249	-0.131	0.008
-504.712	-200.000	-0.008	-0.081
-503.697	-184.405	0.136	0.002
-502.683	-191.847	0.183	-0.002
-501.668	-200.000	-0.022	-0.442
-500.653	693.329	-0.063	0.168
-499.639	-200.000	-0.032	-0.167
-498.624	2.610	0.216	-0.158
-497.610	-136.695	-0.174	0.020
-496.595	317.881	0.189	-0.362
-495.581	-17.490	0.262	0.167
-494.566	-70.208	-0.042	0.016
-493.551	536.224	-0.038	-0.092
-492.537	-200.000	-0.021	0.368
-491.522	-47.856	0.193	-0.095
-490.508	-24.834	0.143	0.086
-489.493	-78.489	-0.148	-0.051
-488.478	188.775	0.269	-0.408
-487.464	132.553	-0.085	-0.111
-486.449	-115.003	-0.183	-0.035
-485.435	-117.948	-0.321	-0.058
-484.420	98.031	0.188	0.219
-483.405	-200.000	0.005	-0.215
-482.391	25.129	0.132	-0.111
-481.376	-150.193	-0.104	-0.008
-480.362	184.660	0.157	-0.236
-479.347	800.000	0.039	0.161
-478.332	128.789	0.327	0.422
-477.318	-115.077	-0.136	0.026
-476.303	-44.460	0.482	0.244
-475.289	38.837	-0.265	-0.240
-474.274	-200.000	-0.010	-0.060
-473.259	-24.607	0.170	-0.103
-472.245	-200.000	-0.003	-0.193
-471.230	-130.780	0.255	-0.035
-470.216	-3.565	0.338	-0.238
-469.201	800.000	-0.049	-0.189
-468.186	262.707	0.175	-0.308
-467.172	-86.707	-0.261	0.081
-466.157	470.545	-0.134	-0.304
-465.143	389.276	0.077	-0.162
-464.128	-200.000	0.047	-0.342
-463.113	471.231	0.008	0.018
-462.099	344.660	0.127	0.253
-461.084	800.000	0.126	0.398
-460.070	2.158	-0.141	-0.103
-459.055	-53.926	-0.080	-0.037
-458.040	-12.988	-0.167	0.110
-457.026	800.000	-0.080	0.289
-456.011	47.426	-0.085	-0.081
-454.997	91.167	0.075	0.085
-453.982	-148.653	-0.104	0.009
-452.968	47.325	-0.170	-0.160
-451.953	-44.438	0.131	0.067
-450.938	-200.000	-0.097	-0.519
-449.924	-91.748	-0.123	-0.035
-448.909	110.978	-0.263	-0.320
-447.895	0.771	-0.310	-0.224
-446.880	134.574	0.143	-0.188
-445.865	-200.000	0.012	0.113
-444.851	476.243	-0.047	0.107
-443.836	-79.549	0.282	0.096
-442.822	-200.000	0.009	0.102
-441.807	672.628	-0.142	0.373
-440.792	-90.326	0.060	-0.018
-439.778	-70.180	-0.265	0.102
-438.763	-7.855	-0.144	0.098
-437.749	194.377	0.036	-0.056
-436.734	-200.000	-0.016	0.105
-435.719	-156.448	0.081	-0.005
-434.705	800.000	0.073	-0.309
-433.690	800.000	-0.067	-0.229
-432.676	-156.684	0.358	-0.022
-431.661	-78.244	-0.128	0.044
-430.646	-200.000	0.038	-0.195
-429.632	89.558	0.120	-0.135
-428.617	4.739	0.144	0.107
-427.603	-126.667	-0.232	-0.035
-426.588	-121.400	-0.283	-0.048
-425.573	88.038	-0.253	0.284
-424.559	-24.115	0.253	-0.153
-423.544	35.154	0.167	0.148
-422.530	-148.047	-0.112	0.009
-421.515	701.745	0.083	-0.221
-420.500	369.415	0.120	0.246
-419.486	-43.067	0.098	-0.050
-418.471	-84.213	0.187	-0.060
-417.457	800.000	0.086	0.257
-416.442	-200.000	0.028	0.204
-415.428	29.009	-0.054	0.046
-414.413	508.042	0.094	-0.220
-413.398	-147.763	0.154	0.013
-412.384	142.035	-0.028	0.038
-411.369	11.085	0.184	0.142
-410.355	-179.346	0.055	0.001
-409.340	79.641	0.287	0.312
-408.325	-72.249	0.167	-0.063
-407.311	435.770	-0.049	-0.108
-406.296	434.102	-0.043	0.094
-405.282	56.017	-0.129	0.126
-404.267	50.610	-0.042	-0.041
-403.252	-59.950	-0.184	-0.079
-402.238	141.838	0.191	-0.255
-401.223	800.000	-0.066	0.261
-400.209	-36.987	0.228	-0.124
-399.194	-200.000	0.021	0.315
-398.179	180.353	-0.136	0.201
-397.165	-52.648	0.157	0.073
-396.150	-54.139	0.288	-0.132
-395.136	800.000	-0.025	-0.103
-394.121	-178.697	0.229	-0.005
-393.106	800.000	-0.028	0.114
-392.092	-200.000	0.026	-0.125
-391.077	-150.771	-0.289	-0.022
-390.063	45.770	-0.087	0.081
-389.048	-200.000	-0.004	0.033
-388.033	-200.000	0.001	-0.160
-387.019	800.000	-0.049	-0.187
-386.004	-15.056	-0.105	-0.068
-384.990	-200.000	-0.172	0.000
-383.975	-180.794	-0.042	-0.001
-382.960	-200.000	-0.053	0.239
-381.946	-200.000	0.036	0.322
-380.931	414.833	-0.063	0.136
-379.917	188.907	-0.264	0.399
-378.902	-52.617	0.186	0.087
-377.888	194.786	-0.060	0.091
-376.873	-119.557	0.252	0.044
-375.858	-200.000	0.011	-0.168
-374.844	-27.629	-0.516	-0.303
-373.829	-111.775	-0.117	0.024
-372.815	-200.000	-0.017	-0.291
-371.800	-1.418	-0.127	0.090
-370.785	-37.339	-0.115	-0.062
-369.771	800.000	0.099	-0.405
-368.756	67.254	-0.084	-0.087
-367.742	-86.016	-0.379	0.118
-366.727	-3.521	0.198	-0.139
-365.712	-85.236	0.085	-0.027
-364.698	-24.280	-0.287	-0.173
-363.683	-150.530	0.217	-0.017
-362.669	800.000	0.097	0.286
-361.654	-200.000	0.016	0.181
-360.639	744.238	0.084	0.229
-359.625	719.593	0.112	0.300
-358.610	-200.000	-0.027	-0.313
-357.596	800.000	-0.052	0.186
-356.581	-200.000	-0.062	-0.313
-355.566	-115.325	0.255	-0.049
-354.552	-118.605	-0.247	-0.044
-353.537	389.323	0.114	0.239
-352.523	-96.102	-0.384	-0.103
-351.508	-200.000	-0.071	0.336
-350.493	193.934	0.186	0.284
-349.479	-50.852	0.198	-0.094
-348.464	718.322	0.133	-0.357
-347.450	-104.066	-0.175	-0.041
-346.435	670.967	-0.064	-0.168
-345.420	-120.895	-0.193	-0.033
-344.406	-23.789	0.137	0.083
-343.391	-35.527	-0.008	-0.004
-342.377	-200.000	-0.009	0.188
-341.362	278.871	-0.021	-0.038
-340.348	47.580	-0.131	0.123
-339.333	-122.949	-0.551	0.089
-338.318	-66.923	-0.438	-0.174
-337.304	-120.597	-0.146	0.025
-336.289	-129.926	-0.511	-0.071
-335.275	-200.000	0.006	-0.058
-334.260	205.326	0.111	-0.173
-333.245	20.776	0.249	-0.203
-332.231	-200.000	-0.032	0.294
-331.216	800.000	-0.080	-0.229
-330.202	-75.544	-0.243	0.087
-329.187	800.000	0.043	-0.158
-328.172	-74.799	0.232	-0.084
-327.158	-10.815	-0.113	-0.075
-326.143	800.000	0.023	-0.081
-325.129	-88.711	0.226	-0.068
-324.114	-200.000	0.007	-0.163
-323.099	-168.988	-0.318	-0.012
-322.085	205.427	0.253	-0.396
-321.070	800.000	0.061	0.216
-320.056	-44.817	0.271	0.136
-319.041	-200.000	0.005	-0.069
-318.026	78.197	-0.084	-0.091
-317.012	202.161	0.039	0.061
-315.997	12.111	0.124	0.096
-314.983	-109.498	-0.438	0.093
-313.968	-200.000	0.024	-0.214
-312.953	31.758	-0.220	-0.191
-311.939	-1.381	0.144	0.102
-310.924	11.200	0.099	-0.076
-309.910	-49.685	-0.203	0.097
-308.895	-143.037	-0.101	0.010
-307.880	141.436	-0.243	-0.323
-306.866	-56.261	-0.150	0.067
-305.851	800.000	0.067	0.277
-304.837	-146.112	-0.035	-0.003
-303.822	475.905	0.135	-0.308
-302.807	-200.000	-0.018	0.214
-301.793	-131.351	-0.265	-0.035
-300.778	624.900	-0.088	-0.222
-299.764	84.716	0.028	-0.031
-298.749	-117.104	-0.290	-0.053
-297.735	140.867	0.062	0.083
-296.720	-110.086	0.156	0.033
-295.705	186.351	0.173	-0.259
-294.691	-200.000	-0.001	0.072
-293.676	202.652	0.052	0.081
-292.662	55.884	0.166	-0.162
-291.647	-123.839	0.352	0.056
-290.632	800.000	0.052	0.163
-289.618	800.000	-0.075	0.232
-288.603	-29.555	0.213	-0.122
-287.589	-200.000	0.008	-0.129
-286.574	-79.815	-0.091	0.031
-285.559	433.735	-0.020	-0.043
-284.545	76.204	-0.117	0.124
-283.530	-17.112	-0.043	-0.027
-282.516	40.388	-0.027	0.024
-281.501	17.974	0.118	-0.094
-280.486	304.081	0.165	0.308
-279.472	30.750	-0.201	0.173
-278.457	800.000	0.036	0.149
-277.443	20.866	0.193	-0.157
-276.428	46.212	-0.317	0.295
-275.413	-200.000	-0.074	-0.373
-274.399	-175.507	-0.196	0.005
-273.384	-135.056	0.215	0.026
-272.370	-21.313	0.255	-0.156
-271.355	150.703	-0.205	0.280
-270.340	190.018	0.193	-0.291
-269.326	28.859	-0.123	0.105
-268.311	283.884	-0.018	-0.032
-267.297	800.000	-0.042	-0.169
-266.282	-142.187	0.256	-0.025
-265.267	-50.417	0.201	-0.095
-264.253	0.772	-0.318	-0.229
-263.238	-114.545	0.190	-0.037
-262.224	-16.007	-0.115	-0.074
-261.209	-200.000	0.001	-0.164
-260.195	187.884	-0.012	0.019
-259.180	-83.461	-0.289	-0.093
-258.165	-71.127	0.170	-0.064
-257.151	800.000	-0.056	0.194
-256.136	229.434	-0.112	0.183
-255.122	-200.000	0.039	-0.201
-254.107	-200.000	0.028	0.150
-253.092	-35.328	0.257	0.140
-252.078	-123.223	-0.249	0.040
-251.063	-68.190	0.201	0.078
-250.049	131.984	0.146	-0.189
-249.034	-200.000	-0.065	-0.437
-248.019	188.060	0.191	0.286
-247.005	602.527	-0.022	0.055
-245.990	8.273	0.101	-0.076
-244.976	16.339	0.103	-0.081
-243.961	173.469	-0.195	0.282
-242.946	169.241	-0.162	-0.232
-241.932	-81.931	0.116	0.038
-240.917	260.966	0.102	0.176
-239.903	-200.000	-0.027	-0.178
-238.888	-200.000	0.061	-0.359
-237.873	-200.000	0.102	-0.449
-236.859	-200.000	-0.009	-0.125
-235.844	-124.210	-0.309	-0.049
-234.830	-111.270	-0.069	0.014
-233.815	-166.701	0.185	-0.008
-232.800	34.713	-0.133	0.117
-231.786	800.000	0.095	0.384
-230.771	-85.117	0.054	-0.017
-229.757	379.016	0.201	0.413
-228.742	59.940	0.086	0.085
-227.727	-200.000	0.007	-0.125
-226.713	-153.520	-0.039	-0.003
-225.698	-121.518	0.351	-0.059
-224.684	122.515	-0.040	0.050
-223.669	-124.527	-0.167	-0.026
-222.655	800.000	0.018	-0.066
-221.640	-200.000	-0.005	0.224
-220.625	78.563	0.095	-0.102
-219.611	-106.234	-0.137	-0.031
-218.596	-88.235	-0.199	0.060
-217.582	-200.000	0.005	0.053
-216.567	800.000	-0.103	0.309
-215.552	-200.000	-0.020	-0.175
-214.538	46.334	-0.151	-0.140
-213.523	-50.404	0.170	-0.080
-212.509	-200.000	-0.020	-0.215
-211.494	-200.000	-0.046	-0.388
-210.479	171.251	-0.174	-0.250
-209.465	-51.457	-0.103	-0.048
-208.450	-200.000	-0.028	-0.248
-207.436	-200.000	0.022	0.114
-206.421	-32.348	0.315	0.176
-205.406	800.000	-0.086	0.253
-204.392	41.280	0.224	-0.203
-203.377	800.000	-0.132	-0.433
-202.363	-46.333	-0.173	-0.085
-201.348	-54.191	-0.166	-0.075
-200.333	98.244	0.073	0.084
-199.319	128.540	0.124	-0.158
-198.304	224.441	0.219	0.355
-197.290	241.444	0.054	-0.091
-196.275	-200.000	-0.025	0.285
-195.260	800.000	0.050	-0.189
-194.246	-200.000	-0.019	-0.161
-193.231	120.948	-0.165	-0.205
-192.217	134.659	0.078	-0.101
-191.202	155.697	0.212	0.292
-190.187	-200.000	-0.028	0.237
-189.173	-111.929	0.174	-0.035
-188.158	140.183	-0.018	0.024
-187.144	-24.861	0.178	0.106
-186.129	251.307	-0.076	0.129
-185.114	15.331	0.157	0.124
-184.100	31.886	-0.119	-0.103
-183.085	86.532	0.133	-0.146
-182.071	-59.841	0.266	-0.114
-181.056	-70.258	0.309	-0.117
-180.042	-200.000	-0.010	0.191
-179.027	-200.000	-0.033	-0.245
-178.012	-76.753	-0.275	0.096
-176.998	-38.878	0.089	0.047
-175.983	-200.000	-0.028	0.129
-174.969	96.763	0.055	-0.063
-173.954	800.000	0.087	0.347
-172.939	-200.000	-0.022	0.195
-171.925	-70.695	-0.128	-0.048
-170.910	800.000	-0.132	0.374
-169.896	-62.326	-0.323	0.135
-168.881	-200.000	-0.051	-0.354
-167.866	-114.302	-0.149	-0.029
-166.852	800.000	0.086	0.266
-165.837	-200.000	-0.015	-0.335
-164.823	-62.579	0.269	0.112
-163.808	143.117	-0.194	-0.258
-162.793	-35.956	-0.086	0.047
-161.779	495.473	-0.073	0.169
-160.764	-200.000	0.018	0.227
-159.750	327.708	0.071	-0.137
-158.735	77.839	-0.182	-0.194
-157.720	374.581	-0.106	0.217
-156.706	20.585	-0.262	0.212
-155.691	-97.097	0.102	0.027
-154.677	800.000	0.082	0.295
-153.662	-200.000	-0.051	0.306
-152.647	-141.790	-0.142	-0.014
-151.633	-200.000	0.032	-0.190
-150.618	3.646	-0.086	-0.063
-149.604	800.000	0.033	-0.104
-148.589	-78.538	0.217	-0.074
-147.574	115.508	0.130	-0.158
-146.560	-57.279	0.308	-0.136
-145.545	-200.000	-0.050	-0.381
-144.531	-57.308	0.235	-0.103
-143.516	-200.000	0.021	0.104
-142.502	-6.223	-0.088	-0.060
-141.487	-26.679	-0.269	0.157
-140.472	-32.065	-0.279	0.156
-139.458	-62.546	0.338	0.140
-138.443	63.806	0.192	0.192
-137.429	-95.655	0.193	0.052
-136.414	-200.000	-0.005	-0.382
-135.399	-43.181	0.149	0.075
-134.385	86.830	-0.138	-0.152
-133.370	-200.000	0.038	0.185
-132.356	-153.917	-0.213	-0.015
-131.341	800.000	0.108	0.345
-130.326	-169.292	0.170	0.006
-129.312	38.123	0.179	-0.159
-128.297	-91.175	0.126	0.036
-127.283	-21.086	0.120	-0.073
-126.268	115.170	-0.089	-0.108
-125.253	147.460	-0.238	0.320
-124.239	-200.000	0.028	-0.133
-123.224	-66.532	-0.202	0.080
-122.210	125.636	-0.078	0.098
-121.195	-150.802	0.214	-0.016
-120.180	359.365	0.103	0.205
-119.166	226.826	0.184	-0.299
-118.151	-7.982	0.175	0.118
-117.137	-92.248	0.238	0.067
-116.122	31.094	0.167	-0.143
-115.107	-19.636	0.043	-0.027
-114.093	-200.000	0.020	0.253
-113.078	-104.134	0.332	0.077
-112.064	-34.680	-0.276	0.151
-111.049	-200.000	0.015	0.084
-110.034	7.364	-0.227	0.170
-109.020	-116.853	-0.460	-0.084
-108.005	-91.775	0.148	-0.042
-106.991	-100.449	0.040	-0.010
-105.976	-32.479	0.180	-0.100
-104.962	-156.933	0.272	-0.017
-103.947	32.670	-0.295	-0.255
-102.932	-46.311	0.364	0.178
-101.918	-200.000	0.018	0.099
-100.903	-135.204	-0.233	-0.028
-99.889	-162.050	0.165	-0.008
-98.874	-84.366	0.014	0.004
-97.859	-200.000	0.097	-0.450
-96.845	-19.238	0.162	-0.100
-95.830	103.065	0.080	0.094
-94.816	-53.190	0.136	0.062
-93.801	-152.055	-0.145	0.011
-92.786	800.000	-0.066	-0.265
-91.772	560.375	-0.172	0.414
-90.757	122.843	-0.131	0.164
-89.743	-55.231	0.329	-0.148
-88.728	15.600	-0.155	0.122
-87.713	-200.000	0.032	0.154
-86.699	172.402	0.148	-0.213
-85.684	141.009	0.053	0.070
-84.670	162.858	0.021	0.029
-83.655	-30.480	-0.232	-0.131
-82.640	75.307	0.200	-0.210
-81.626	-200.000	0.011	-0.312
-80.611	159.149	0.082	0.113
-79.597	104.854	0.030	-0.035
-78.582	-5.744	0.349	-0.238
-77.567	42.532	-0.337	-0.306
-76.553	-53.450	-0.313	-0.143
-75.538	-47.717	-0.230	0.111
-74.524	-200.000	-0.022	0.353
-73.509	-60.542	0.377	0.159
-72.494	-78.427	-0.156	0.053
-71.480	301.769	-0.106	-0.195
-70.465	-200.000	-0.021	0.292
-69.451	6.622	-0.039	-0.029
-68.436	-200.000	0.003	-0.145
-67.422	510.626	-0.079	-0.183
-66.407	64.939	0.300	-0.302
-65.392	-71.547	0.132	0.049
-64.378	394.613	0.128	0.266
-63.363	59.253	0.094	-0.092
-62.349	-200.000	-0.024	-0.261
-61.334	-5.921	-0.846	-0.577
-60.319	-122.945	0.194	0.031
-59.305	740.816	-0.237	-0.634
-58.290	800.000	0.182	0.618
-57.276	-200.000	0.327	1.661
-56.261	-200.000	77.032	511.988
-55.246	510.017	1336.951	3097.398
-54.232	145.430	2568.639	3426.809
-53.217	116.249	2234.616	2727.667
-52.203	52.234	1681.343	1597.155
-51.188	44.275	1405.749	1285.212
-50.173	40.649	1360.168	1221.227
-49.159	59.197	1395.425	1368.423
-48.144	65.764	1413.748	1427.031
-47.130	44.750	1376.611	1261.316
-46.115	40.658	1360.317	1221.222
-45.100	40.556	1355.687	1216.397
-44.086	40.330	1353.362	1212.873
-43.071	40.419	1350.551	1210.851
-42.057	40.309	1348.445	1208.247
-41.042	40.461	1346.552	1207.428
-40.027	40.526	1345.287	1206.643
-39.013	40.378	1343.358	1203.965
-37.998	40.444	1341.301	1202.472
-36.984	40.509	1339.682	1201.366
-35.969	40.594	1337.985	1200.314
-34.954	40.721	1335.541	1198.840
-33.940	40.564	1334.837	1197.211
-32.925	40.665	1333.313	1196.405
-31.911	40.568	1332.295	1194.859
-30.896	40.688	1330.270	1193.717
-29.881	40.688	1329.036	1192.565
-28.867	40.686	1327.452	1191.083
-27.852	40.657	1326.241	1189.775
-26.838	40.730	1324.180	1188.319
-25.823	40.617	1323.207	1186.722
-24.809	40.783	1321.545	1186.175
-23.794	40.721	1320.164	1184.518
-22.779	40.715	1318.899	1183.299
-21.765	40.646	1317.564	1181.645
-20.750	40.759	1315.897	1180.773
-19.736	40.556	1314.703	1178.448
-18.721	40.428	1313.777	1176.816
-17.706	40.543	1312.352	1176.173
-16.692	40.509	1311.109	1174.809
-15.677	40.465	1310.411	1173.875
-14.663	40.458	1309.330	1172.823
-13.648	40.491	1307.745	1171.551
-12.633	40.492	1307.077	1170.908
-11.619	40.485	1306.278	1170.106
-10.604	40.461	1305.379	1169.116
-9.590	40.450	1304.411	1168.134
-8.575	40.473	1303.160	1167.102
-7.560	40.490	1302.256	1166.351
-6.546	40.435	1301.637	1165.424
-5.531	40.492	1300.922	1165.076
-4.517	40.489	1299.657	1163.876
-3.502	40.491	1299.043	1163.293
-2.487	40.471	1298.053	1162.243
-1.473	40.503	1293.930	1158.695
-0.458	39.270	1278.376	1137.594
0.556	35.165	1257.870	1092.651
1.571	30.829	1261.049	1070.459
2.586	29.355	1276.259	1074.692
3.600	28.055	1265.148	1057.728
4.615	20.351	1187.743	950.899
5.629	8.208	1103.506	821.222
6.644	2.531	1079.399	774.561
7.659	2.090	1076.357	770.085
8.673	1.785	1075.306	767.729
9.688	1.717	1073.344	765.918
10.702	2.065	1072.451	766.962
11.717	8.820	1082.850	808.509
12.731	19.896	1098.901	876.848
13.746	24.914	1105.041	907.164
14.761	25.317	1105.185	909.243
15.775	25.268	1104.977	908.742
16.790	25.011	1103.839	906.425
17.804	24.939	1103.532	905.728
18.819	25.235	1102.548	906.338
19.834	25.306	1102.491	906.569
20.848	25.367	1101.787	906.218
21.863	25.268	1101.218	905.172
22.877	25.101	1100.882	903.972
23.892	25.198	1100.119	903.757
24.907	25.186	1098.964	902.664
25.921	25.213	1098.103	902.014
26.936	25.244	1096.799	901.019
27.950	25.239	1094.758	899.239
28.965	25.117	1092.822	896.958
29.980	25.231	1091.370	896.258
30.994	25.383	1090.608	896.312
32.009	25.336	1089.742	895.282
33.023	25.159	1088.760	893.517
34.038	25.151	1087.947	892.729
35.053	25.287	1087.345	892.834
36.067	25.233	1086.177	891.530
37.082	25.275	1085.542	891.138
38.096	25.533	1085.065	891.945
39.111	25.453	1084.447	890.962
40.126	25.286	1083.010	888.878
41.140	25.056	1081.006	886.016
42.155	24.887	1079.421	883.804
43.169	24.730	1079.089	882.680
44.184	24.829	1078.013	882.208
45.199	24.713	1076.777	880.548
46.213	24.972	1075.430	880.641
47.228	24.978	1075.388	880.562
48.242	24.970	1074.720	879.895
49.257	25.163	1074.247	880.380
50.271	25.206	1073.120	879.585
51.286	25.293	1071.726	878.792
52.301	25.429	1070.888	878.691
53.315	25.256	1070.280	877.271
54.330	25.133	1069.238	875.739
55.344	25.130	1069.052	875.493
56.359	25.208	1067.694	874.685
57.374	24.975	1066.339	872.362
58.388	24.986	1066.025	872.082
59.403	24.855	1065.131	870.638
60.417	24.746	1064.167	869.243
61.432	24.750	1063.954	869.007
62.447	24.963	1062.918	869.119
63.461	24.947	1062.733	868.813
64.476	24.940	1061.032	867.312
65.490	24.921	1060.167	866.438
66.505	24.895	1060.133	866.206
67.520	25.014	1059.250	865.985
68.534	24.692	1058.555	863.782
69.549	24.303	1057.235	860.753
70.563	24.393	1056.685	860.662
71.578	24.481	1055.809	860.300
72.593	24.331	1054.618	858.530
73.607	24.488	1053.472	858.274
74.622	24.772	1053.157	859.309
75.636	24.759	1052.953	859.002
76.651	24.619	1051.620	857.166
77.666	24.370	1051.559	855.846
78.680	24.625	1050.534	856.158
79.695	24.766	1049.731	856.102
80.709	24.880	1048.725	855.753
81.724	24.730	1048.201	854.534
82.739	24.784	1048.045	854.590
83.753	25.242	1047.275	856.071
84.768	25.455	1046.887	856.693
85.782	25.611	1045.769	856.448
86.797	25.597	1044.830	855.533
87.812	25.308	1043.810	853.252
88.826	25.487	1042.622	853.055
89.841	25.419	1041.949	852.104
90.855	25.432	1041.318	851.573
91.870	25.491	1039.831	850.561
92.884	25.296	1038.844	848.759
93.899	25.268	1037.663	847.584
94.914	25.515	1036.798	847.968
95.928	25.375	1035.923	846.521
96.943	25.105	1034.552	844.052
97.957	24.795	1033.584	841.728
98.972	24.613	1032.342	839.788
99.987	24.989	1031.557	840.839
101.001	25.343	1030.851	841.853
102.016	25.145	1030.306	840.406
103.030	25.131	1029.365	839.496
104.045	24.837	1028.416	837.274
105.060	24.723	1027.269	835.732
106.074	24.932	1026.494	836.002
107.089	25.236	1026.268	837.165
108.103	25.221	1024.919	835.922
109.118	24.903	1023.557	833.255
110.133	24.869	1022.765	832.379
111.147	24.919	1021.382	831.411
112.162	24.604	1020.850	829.443
113.176	24.890	1020.002	830.005
114.191	24.820	1019.200	828.955
115.206	24.473	1017.882	826.204
116.220	24.359	1017.427	825.238
117.235	24.735	1016.127	825.844
118.249	24.534	1015.579	824.398
119.264	24.566	1014.595	823.674
120.279	24.525	1014.059	822.980
121.293	24.532	1013.293	822.313
122.308	24.692	1011.924	821.868
123.322	24.591	1010.877	820.482
124.337	24.499	1009.770	819.085
125.352	23.870	1008.539	815.132
126.366	23.805	1007.264	813.734
127.381	24.632	1007.376	817.536
128.395	25.117	1007.045	819.413
129.410	25.267	1005.863	819.062
130.424	25.183	1005.276	818.130
131.439	25.166	1004.100	817.024
132.454	25.159	1003.248	816.225
133.468	25.082	1002.023	814.808
134.483	25.175	1001.932	815.082
135.497	25.437	1000.600	815.115
136.512	25.446	1000.111	814.686
137.527	25.515	999.074	814.084
138.541	25.381	998.562	812.987
139.556	25.504	998.007	813.022
140.570	25.537	997.108	812.363
141.585	25.551	996.185	811.606
142.600	25.536	995.008	810.506
143.614	25.643	994.175	810.237
144.629	25.799	993.478	810.298
145.643	25.592	992.396	808.416
146.658	25.344	990.959	806.058
147.673	25.419	989.636	805.246
148.687	25.189	988.914	803.558
149.702	25.102	987.668	802.086
150.716	25.103	987.029	801.499
151.731	25.409	986.221	802.141
152.746	25.368	986.060	801.754
153.760	25.526	985.365	801.824
154.775	25.581	984.607	801.384
155.789	25.452	984.058	800.288
156.804	25.596	982.666	799.730
157.819	25.643	981.754	799.122
158.833	25.683	981.769	799.241
159.848	25.724	980.419	798.253
160.862	25.455	979.363	796.132
161.877	25.557	978.277	795.633
162.892	25.542	977.698	795.023
163.906	25.511	975.928	793.374
164.921	25.474	975.277	792.614
165.935	25.597	974.296	792.290
166.950	25.707	973.370	791.951
167.964	25.645	972.554	790.944
168.979	25.549	971.362	789.480
169.994	25.333	970.661	787.896
171.008	25.599	970.052	788.497
172.023	25.684	969.245	788.145
173.037	25.461	968.243	786.282
174.052	25.264	967.386	784.655
175.067	25.250	966.906	784.137
176.081	25.442	966.237	784.364
177.096	25.218	965.810	782.969
178.110	25.134	964.422	781.407
179.125	24.833	963.826	779.545
180.140	24.936	963.366	779.551
181.154	25.042	963.357	779.939
182.169	25.388	963.039	781.115
183.183	25.487	962.856	781.331
184.198	25.409	961.834	780.092
185.213	25.353	960.898	779.022
186.227	25.544	960.136	779.163
187.242	25.602	959.340	778.699
188.256	25.551	958.717	777.902
189.271	25.633	958.344	777.884
190.286	25.298	956.885	775.185
191.300	24.790	954.934	771.347
192.315	23.902	953.742	766.493
193.329	23.890	953.355	766.063
194.344	24.791	953.775	770.211
195.359	25.483	953.803	773.144
196.373	25.544	953.021	772.705
197.388	25.292	952.861	771.422
198.402	25.458	951.954	771.335
199.417	25.394	951.675	770.764
200.432	25.304	950.318	769.211
201.446	25.065	949.917	767.796
202.461	25.035	949.534	767.290
203.475	24.268	947.409	762.227
204.490	23.388	945.751	757.069
205.504	24.299	946.427	761.434
206.519	24.974	946.186	764.050
207.534	25.172	945.517	764.289
208.548	25.481	946.034	765.957
209.563	25.287	944.516	763.833
210.577	25.290	944.033	763.388
211.592	25.696	943.843	764.895
212.607	25.734	942.590	763.971
213.621	25.585	942.222	762.974
214.636	25.695	941.341	762.658
215.650	25.563	940.637	761.461
216.665	25.617	940.215	761.281
217.680	25.558	939.511	760.392
218.694	25.116	938.278	757.460
219.709	25.046	937.552	756.515
220.723	25.287	937.384	757.329
221.738	25.450	936.440	757.186
222.753	25.438	935.878	756.613
223.767	25.547	935.684	756.847
224.782	25.729	935.333	757.263
225.796	25.680	934.989	756.710
226.811	25.023	933.247	752.477
227.826	24.338	932.037	748.559
228.840	24.562	931.685	749.151
229.855	24.791	930.582	749.157
230.869	24.296	929.737	746.340
231.884	24.638	929.923	747.855
232.899	25.475	929.871	751.247
233.913	25.469	928.965	750.425
234.928	25.192	928.884	749.135
235.942	25.237	927.861	748.430
236.957	25.008	926.990	746.709
237.972	24.962	926.600	746.134
238.986	25.026	925.897	745.772
240.001	25.132	925.019	745.438
241.015	25.210	925.023	745.701
242.030	25.356	924.246	745.615
243.045	25.342	924.276	745.512
244.059	25.539	923.575	745.697
245.074	25.391	922.500	744.154
246.088	25.063	921.525	741.942
247.103	25.227	921.459	742.501
248.117	25.808	921.493	744.867
249.132	26.179	920.964	745.907
250.147	26.180	920.383	745.373
251.161	26.336	920.270	745.860
252.176	26.128	920.134	744.824
253.190	26.326	919.040	744.690
254.205	26.567	918.467	745.153
255.220	26.492	917.740	744.190
256.234	26.326	917.061	742.889
257.249	26.261	916.525	742.123
258.263	26.186	915.866	741.215
259.278	26.366	914.749	740.982
260.293	26.341	914.687	740.764
261.307	26.199	914.015	739.573
262.322	26.162	912.699	738.292
263.336	25.301	911.042	733.370
264.351	24.345	909.025	727.782
265.366	24.449	908.607	727.810
266.380	25.465	909.488	732.594
267.395	25.994	908.951	734.250
268.409	25.849	908.307	733.077
269.424	26.087	908.226	733.914
270.439	26.172	907.322	733.466
271.453	26.248	906.695	733.201
272.468	26.301	906.188	732.941
273.482	26.445	905.843	733.182
274.497	25.959	904.649	730.180
275.512	25.604	903.672	727.890
276.526	26.082	903.825	729.883
277.541	26.237	903.359	730.070
278.555	25.911	902.783	728.226
279.570	25.810	902.096	727.198
280.585	25.913	901.921	727.406
281.599	26.055	900.346	726.645
282.614	25.352	899.027	722.688
283.628	25.333	898.701	722.283
284.643	25.696	898.353	723.400
285.657	25.481	897.006	721.391
286.672	25.149	896.086	719.257
287.687	25.652	896.567	721.593
288.701	25.698	895.853	721.141
289.716	25.275	894.951	718.657
290.730	25.300	894.513	718.340
291.745	25.134	893.068	716.454
292.760	25.473	892.922	717.629
293.774	26.238	894.102	721.571
294.789	26.649	893.505	722.665
295.803	26.639	893.192	722.306
296.818	26.906	891.689	722.093
297.833	26.241	891.154	718.950
298.847	26.055	890.404	717.540
299.862	26.501	890.111	719.015
300.876	26.656	889.725	719.254
301.891	26.666	888.627	718.343
302.906	26.307	888.041	716.380
303.920	26.131	888.023	715.607
304.935	26.608	887.782	717.240
305.949	26.509	887.078	716.215
306.964	26.304	886.108	714.557
307.979	26.469	885.503	714.658
308.993	26.714	885.654	715.685
310.008	26.675	884.606	714.621
311.022	26.475	884.165	713.412
312.037	26.421	883.260	712.408
313.052	26.132	882.388	710.504
314.066	25.286	880.985	705.985
315.081	24.820	880.478	703.682
316.095	25.797	880.620	707.574
317.110	26.418	880.037	709.483
318.125	25.456	878.901	704.730
319.139	24.430	877.155	699.250
320.154	24.448	876.954	699.101
321.168	25.243	877.330	702.452
322.183	26.029	877.706	705.768
323.197	26.063	877.083	705.334
324.212	26.320	876.522	705.826
325.227	26.492	875.944	705.970
326.241	26.160	875.625	704.353
327.256	26.145	874.719	703.507
328.270	26.158	874.041	702.950
329.285	25.795	873.171	700.773
330.300	25.561	872.484	699.250
331.314	25.899	872.013	700.124
332.329	26.407	871.871	701.923
333.343	26.515	871.942	702.335
334.358	26.597	871.034	701.859
335.373	26.502	870.736	701.191
336.387	26.751	870.978	702.287
337.402	26.947	870.848	702.879
338.416	26.927	870.143	702.170
339.431	27.036	869.603	702.095
340.446	27.315	869.356	702.911
341.460	26.969	869.111	701.314
342.475	26.756	868.314	699.788
343.489	26.983	868.089	700.420
344.504	27.291	867.514	701.082
345.519	27.263	867.664	701.032
346.533	27.448	867.160	701.277
347.548	27.431	866.399	700.532
348.562	27.369	865.730	699.691
349.577	27.154	865.077	698.276
350.592	27.060	864.764	697.601
351.606	27.197	863.847	697.326
352.621	27.207	862.862	696.508
353.635	27.155	862.222	695.729
354.650	26.601	860.294	691.994
355.665	25.307	859.325	686.212
356.679	25.845	859.137	688.056
357.694	26.368	858.461	689.450
358.708	26.294	857.605	688.420
359.723	26.716	857.943	690.238
360.738	26.899	857.447	690.474
361.752	27.023	857.376	690.828
362.767	27.254	856.978	691.322
363.781	27.571	856.522	692.098
364.796	27.837	856.151	692.745
365.810	27.727	855.975	692.125
366.825	27.850	854.951	691.704
367.840	27.630	854.120	690.137
368.854	26.964	853.289	686.883
369.869	27.097	852.742	686.887
370.883	26.950	852.821	686.332
371.898	26.946	852.052	685.637
372.913	27.112	851.678	685.901
373.927	27.034	851.707	685.572
374.942	27.198	851.262	685.773
375.956	27.422	850.509	685.947
376.971	27.463	850.554	686.079
377.986	27.671	850.065	686.407
379.000	27.435	849.435	684.950
380.015	27.344	848.682	683.940
381.029	27.594	847.554	683.907
382.044	27.587	847.894	684.097
383.059	27.766	847.087	684.055
384.073	27.688	846.339	683.097
385.088	27.721	845.789	682.718
386.102	27.283	844.959	680.348
387.117	27.374	844.273	680.077
388.132	26.990	843.013	677.567
389.146	26.568	842.146	675.240
390.161	26.797	842.450	676.277
391.175	27.483	842.309	678.662
392.190	27.252	841.036	676.717
393.205	25.680	838.694	668.935
394.219	24.083	836.881	661.499
395.234	24.003	836.682	660.986
396.248	25.614	838.226	668.136
397.263	27.092	839.408	674.512
398.278	27.271	838.588	674.459
399.292	26.858	837.841	672.267
400.307	26.842	837.751	672.075
401.321	27.201	836.755	672.545
402.336	27.431	836.707	673.298
403.350	27.717	837.125	674.633
404.365	28.013	836.696	675.320
405.380	28.378	836.292	676.283
406.394	28.367	835.763	675.755
407.409	28.478	835.387	675.799
408.423	28.388	834.719	674.869
409.438	28.415	834.411	674.659
410.453	28.368	834.449	674.458
411.467	28.360	833.765	673.815
412.482	28.415	833.226	673.523
413.496	28.478	832.769	673.326
414.511	28.356	832.553	672.644
415.526	28.258	832.441	672.132
416.540	28.327	831.227	671.347
417.555	27.898	830.586	669.199
418.569	28.066	829.964	669.251
419.584	28.093	829.620	669.013
420.599	27.822	829.174	667.604
421.613	95.209	1266.649	1378.737
422.628	82.298	1330.428	1378.878
