DTS Sentinel unit serial number:	SN413079Multiplexer serial number:	ORYXHardware model number:	OX4-SRSoftware version number:	ORYX F/W v4.00 Oryx Data Collector v3.7.2.0data status	okinstallation	princeton_trtdifferential loss correction	single-endedforward channel	channel 1reverse channel	N/Adate	2019/09/19time	06:34:35forward acquisition time	60.00reverse acquisition time	0.00gamma	496.2192k internal	0.2343k external	0.2343temperature offset calibration	1.0018default loss term (dB/km)	0.3790temperature slope calibration	1.0000multiplexer offset coefficient	1.0000multiplexer slope coefficient	1.0000fibre end	0.00T internal ref (°C)	19.02T ext. ref 1 (°C)	0.56T ext. ref 2 (°C)	12.81length (m)	temperature (°C)	Stokes	anti-Stokes-747.200	-130.790	0.265	-0.036
-746.185	-200.000	-0.054	0.268
-745.171	-200.000	0.043	0.379
-744.156	-6.347	-0.137	0.093
-743.142	-26.943	0.383	0.224
-742.127	132.587	0.168	0.216
-741.112	-200.000	0.109	0.489
-740.098	-172.207	-0.198	-0.006
-739.083	-97.077	0.206	-0.054
-738.069	-70.075	-0.191	0.073
-737.054	-116.268	0.115	-0.021
-736.039	-43.799	-0.317	-0.160
-735.025	-48.254	0.182	0.088
-734.010	800.000	0.083	-0.237
-732.996	-10.511	0.094	-0.063
-731.981	290.978	-0.048	0.087
-730.966	-200.000	-0.018	-0.161
-729.952	-122.332	-0.346	0.056
-728.937	800.000	-0.027	0.094
-727.923	800.000	-0.078	-0.233
-726.908	264.230	0.171	-0.298
-725.894	-200.000	0.044	-0.356
-724.879	282.804	0.145	-0.260
-723.864	257.132	0.108	-0.185
-722.850	-42.150	0.054	-0.027
-721.835	-200.000	-0.014	0.163
-720.821	-13.366	-0.045	0.029
-719.806	616.878	0.168	-0.422
-718.791	-33.219	0.135	-0.075
-717.777	8.228	0.115	0.086
-716.762	-200.000	-0.031	-0.330
-715.748	-57.378	0.178	0.078
-714.733	800.000	0.040	-0.141
-713.718	-81.763	0.261	-0.086
-712.704	-40.702	-0.104	0.054
-711.689	23.277	-0.074	0.060
-710.675	37.591	0.188	-0.167
-709.660	-131.625	0.277	0.036
-708.645	-163.721	-0.176	-0.008
-707.631	-200.000	-0.017	-0.178
-706.616	11.149	0.152	0.116
-705.602	-200.000	0.082	-0.569
-704.587	267.689	-0.124	-0.217
-703.572	623.876	0.151	0.380
-702.558	19.406	0.113	0.091
-701.543	-200.000	-0.010	-0.116
-700.529	-200.000	0.010	0.225
-699.514	-50.302	0.150	-0.071
-698.499	-31.521	0.394	-0.221
-697.485	-200.000	-0.026	-0.221
-696.470	-168.572	0.335	-0.013
-695.456	64.079	-0.090	-0.091
-694.441	-200.000	-0.029	0.225
-693.426	398.169	0.103	0.216
-692.412	32.588	0.044	-0.038
-691.397	241.064	0.084	-0.140
-690.383	126.119	-0.157	-0.199
-689.368	83.150	0.123	-0.134
-688.354	-45.617	0.289	-0.143
-687.339	-44.241	-0.212	0.106
-686.324	-148.821	0.183	-0.015
-685.310	1.483	0.155	-0.111
-684.295	497.726	0.043	0.100
-683.281	391.788	0.018	-0.037
-682.266	795.816	-0.026	0.071
-681.251	800.000	-0.108	0.311
-680.237	53.979	0.233	-0.224
-679.222	-69.226	-0.197	0.076
-678.208	262.521	0.088	0.153
-677.193	116.570	0.148	-0.181
-676.178	186.995	-0.220	-0.327
-675.164	-62.141	0.224	-0.093
-674.149	-15.750	0.135	-0.086
-673.135	250.375	0.058	0.099
-672.120	219.361	-0.074	-0.118
-671.105	800.000	-0.068	-0.208
-670.091	-63.907	0.255	-0.104
-669.076	73.244	-0.015	0.016
-668.062	74.793	-0.062	-0.065
-667.047	-197.692	0.240	-0.001
-666.032	57.734	0.160	-0.156
-665.018	155.754	0.058	-0.079
-664.003	623.868	0.018	0.046
-662.989	-200.000	0.007	0.061
-661.974	-30.747	0.094	0.053
-660.959	-39.065	-0.256	-0.134
-659.945	-171.182	-0.204	0.007
-658.930	41.195	0.125	-0.113
-657.916	103.722	0.116	0.135
-656.901	-170.716	-0.277	0.010
-655.886	-67.722	0.387	-0.151
-654.872	800.000	0.083	0.250
-653.857	147.340	0.131	-0.176
-652.843	112.386	-0.200	-0.242
-651.828	412.628	0.102	0.216
-650.814	-136.021	0.202	-0.024
-649.799	-114.456	0.269	-0.052
-648.784	-116.839	-0.116	-0.021
-647.770	10.970	0.081	0.062
-646.755	-200.000	-0.018	0.094
-645.741	660.644	0.073	-0.189
-644.726	-4.637	0.069	-0.048
-643.711	23.326	-0.005	0.004
-642.697	253.520	-0.070	-0.119
-641.682	144.173	0.107	0.142
-640.668	-200.000	-0.056	0.267
-639.653	41.944	0.041	0.037
-638.638	-200.000	0.002	0.093
-637.624	54.432	0.160	-0.154
-636.609	-161.008	-0.216	0.011
-635.595	-200.000	0.127	-0.578
-634.580	-200.000	-0.014	0.164
-633.565	-200.000	0.018	-0.265
-632.551	-116.696	-0.213	0.039
-631.536	-125.773	-0.174	-0.026
-630.522	717.368	-0.033	0.086
-629.507	800.000	0.059	0.209
-628.492	151.691	0.057	0.078
-627.478	-136.667	0.238	-0.027
-626.463	12.638	0.139	0.107
-625.449	70.882	-0.070	-0.072
-624.434	-114.788	0.176	0.033
-623.419	800.000	0.064	0.226
-622.405	-0.715	-0.449	-0.317
-621.390	-31.669	-0.091	0.051
-620.376	135.982	0.078	0.101
-619.361	224.981	-0.211	-0.339
-618.346	-30.865	-0.080	-0.045
-617.332	800.000	-0.033	0.136
-616.317	-85.208	-0.249	-0.077
-615.303	-168.970	-0.220	0.008
-614.288	-49.961	0.163	0.077
-613.273	437.963	-0.161	-0.349
-612.259	800.000	-0.023	-0.071
-611.244	-76.708	0.249	-0.087
-610.230	-99.037	-0.358	-0.090
-609.215	39.316	0.135	-0.120
-608.201	-101.293	-0.147	0.036
-607.186	40.642	0.109	-0.098
-606.171	553.588	0.081	0.195
-605.157	143.797	-0.259	0.344
-604.142	-3.471	-0.273	0.190
-603.128	-200.000	-0.001	-0.087
-602.113	800.000	0.061	-0.246
-601.098	2.978	0.340	0.246
-600.084	-44.305	-0.300	0.150
-599.069	60.646	0.149	-0.147
-598.055	-57.402	0.265	0.116
-597.040	30.014	-0.176	-0.149
-596.025	40.687	0.165	0.149
-595.011	-200.000	-0.025	0.478
-593.996	-30.973	0.117	0.066
-592.982	-200.000	-0.068	0.303
-591.967	-200.000	0.035	-0.165
-590.952	-181.378	0.130	0.003
-589.938	-28.944	-0.187	0.107
-588.923	13.292	-0.039	0.030
-587.909	-119.245	-0.327	0.057
-586.894	-200.000	-0.117	0.523
-585.879	-57.227	0.106	0.046
-584.865	800.000	-0.056	-0.210
-583.850	-84.335	-0.183	0.057
-582.836	376.145	-0.081	-0.164
-581.821	83.096	0.191	-0.207
-580.806	-130.184	0.174	0.024
-579.792	444.312	0.095	-0.207
-578.777	144.476	0.194	0.258
-577.763	112.735	0.218	0.263
-576.748	-91.033	0.164	0.047
-575.733	348.609	0.183	0.360
-574.719	-7.912	0.152	0.102
-573.704	800.000	0.100	0.362
-572.690	-164.241	-0.169	0.008
-571.675	-65.535	0.108	-0.043
-570.661	319.911	-0.064	0.120
-569.646	472.483	0.136	0.305
-568.631	17.370	-0.025	-0.019
-567.617	687.271	0.078	-0.202
-566.602	218.632	0.184	-0.292
-565.588	-53.737	-0.275	-0.125
-564.573	45.048	-0.050	0.046
-563.558	-127.655	0.158	-0.023
-562.544	-104.985	-0.121	-0.028
-561.529	-42.698	0.332	0.168
-560.515	58.690	0.134	0.130
-559.500	-55.442	-0.051	-0.023
-558.485	93.045	0.066	0.074
-557.471	216.443	0.203	0.321
-556.456	-52.885	0.449	-0.206
-555.442	-127.196	-0.131	0.019
-554.427	-188.275	0.022	-0.000
-553.412	-17.135	-0.252	-0.158
-552.398	269.383	-0.023	0.040
-551.383	800.000	0.135	-0.413
-550.369	-63.416	0.209	0.085
-549.354	-200.000	0.016	-0.122
-548.339	324.623	0.179	0.340
-547.325	-50.860	-0.007	0.003
-546.310	145.238	0.120	0.160
-545.296	285.853	-0.069	-0.124
-544.281	570.675	0.065	0.158
-543.266	-6.235	0.297	0.201
-542.252	170.312	0.158	0.225
-541.237	-200.000	-0.084	-0.557
-540.223	-200.000	-0.006	-0.275
-539.208	62.947	-0.089	0.089
-538.193	641.406	0.074	0.188
-537.179	-70.491	-0.279	0.105
-536.164	-101.210	-0.302	-0.073
-535.150	71.871	-0.192	0.199
-534.135	-200.000	-0.124	0.738
-533.121	181.313	-0.105	0.154
-532.106	84.225	0.157	-0.171
-531.091	800.000	-0.100	-0.342
-530.077	-2.497	0.169	-0.118
-529.062	-22.871	-0.162	0.097
-528.048	-23.468	-0.058	0.034
-527.033	44.643	-0.078	-0.071
-526.018	147.725	0.067	-0.089
-525.004	-11.517	0.091	-0.059
-523.989	445.836	-0.190	0.414
-522.975	-144.102	-0.295	-0.027
-521.960	-200.000	-0.000	-0.314
-520.945	313.565	-0.143	-0.267
-519.931	-138.414	0.331	-0.036
-518.916	-78.766	0.197	0.067
-517.902	29.473	0.231	-0.195
-516.887	3.257	0.295	-0.213
-515.872	800.000	-0.074	-0.239
-514.858	514.404	-0.142	0.328
-513.843	29.311	-0.084	-0.071
-512.829	-67.542	0.285	0.111
-511.814	29.684	0.096	0.081
-510.799	-20.621	0.095	-0.058
-509.785	-183.092	-0.187	0.003
-508.770	-13.549	-0.209	-0.134
-507.756	-10.258	0.137	-0.090
-506.741	-89.868	-0.144	0.042
-505.726	47.213	-0.368	0.340
-504.712	-160.893	-0.174	0.009
-503.697	800.000	-0.055	-0.206
-502.683	-200.000	0.012	-0.083
-501.668	-63.096	-0.140	0.057
-500.653	-53.279	-0.178	0.081
-499.639	800.000	-0.106	-0.335
-498.624	-85.304	0.194	-0.060
-497.610	-200.000	-0.006	0.422
-496.595	44.256	-0.293	0.266
-495.581	-6.275	-0.244	-0.165
-494.566	134.458	-0.168	-0.216
-493.551	45.465	-0.117	0.107
-492.537	-27.266	-0.251	0.145
-491.522	-82.986	-0.239	-0.076
-490.508	-160.325	-0.258	-0.014
-489.493	-124.799	0.234	0.036
-488.478	-200.000	-0.031	-0.205
-487.464	800.000	-0.064	-0.241
-486.449	-50.361	0.160	0.075
-485.435	800.000	-0.189	0.661
-484.420	43.781	0.270	-0.245
-483.405	-13.989	0.250	0.160
-482.391	-200.000	-0.002	0.290
-481.376	-100.726	0.110	-0.027
-480.362	706.934	-0.040	0.105
-479.347	-200.000	0.043	-0.206
-478.332	786.159	-0.108	-0.293
-477.318	511.915	-0.207	0.478
-476.303	-90.332	0.121	-0.035
-475.289	20.349	0.111	-0.088
-474.274	3.817	-0.295	0.213
-473.259	-53.531	0.081	0.037
-472.245	800.000	0.038	0.105
-471.230	27.391	0.360	-0.300
-470.216	-166.267	0.313	0.013
-469.201	76.386	-0.369	-0.388
-468.186	-114.272	0.250	0.048
-467.172	-200.000	-0.010	-0.165
-466.157	-67.772	-0.335	-0.130
-465.143	-25.588	0.212	-0.124
-464.128	-66.127	0.265	-0.105
-463.113	-19.491	-0.146	0.090
-462.099	121.221	-0.234	0.289
-461.084	800.000	-0.042	0.158
-460.070	-200.000	0.010	-0.138
-459.055	622.732	0.021	-0.053
-458.040	140.776	-0.023	0.031
-457.026	800.000	0.027	-0.098
-456.011	-102.434	-0.274	-0.065
-454.997	-87.904	0.160	-0.048
-453.982	-78.306	-0.290	-0.099
-452.968	179.198	0.088	0.128
-451.953	227.413	0.091	0.146
-450.938	-157.534	0.277	-0.016
-449.924	-57.522	-0.108	-0.047
-448.909	-166.648	-0.127	0.005
-447.895	274.063	-0.069	-0.122
-446.880	-102.778	-0.267	-0.063
-445.865	-153.690	0.209	-0.014
-444.851	61.282	-0.121	0.119
-443.836	50.865	-0.139	0.130
-442.822	31.462	0.175	0.149
-441.807	-200.000	-0.001	-0.157
-440.792	164.875	0.072	0.101
-439.778	-133.309	-0.261	-0.032
-438.763	-8.609	-0.103	-0.068
-437.749	77.340	0.282	-0.297
-436.734	-128.801	-0.504	-0.070
-435.719	-200.000	-0.019	-0.109
-434.705	-199.462	0.149	0.001
-433.690	-109.394	-0.124	0.026
-432.676	-200.000	0.021	0.143
-431.661	408.324	-0.094	-0.197
-430.646	-92.261	0.203	-0.057
-429.632	-200.000	0.006	0.059
-428.617	-99.255	0.288	0.072
-427.603	800.000	-0.022	-0.063
-426.588	-111.245	0.265	0.053
-425.573	281.181	0.025	0.044
-424.559	800.000	0.035	0.116
-423.544	-46.714	-0.376	-0.182
-422.530	-139.733	-0.175	0.018
-421.515	-102.682	0.293	-0.069
-420.500	603.861	-0.092	0.226
-419.486	-37.175	0.266	0.141
-418.471	-81.710	0.229	-0.074
-417.457	-87.952	0.230	0.068
-416.442	330.537	-0.058	0.110
-415.428	10.165	-0.092	0.069
-414.413	-73.798	-0.191	0.069
-413.398	-200.000	-0.045	0.226
-412.384	195.384	0.139	0.209
-411.369	49.297	0.108	0.100
-410.355	99.432	-0.033	0.037
-409.340	-36.199	-0.029	-0.016
-408.325	-154.528	-0.286	0.019
-407.311	-56.050	-0.230	-0.101
-406.296	266.690	-0.089	0.153
-405.282	-200.000	-0.002	0.083
-404.267	800.000	0.033	-0.125
-403.252	54.033	0.112	-0.106
-402.238	24.751	-0.446	0.365
-401.223	800.000	-0.156	0.487
-400.209	89.755	-0.334	0.368
-399.194	-200.000	-0.007	0.130
-398.179	-96.492	-0.371	-0.097
-397.165	-34.074	-0.225	0.122
-396.150	30.493	-0.070	0.059
-395.136	-16.556	0.100	0.062
-394.121	-168.090	0.383	0.015
-393.106	-200.000	0.014	-0.306
-392.092	-127.187	-0.189	0.027
-391.077	-5.138	-0.048	0.033
-390.063	-200.000	-0.015	-0.086
-389.048	669.564	0.207	0.529
-388.033	139.417	-0.022	-0.029
-387.019	28.755	-0.112	0.094
-386.004	-138.690	-0.022	-0.002
-384.990	29.483	0.080	0.067
-383.975	-200.000	-0.000	0.008
-382.960	-70.520	0.050	-0.019
-381.946	-128.367	0.402	0.056
-380.931	-178.059	0.119	-0.003
-379.917	-200.000	0.036	0.340
-378.902	800.000	0.054	0.172
-377.888	405.685	0.062	0.130
-376.873	-35.803	0.243	0.130
-375.858	800.000	-0.135	0.371
-374.844	-101.420	0.295	0.071
-373.829	800.000	0.039	-0.111
-372.815	68.131	0.078	-0.079
-371.800	-200.000	0.026	-0.297
-370.785	421.793	-0.153	0.325
-369.771	-138.105	0.260	0.029
-368.756	800.000	0.041	0.168
-367.742	-9.741	0.313	-0.206
-366.727	137.721	0.144	0.186
-365.712	74.974	0.081	-0.085
-364.698	417.879	-0.068	-0.144
-363.683	-122.412	0.138	-0.022
-362.669	-59.551	0.051	0.021
-361.654	104.053	-0.187	-0.217
-360.639	-140.463	0.039	0.004
-359.625	21.379	-0.387	-0.310
-358.610	-0.541	0.165	0.116
-357.596	68.156	0.074	0.074
-356.581	431.105	0.133	-0.284
-355.566	24.975	-0.159	0.130
-354.552	4.960	-0.152	0.111
-353.537	-188.070	-0.221	-0.003
-352.523	-200.000	0.050	0.221
-351.508	-200.000	0.013	-0.070
-350.493	-200.000	0.047	-0.222
-349.479	177.030	0.081	-0.116
-348.464	406.009	0.030	0.063
-347.450	294.920	-0.073	0.132
-346.435	703.497	-0.046	0.120
-345.420	-72.747	-0.274	0.099
-344.406	-76.482	0.336	0.116
-343.391	-104.364	-0.175	0.040
-342.377	21.602	-0.153	-0.123
-341.362	-200.000	-0.017	-0.101
-340.348	523.339	-0.106	0.245
-339.333	-200.000	0.006	0.058
-338.318	14.571	-0.345	0.266
-337.304	-82.527	-0.411	-0.132
-336.289	-122.690	0.110	0.018
-335.275	800.000	0.143	0.521
-334.260	-200.000	0.009	0.181
-333.245	-113.614	-0.403	0.078
-332.231	-90.618	-0.073	0.021
-331.216	-93.254	0.245	-0.067
-330.202	45.420	-0.183	-0.166
-329.187	659.963	0.086	-0.219
-328.172	-158.384	0.208	0.012
-327.158	-200.000	-0.481	0.001
-326.143	44.026	0.028	-0.026
-325.129	276.144	0.214	0.374
-324.114	138.749	0.137	0.177
-323.099	36.078	0.196	0.170
-322.085	192.808	-0.203	0.302
-321.070	41.951	-0.125	-0.112
-320.056	93.899	0.226	-0.252
-319.041	-42.278	0.050	0.025
-318.026	-15.301	0.296	0.186
-317.012	-102.866	0.210	-0.049
-315.997	-62.340	-0.215	0.088
-314.983	283.721	0.100	-0.177
-313.968	314.420	0.197	-0.366
-312.953	-200.000	0.006	-0.386
-311.939	717.005	0.057	-0.148
-310.924	800.000	-0.037	0.110
-309.910	263.132	0.123	-0.210
-308.895	800.000	-0.051	0.145
-307.880	-200.000	-0.039	0.208
-306.866	50.394	-0.183	-0.171
-305.851	-114.544	0.307	0.058
-304.837	-59.234	-0.317	0.134
-303.822	36.201	-0.088	-0.076
-302.807	160.061	-0.072	-0.099
-301.793	-200.000	0.004	0.119
-300.778	-89.143	-0.252	0.073
-299.764	353.256	-0.114	-0.222
-298.749	57.790	0.072	0.069
-297.735	-20.155	-0.262	0.159
-296.720	-62.712	-0.137	0.056
-295.705	800.000	0.033	-0.139
-294.691	76.490	0.127	-0.132
-293.676	50.165	-0.324	-0.301
-292.662	49.716	-0.058	0.054
-291.647	-71.602	-0.240	-0.088
-290.632	800.000	-0.069	-0.195
-289.618	-57.713	0.028	0.012
-288.603	144.655	0.250	0.329
-287.589	-67.386	-0.242	0.094
-286.574	51.032	-0.350	-0.326
-285.559	520.085	0.121	-0.279
-284.545	-169.161	0.183	-0.007
-283.530	800.000	-0.078	0.219
-282.516	-55.018	0.261	0.115
-281.501	70.381	0.131	-0.133
-280.486	-126.455	0.331	0.048
-279.472	-133.713	0.341	-0.042
-278.457	-1.446	-0.143	-0.099
-277.443	169.476	0.208	0.292
-276.428	11.835	0.169	0.128
-275.413	-200.000	-0.044	-0.201
-274.399	-200.000	-0.037	-0.262
-273.384	365.533	-0.109	-0.216
-272.370	-50.228	-0.151	-0.070
-271.355	-11.497	-0.249	-0.161
-270.340	-56.836	0.212	0.092
-269.326	-200.000	0.001	-0.191
-268.311	-51.970	0.109	-0.050
-267.297	800.000	0.093	0.363
-266.282	800.000	-0.028	-0.109
-265.267	99.867	-0.032	0.036
-264.253	224.890	-0.110	0.175
-263.238	359.241	0.180	-0.354
-262.224	705.827	0.063	-0.163
-261.209	-9.945	0.065	0.043
-260.195	-34.578	-0.418	-0.225
-259.180	122.684	-0.089	-0.109
-258.165	66.012	0.243	-0.242
-257.151	1.142	0.132	-0.093
-256.136	391.573	-0.161	0.328
-255.122	-8.396	0.043	-0.028
-254.107	265.748	0.082	0.140
-253.092	695.278	0.180	0.465
-252.078	278.311	0.111	-0.194
-251.063	-200.000	-0.056	-0.263
-250.049	-167.112	-0.297	-0.012
-249.034	-200.000	0.041	-0.262
-248.019	97.828	-0.134	0.151
-247.005	-200.000	-0.072	-0.312
-245.990	57.543	-0.021	-0.021
-244.976	-200.000	0.011	0.055
-243.961	-149.468	-0.176	0.014
-242.946	-200.000	-0.015	0.430
-241.932	242.717	0.042	-0.068
-240.917	-82.162	-0.210	-0.067
-239.903	40.547	-0.107	0.095
-238.888	443.180	0.073	-0.158
-237.873	800.000	-0.091	-0.267
-236.859	-200.000	0.005	-0.352
-235.844	28.725	0.188	0.157
-234.830	-148.756	-0.103	0.008
-233.815	800.000	-0.059	-0.215
-232.800	-200.000	0.016	-0.242
-231.786	59.599	-0.217	-0.210
-230.771	752.988	-0.075	0.198
-229.757	293.714	0.118	-0.212
-228.742	-138.688	-0.223	-0.024
-227.727	193.082	-0.095	-0.140
-226.713	-177.768	-0.120	0.003
-225.698	-200.000	0.013	-0.212
-224.684	-143.991	-0.319	0.029
-223.669	428.006	0.086	-0.181
-222.655	-111.250	0.095	-0.019
-221.640	34.794	0.195	0.167
-220.625	-31.725	0.121	0.066
-219.611	3.407	0.185	0.132
-218.596	-60.359	0.328	0.137
-217.582	-31.638	-0.117	0.064
-216.567	89.981	0.238	-0.260
-215.552	45.627	-0.229	0.207
-214.538	-58.723	0.373	-0.158
-213.523	-18.868	-0.078	0.048
-212.509	-167.242	0.127	-0.005
-211.494	800.000	0.021	0.078
-210.479	-200.000	-0.005	-0.101
-209.465	-171.192	0.086	0.003
-208.450	-122.402	-0.196	-0.031
-207.436	143.231	-0.262	-0.342
-206.421	-78.075	0.259	-0.088
-205.406	-200.000	-0.018	-0.119
-204.392	800.000	-0.114	-0.393
-203.377	63.520	-0.127	-0.125
-202.363	-131.423	0.181	-0.023
-201.348	94.618	0.148	-0.164
-200.333	-53.324	0.216	0.097
-199.319	33.549	0.160	-0.136
-198.304	491.036	0.060	-0.134
-197.290	143.854	0.060	0.079
-196.275	488.033	-0.148	0.331
-195.260	300.545	0.129	-0.233
-194.246	57.435	0.223	0.213
-193.231	67.043	-0.189	-0.189
-192.217	800.000	-0.044	-0.170
-191.202	-137.374	0.301	-0.033
-190.187	-111.087	-0.039	0.008
-189.173	38.858	0.084	-0.073
-188.158	234.749	-0.069	0.111
-187.144	215.132	-0.096	0.149
-186.129	-85.884	0.317	0.096
-185.114	-200.000	-0.033	-0.282
-184.100	-200.000	0.064	0.406
-183.085	-200.000	-0.017	-0.115
-182.071	-98.117	0.201	-0.051
-181.056	-191.385	0.287	0.003
-180.042	152.196	0.139	-0.185
-179.027	320.956	0.146	0.272
-178.012	-23.635	0.028	-0.017
-176.998	401.037	0.022	-0.045
-175.983	-200.000	0.042	0.384
-174.969	116.083	0.091	-0.109
-173.954	537.352	0.071	-0.166
-172.939	254.615	-0.139	0.233
-171.925	-103.492	-0.226	-0.052
-170.910	800.000	-0.035	0.141
-169.896	20.859	-0.134	-0.106
-168.881	-143.440	-0.136	-0.013
-167.866	376.459	-0.206	-0.411
-166.852	22.518	0.171	0.137
-165.837	101.364	-0.246	-0.281
-164.823	-26.073	0.196	0.113
-163.808	-115.039	0.235	-0.044
-162.793	394.523	0.079	-0.162
-161.779	80.979	0.123	-0.129
-160.764	-200.000	0.019	-0.318
-159.750	-74.072	-0.142	0.050
-158.735	-76.488	-0.364	0.125
-157.720	-96.192	0.396	0.103
-156.706	48.797	0.229	-0.210
-155.691	670.696	0.040	-0.101
-154.677	-165.293	-0.130	-0.006
-153.662	-200.000	0.018	-0.185
-152.647	-200.000	-0.023	-0.415
-151.633	-200.000	0.042	-0.359
-150.618	-200.000	-0.024	-0.114
-149.604	-64.585	-0.169	-0.067
-148.589	23.340	-0.214	-0.172
-147.574	-200.000	0.011	0.210
-146.560	-197.636	0.152	0.001
-145.545	-93.719	-0.171	-0.046
-144.531	-47.238	-0.164	-0.078
-143.516	-200.000	0.037	0.232
-142.502	40.962	0.182	0.160
-141.487	800.000	-0.072	-0.249
-140.472	-200.000	0.005	0.100
-139.458	46.065	0.332	0.300
-138.443	-200.000	-0.014	-0.203
-137.429	-120.737	0.056	-0.009
-136.414	57.110	0.033	-0.032
-135.399	387.221	0.095	0.192
-134.385	800.000	-0.100	0.293
-133.370	-72.934	-0.379	0.136
-132.356	463.338	0.158	0.345
-131.341	22.241	0.433	0.346
-130.326	-58.797	0.146	-0.062
-129.312	-30.822	-0.190	0.105
-128.297	800.000	0.129	0.370
-127.283	19.409	-0.189	0.148
-126.268	13.820	0.036	-0.027
-125.253	35.748	0.302	0.259
-124.239	57.941	-0.140	-0.134
-123.224	162.767	0.193	0.265
-122.210	-143.471	-0.111	-0.010
-121.195	4.030	-0.262	0.187
-120.180	-58.312	0.367	-0.156
-119.166	800.000	-0.022	-0.071
-118.151	-200.000	-0.041	-0.252
-117.137	136.242	-0.207	0.264
-116.122	109.642	-0.058	0.068
-115.107	-200.000	-0.057	0.312
-114.093	326.802	0.112	0.209
-113.078	96.675	-0.197	-0.220
-112.064	-5.033	-0.230	0.154
-111.049	213.468	0.126	0.194
-110.034	-66.425	-0.263	-0.102
-109.020	-47.794	-0.219	-0.104
-108.005	3.293	0.282	0.200
-106.991	-56.226	-0.222	0.097
-105.976	-73.387	0.288	0.103
-104.962	-110.728	-0.159	-0.032
-103.947	-30.689	0.210	0.116
-102.932	129.016	0.075	0.094
-101.918	800.000	-0.094	0.340
-100.903	-200.000	-0.010	0.096
-99.889	-200.000	-0.014	0.144
-98.874	132.095	-0.159	-0.200
-97.859	-108.237	-0.173	-0.037
-96.845	-200.000	-0.001	-0.189
-95.830	-35.446	0.027	0.014
-94.816	139.357	-0.145	0.186
-93.801	800.000	-0.050	0.141
-92.786	-111.065	0.286	0.057
-91.772	20.955	-0.218	-0.173
-90.757	50.389	0.173	0.160
-89.743	-122.745	-0.201	0.032
-88.728	641.189	0.085	0.211
-87.713	55.042	0.135	0.128
-86.699	-93.816	-0.364	-0.098
-85.684	800.000	0.012	0.045
-84.670	-7.666	0.163	-0.107
-83.655	800.000	-0.037	0.119
-82.640	296.350	0.205	-0.367
-81.626	-72.776	0.319	-0.115
-80.611	158.167	-0.147	0.198
-79.597	174.584	0.157	-0.221
-78.582	-117.952	-0.189	0.033
-77.567	-163.313	0.131	0.006
-76.553	-63.729	-0.177	0.071
-75.538	-108.168	0.182	0.038
-74.524	58.964	-0.127	-0.121
-73.509	202.872	0.234	-0.352
-72.494	-81.918	-0.205	0.065
-71.480	155.499	0.147	0.198
-70.465	-200.000	-0.015	0.124
-69.451	800.000	-0.065	0.236
-68.436	-36.641	-0.048	0.025
-67.422	-53.974	-0.105	0.047
-66.407	800.000	0.072	-0.275
-65.392	92.669	-0.225	-0.248
-64.378	479.326	-0.105	-0.231
-63.363	226.068	-0.045	-0.070
-62.349	-200.000	0.021	0.207
-61.334	209.542	-0.920	-1.406
-60.319	-6.092	0.729	0.486
-59.305	378.526	-0.771	-1.538
-58.290	96.864	1.064	1.189
-57.276	716.109	0.569	1.472
-56.261	-200.000	135.490	627.006
-55.246	345.353	1630.802	3122.279
-54.232	138.307	2766.224	3536.791
-53.217	81.149	2152.068	2264.982
-52.203	29.713	1588.361	1317.767
-51.188	22.107	1341.403	1066.845
-50.173	20.198	1307.195	1028.286
-49.159	46.822	1381.637	1251.058
-48.144	42.108	1390.602	1230.266
-47.130	22.000	1338.834	1063.981
-46.115	19.179	1319.943	1032.048
-45.100	18.989	1314.655	1026.738
-44.086	19.000	1312.489	1025.073
-43.071	18.969	1309.939	1022.854
-42.057	18.793	1308.113	1020.345
-41.042	18.944	1305.932	1019.494
-40.027	19.016	1304.504	1018.769
-39.013	18.981	1302.456	1016.919
-37.998	18.974	1300.881	1015.609
-36.984	19.019	1299.439	1014.707
-35.969	19.059	1297.396	1013.306
-34.954	18.989	1295.606	1011.458
-33.940	19.034	1294.555	1010.862
-32.925	19.055	1293.349	1010.005
-31.911	19.179	1291.659	1009.370
-30.896	19.079	1290.250	1007.644
-29.881	19.127	1288.586	1006.586
-28.867	19.082	1287.315	1005.289
-27.852	19.181	1285.576	1004.471
-26.838	19.186	1284.307	1003.468
-25.823	19.093	1283.179	1002.007
-24.809	19.133	1281.567	1000.941
-23.794	19.068	1280.853	999.965
-22.779	19.059	1279.209	998.589
-21.765	19.107	1278.372	998.173
-20.750	19.079	1276.916	996.835
-19.736	19.002	1275.524	995.262
-18.721	18.928	1274.648	994.113
-17.706	18.932	1273.168	992.944
-16.692	18.974	1272.186	992.378
-15.677	18.963	1270.986	991.337
-14.663	18.883	1270.060	990.116
-13.648	19.001	1268.776	989.754
-12.633	19.074	1267.500	989.140
-11.619	18.953	1266.767	987.836
-10.604	18.940	1266.094	987.195
-9.590	18.910	1265.249	986.324
-8.575	18.953	1264.426	985.891
-7.560	18.942	1263.486	985.058
-6.546	18.932	1262.762	984.397
-5.531	18.874	1261.893	983.349
-4.517	18.901	1260.712	982.543
-3.502	18.976	1260.096	982.451
-2.487	18.893	1259.716	981.645
-1.473	18.915	1254.670	977.800
-0.458	17.296	1239.337	956.704
0.556	13.020	1223.572	920.475
1.571	9.596	1232.427	907.790
2.586	8.979	1247.919	915.601
3.600	9.278	1234.648	907.471
4.615	7.087	1163.339	843.320
5.629	2.706	1096.095	772.469
6.644	0.678	1081.095	751.752
7.659	0.580	1078.984	749.732
8.673	0.390	1078.715	748.534
9.688	0.571	1076.795	748.033
10.702	0.830	1073.854	747.202
11.717	3.337	1076.760	761.562
12.731	9.414	1084.692	797.294
13.746	14.901	1092.376	830.181
14.761	17.046	1094.760	842.579
15.775	16.391	1093.257	838.100
16.790	15.439	1091.521	831.977
17.804	14.798	1089.572	827.244
18.819	14.565	1088.403	825.132
19.834	14.213	1087.817	822.874
20.848	14.043	1086.845	821.230
21.863	13.785	1085.693	819.014
22.877	13.540	1085.164	817.332
23.892	13.583	1084.394	816.889
24.907	13.538	1083.655	816.042
25.921	13.580	1083.081	815.741
26.936	13.719	1081.627	815.260
27.950	13.552	1081.015	813.906
28.965	13.739	1079.958	813.957
29.980	13.797	1078.028	812.710
30.994	13.946	1076.607	812.299
32.009	13.898	1076.181	811.669
33.023	13.829	1075.207	810.527
34.038	13.802	1074.243	809.594
35.053	13.794	1073.685	809.067
36.067	13.802	1072.457	808.109
37.082	13.773	1071.573	807.230
38.096	13.741	1071.028	806.589
39.111	13.720	1070.549	806.059
40.126	13.753	1069.182	805.119
41.140	13.622	1067.962	803.491
42.155	13.622	1066.819	802.559
43.169	13.652	1065.436	801.597
44.184	13.623	1064.622	800.771
45.199	13.660	1063.548	800.070
46.213	13.632	1062.489	799.068
47.228	13.748	1061.125	798.532
48.242	13.609	1060.304	797.171
49.257	13.705	1059.566	797.010
50.271	13.628	1058.468	795.741
51.286	13.726	1057.418	795.353
52.301	13.747	1056.161	794.439
53.315	13.617	1055.795	793.471
54.330	13.589	1054.757	792.486
55.344	13.606	1053.744	791.737
56.359	13.753	1052.655	791.551
57.374	13.623	1052.183	790.506
58.388	13.443	1051.497	789.060
59.403	13.611	1050.207	788.822
60.417	13.525	1049.545	787.846
61.432	13.582	1048.557	787.304
62.447	13.580	1048.105	786.889
63.461	13.618	1046.926	786.115
64.476	13.503	1045.637	784.532
65.490	13.454	1045.471	784.105
66.505	13.590	1044.616	784.037
67.520	13.555	1044.183	783.477
68.534	13.564	1043.430	782.884
69.549	13.586	1042.329	782.095
70.563	13.536	1041.909	781.473
71.578	13.472	1041.092	780.491
72.593	13.449	1040.308	779.723
73.607	13.560	1039.319	779.440
74.622	13.492	1038.725	778.602
75.636	13.430	1037.768	777.526
76.651	13.423	1037.454	777.190
77.666	13.593	1036.524	777.219
78.680	13.522	1035.638	776.157
79.695	13.584	1035.024	775.915
80.709	13.486	1034.588	775.064
81.724	13.551	1033.829	774.728
82.739	13.633	1032.849	774.310
83.753	13.775	1032.102	774.346
84.768	13.634	1031.332	773.039
85.782	13.831	1030.493	773.260
86.797	13.826	1029.474	772.402
87.812	13.538	1028.732	770.439
88.826	13.688	1027.407	770.077
89.841	13.755	1026.842	769.896
90.855	13.692	1025.597	768.603
91.870	13.672	1024.860	767.891
92.884	13.817	1023.931	767.796
93.899	13.771	1023.053	766.856
94.914	13.855	1022.440	766.720
95.928	13.926	1021.307	766.130
96.943	13.841	1020.647	765.174
97.957	13.754	1019.747	764.030
98.972	13.883	1018.466	763.594
99.987	13.728	1018.135	762.566
101.001	13.745	1017.143	761.836
102.016	13.879	1016.096	761.598
103.030	13.850	1015.358	760.844
104.045	13.761	1014.903	760.028
105.060	13.741	1013.947	759.156
106.074	13.693	1012.768	757.986
107.089	13.603	1012.337	757.182
108.103	13.661	1011.244	756.563
109.118	13.703	1010.177	755.890
110.133	13.678	1009.227	754.998
111.147	13.643	1008.452	754.192
112.162	13.603	1007.725	753.401
113.176	13.786	1006.613	753.334
114.191	13.680	1006.088	752.393
115.206	13.805	1005.158	752.197
116.220	13.717	1004.415	751.176
117.235	13.686	1002.994	749.906
118.249	13.663	1002.840	749.622
119.264	13.867	1001.892	749.770
120.279	13.815	1000.774	748.629
121.293	13.756	1000.239	747.897
122.308	13.719	999.259	746.931
123.322	13.707	998.180	746.005
124.337	13.742	997.118	745.302
125.352	13.582	996.051	743.722
126.366	13.632	995.024	743.113
127.381	13.679	993.888	742.410
128.395	13.698	992.886	741.683
129.410	13.771	991.696	741.054
130.424	13.784	991.018	740.538
131.439	13.724	990.702	739.970
132.454	13.785	990.042	739.682
133.468	13.752	989.321	738.930
134.483	13.674	988.579	737.964
135.497	13.659	987.641	737.130
136.512	13.630	986.891	736.379
137.527	13.768	985.436	735.841
138.541	13.773	985.284	735.684
139.556	13.820	984.422	735.183
140.570	13.988	983.612	735.254
141.585	13.910	982.831	734.265
142.600	13.995	981.697	733.726
143.614	14.030	980.105	732.625
144.629	14.016	980.179	732.555
145.643	13.847	979.582	731.297
146.658	13.904	977.983	730.290
147.673	13.807	977.345	729.322
148.687	13.864	976.485	728.870
149.702	13.795	975.714	727.926
150.716	13.834	974.572	727.179
151.731	13.937	973.928	727.084
152.746	13.974	973.198	726.637
153.760	14.005	972.674	726.317
154.775	13.926	972.549	725.815
155.789	13.902	971.745	725.048
156.804	14.021	970.798	724.794
157.819	14.080	970.118	724.481
158.833	14.126	969.374	724.059
159.848	14.028	968.557	722.960
160.862	13.987	967.869	722.204
161.877	14.052	966.745	721.582
162.892	13.981	966.167	720.781
163.906	13.986	965.105	719.944
164.921	14.035	964.041	719.301
165.935	14.072	963.277	718.825
166.950	13.963	962.358	717.607
167.964	14.102	961.384	717.419
168.979	14.177	960.584	717.079
169.994	14.015	959.786	715.721
171.008	14.056	959.446	715.581
172.023	14.250	958.544	715.681
173.037	14.141	957.603	714.447
174.052	14.110	956.616	713.515
175.067	14.176	956.294	713.496
176.081	14.143	955.458	712.667
177.096	14.106	955.111	712.185
178.110	14.206	954.056	711.763
179.125	14.181	953.980	711.537
180.140	14.104	953.704	710.941
181.154	14.212	952.795	710.659
182.169	14.133	952.710	710.194
183.183	14.245	951.752	709.896
184.198	14.275	950.733	709.200
185.213	14.302	950.298	708.930
186.227	14.372	949.060	708.240
187.242	14.275	948.795	707.567
188.256	14.442	947.989	707.613
189.271	14.235	947.607	706.388
190.286	14.338	946.647	706.044
191.300	14.228	946.141	705.138
192.315	14.193	945.384	704.366
193.329	14.139	945.032	703.810
194.344	14.360	944.088	703.978
195.359	14.324	943.462	703.300
196.373	14.422	942.506	702.938
197.388	14.460	942.142	702.764
198.402	14.548	941.701	702.745
199.417	14.498	941.155	702.065
200.432	14.597	940.325	701.797
201.446	14.535	940.107	701.315
202.461	14.502	940.027	701.053
203.475	14.627	938.838	700.628
204.490	14.526	937.851	699.408
205.504	14.569	937.226	699.058
206.519	14.702	936.307	698.869
207.534	14.493	936.011	697.710
208.548	14.548	935.000	697.127
209.563	14.633	934.528	697.067
210.577	14.599	934.068	696.518
211.592	14.837	932.818	696.517
212.607	14.748	932.023	695.494
213.621	14.763	931.661	695.225
214.636	14.713	930.785	694.301
215.650	14.803	930.002	694.030
216.665	14.818	929.306	693.511
217.680	14.798	928.777	692.971
218.694	14.836	928.056	692.529
219.709	14.813	927.361	691.852
220.723	14.735	927.027	691.221
221.738	14.789	926.065	690.668
222.753	14.871	925.063	690.199
223.767	14.987	924.529	690.214
224.782	14.970	924.067	689.739
225.796	14.946	923.687	689.297
226.811	14.875	922.868	688.331
227.826	14.909	922.345	688.018
228.840	15.015	921.334	687.640
229.855	14.988	920.458	686.815
230.869	14.858	919.995	685.876
231.884	14.903	919.502	685.633
232.899	14.846	918.820	684.829
233.913	14.867	918.320	684.481
234.928	15.044	917.171	684.288
235.942	14.830	917.047	683.261
236.957	14.943	916.305	683.111
237.972	14.998	915.612	682.756
238.986	14.954	914.619	681.776
240.001	14.975	914.132	681.439
241.015	14.829	913.537	680.339
242.030	15.015	912.687	680.405
243.045	14.916	912.352	679.692
244.059	15.124	911.695	679.987
245.074	15.121	910.664	679.144
246.088	15.184	909.698	678.620
247.103	15.214	909.527	678.553
248.117	15.161	909.122	677.974
249.132	15.289	908.456	677.936
250.147	15.265	907.731	677.238
251.161	15.342	907.203	677.095
252.176	15.311	906.913	676.696
253.190	15.399	905.783	676.146
254.205	15.359	905.249	675.526
255.220	15.435	904.619	675.303
256.234	15.408	903.997	674.669
257.249	15.466	903.123	674.191
258.263	15.389	902.659	673.475
259.278	15.553	901.674	673.342
260.293	15.474	901.110	672.541
261.307	15.458	900.667	672.089
262.322	15.501	900.119	671.793
263.336	15.529	899.133	671.110
264.351	15.638	898.370	670.916
265.366	15.578	898.061	670.383
266.380	15.621	897.337	669.955
267.395	15.717	896.905	669.958
268.409	15.588	895.557	668.377
269.424	15.647	894.603	667.839
270.439	15.634	893.879	667.189
271.453	15.652	893.340	666.801
272.468	15.646	893.058	666.506
273.482	15.564	892.983	666.066
274.497	15.724	891.870	665.811
275.512	15.675	891.232	665.081
276.526	15.637	890.805	664.554
277.541	15.848	890.068	664.779
278.555	15.772	889.565	664.043
279.570	15.723	888.990	663.364
280.585	15.895	888.185	663.383
281.599	15.769	887.237	662.118
282.614	15.841	886.716	661.955
283.628	15.931	886.257	661.909
284.643	15.906	885.102	660.890
285.657	15.772	884.764	660.053
286.672	15.783	884.403	659.768
287.687	16.018	883.599	660.031
288.701	16.037	882.904	659.527
289.716	15.909	882.827	658.910
290.730	16.054	881.985	658.789
291.745	16.087	881.147	658.233
292.760	16.025	880.646	657.561
293.774	16.034	880.343	657.311
294.789	16.034	879.323	656.490
295.803	15.978	878.932	655.924
296.818	16.014	877.849	655.195
297.833	16.063	877.151	654.809
298.847	16.005	876.882	654.323
299.862	16.199	875.843	654.242
300.876	16.159	875.693	653.919
301.891	16.115	875.040	653.204
302.906	16.171	874.450	652.920
303.920	16.219	874.061	652.758
304.935	16.266	873.209	652.247
305.949	16.399	872.210	651.955
306.964	16.230	872.280	651.298
307.979	16.336	871.322	650.934
308.993	16.302	870.782	650.341
310.008	16.372	870.421	650.282
311.022	16.199	869.966	649.221
312.037	16.226	869.325	648.789
313.052	16.313	868.965	648.795
314.066	16.328	867.996	648.073
315.081	16.186	867.557	647.143
316.095	16.372	866.539	647.040
317.110	16.455	866.154	647.013
318.125	16.302	865.749	646.067
319.139	16.410	865.269	646.066
320.154	16.397	864.945	645.715
321.168	16.476	864.123	645.348
322.183	16.459	863.682	644.897
323.197	16.403	863.644	644.596
324.212	16.454	862.889	644.171
325.227	16.441	862.092	643.468
326.241	16.429	861.539	642.953
327.256	16.467	860.801	642.491
328.270	16.484	860.250	642.087
329.285	16.431	859.591	641.335
330.300	16.405	858.999	640.738
331.314	16.447	858.610	640.551
332.329	16.624	858.174	640.841
333.343	16.448	857.894	639.908
334.358	16.631	857.434	640.200
335.373	16.413	857.252	639.185
336.387	16.609	856.656	639.422
337.402	16.670	856.294	639.329
338.416	16.572	856.116	638.768
339.431	16.643	855.714	638.678
340.446	16.747	855.138	638.587
341.460	16.754	854.703	638.230
342.475	16.771	854.081	637.775
343.489	16.750	853.807	637.434
344.504	16.829	853.107	637.152
345.519	16.900	852.822	637.150
346.533	16.961	852.086	636.771
347.548	16.848	851.766	636.051
348.562	16.814	851.061	635.340
349.577	16.853	850.560	635.057
350.592	16.747	849.978	634.169
351.606	16.867	849.272	634.035
352.621	16.762	848.657	633.128
353.635	16.830	847.971	632.816
354.650	16.988	847.505	633.001
355.665	16.947	846.696	632.186
356.679	16.971	846.145	631.808
357.694	17.006	845.361	631.299
358.708	16.947	844.784	630.593
359.723	17.022	844.215	630.392
360.738	16.979	843.749	629.828
361.752	17.030	842.811	629.261
362.767	16.974	842.477	628.748
363.781	17.095	841.628	628.505
364.796	17.198	841.351	628.627
365.810	17.191	841.011	628.289
366.825	17.208	840.680	628.051
367.840	17.136	840.133	627.318
368.854	17.184	839.580	627.030
369.869	17.294	839.152	627.057
370.883	17.206	839.085	626.628
371.898	17.170	838.535	626.030
372.913	17.302	837.931	626.008
373.927	17.325	837.595	625.788
374.942	17.326	836.803	625.142
375.956	17.345	836.762	625.128
376.971	17.391	836.216	624.835
377.986	17.498	835.684	624.773
379.000	17.546	834.837	624.262
380.015	17.485	834.604	623.809
381.029	17.375	834.192	623.043
382.044	17.555	833.481	623.114
383.059	17.500	832.853	622.389
384.073	17.435	832.234	621.633
385.088	17.419	832.205	621.497
386.102	17.391	831.160	620.560
387.117	17.460	830.447	620.225
388.132	17.347	830.171	619.553
389.146	17.537	829.626	619.784
390.161	17.546	829.027	619.312
391.175	17.660	828.650	619.391
392.190	17.612	827.956	618.642
393.205	17.391	827.481	617.432
394.219	17.497	827.158	617.522
395.234	17.545	827.032	617.545
396.248	17.600	826.601	617.367
397.263	17.619	825.956	616.901
398.278	17.665	825.845	616.931
399.292	17.535	825.555	616.187
400.307	17.646	824.794	615.967
401.321	17.574	824.411	615.367
402.336	17.577	823.702	614.793
403.350	17.763	823.097	614.960
404.365	17.758	822.687	614.581
405.380	17.845	822.311	614.557
406.394	17.738	821.849	613.775
407.409	17.698	821.601	613.391
408.423	17.775	821.130	613.262
409.438	17.838	820.791	613.181
410.453	17.956	820.475	613.312
411.467	17.810	819.708	612.160
412.482	17.943	819.366	612.328
413.496	17.935	818.981	611.958
414.511	17.888	818.627	611.471
415.526	17.991	818.173	611.447
416.540	17.954	817.810	610.988
417.555	18.064	817.273	610.927
418.569	18.098	816.649	610.530
419.584	18.180	816.008	610.286
420.599	18.066	815.723	609.615
421.613	116.255	1301.643	1494.725
422.628	100.772	1372.364	1494.809
