DTS Sentinel unit serial number:	SN413079Multiplexer serial number:	ORYXHardware model number:	OX4-SRSoftware version number:	ORYX F/W v4.00 Oryx Data Collector v3.7.2.0data status	okinstallation	princeton_trtdifferential loss correction	single-endedforward channel	channel 1reverse channel	N/Adate	2019/09/16time	10:54:35forward acquisition time	60.00reverse acquisition time	0.00gamma	496.2192k internal	0.2300k external	0.2300temperature offset calibration	0.9965default loss term (dB/km)	0.3790temperature slope calibration	1.0000multiplexer offset coefficient	1.0000multiplexer slope coefficient	1.0000fibre end	0.00T internal ref (°C)	36.55T ext. ref 1 (°C)	12.72T ext. ref 2 (°C)	34.29length (m)	temperature (°C)	Stokes	anti-Stokes-747.200	-28.878	0.264	-0.155
-746.185	800.000	0.066	0.246
-745.171	342.774	0.039	-0.079
-744.156	-37.446	0.058	0.032
-743.142	41.449	0.267	-0.246
-742.127	-200.000	-0.005	-0.089
-741.112	-75.365	-0.349	-0.127
-740.098	247.180	-0.146	0.252
-739.083	-66.837	0.176	-0.071
-738.069	-44.331	-0.256	0.131
-737.054	148.367	0.124	0.170
-736.039	-200.000	0.024	0.389
-735.025	32.892	0.344	0.304
-734.010	13.944	-0.256	-0.203
-732.996	462.518	0.050	-0.114
-731.981	-54.413	0.185	0.085
-730.966	93.207	0.142	-0.164
-729.952	57.726	-0.146	-0.145
-728.937	107.329	-0.281	0.341
-727.923	-200.000	0.007	0.044
-726.908	800.000	0.046	0.129
-725.894	23.523	-0.092	-0.077
-724.879	4.499	-0.147	-0.110
-723.864	10.158	-0.156	-0.121
-722.850	-30.890	0.076	-0.044
-721.835	-200.000	-0.014	-0.212
-720.821	338.018	-0.135	0.267
-719.806	71.861	-0.072	-0.076
-718.791	-81.405	0.180	-0.060
-717.777	172.736	0.150	-0.220
-716.762	497.830	0.030	-0.070
-715.748	97.361	0.167	-0.195
-714.733	65.598	-0.191	-0.197
-713.718	115.466	0.084	0.105
-712.704	645.677	0.126	-0.328
-711.689	-1.127	-0.082	-0.059
-710.675	340.842	0.105	-0.210
-709.660	-49.193	-0.166	-0.081
-708.645	46.754	0.131	-0.124
-707.631	800.000	-0.034	-0.100
-706.616	-87.355	-0.188	0.058
-705.602	143.784	0.137	0.186
-704.587	211.107	-0.019	-0.030
-703.572	391.694	0.131	0.278
-702.558	800.000	0.012	-0.052
-701.543	177.783	-0.162	0.240
-700.529	-200.000	0.059	0.359
-699.514	59.804	-0.056	-0.056
-698.499	272.677	0.023	-0.042
-697.485	-94.982	-0.383	0.106
-696.470	45.172	0.144	-0.135
-695.456	-30.426	-0.169	0.098
-694.441	800.000	-0.043	-0.123
-693.426	511.457	-0.111	-0.263
-692.412	-61.136	0.020	-0.009
-691.397	800.000	0.044	-0.157
-690.383	-44.091	-0.359	-0.183
-689.368	185.705	-0.178	0.269
-688.354	232.390	-0.291	0.486
-687.339	3.616	-0.096	0.072
-686.324	-51.196	0.271	0.129
-685.310	-91.300	-0.239	0.069
-684.295	558.223	-0.083	0.204
-683.281	-96.613	0.065	0.017
-682.266	-22.979	0.197	0.121
-681.251	120.650	0.081	0.102
-680.237	-22.079	-0.129	-0.080
-679.222	-200.000	0.054	0.248
-678.208	-68.411	-0.220	0.087
-677.193	22.403	-0.166	-0.138
-676.178	800.000	-0.073	-0.319
-675.164	-124.206	-0.280	0.045
-674.149	104.479	0.082	-0.098
-673.135	-110.102	-0.124	-0.026
-672.120	-92.862	0.140	-0.040
-671.105	187.712	0.147	0.223
-670.091	590.965	0.124	0.311
-669.076	-148.383	-0.369	-0.031
-668.062	-64.615	0.055	-0.022
-667.047	-58.834	-0.063	0.028
-666.032	-24.864	0.275	-0.166
-665.018	800.000	0.053	-0.175
-664.003	38.513	0.163	0.148
-662.989	800.000	0.036	0.150
-661.974	-33.052	0.159	-0.090
-660.959	424.434	-0.117	-0.256
-659.945	122.702	-0.219	-0.278
-658.930	51.591	0.193	0.187
-657.916	219.713	0.070	-0.113
-656.901	-4.105	-0.323	0.228
-655.886	-121.671	0.273	-0.046
-654.872	800.000	-0.035	0.141
-653.857	-182.125	0.261	0.005
-652.843	-96.295	-0.072	0.019
-651.828	-200.000	0.274	0.001
-650.814	-45.348	0.317	-0.160
-649.799	-200.000	0.002	0.017
-648.784	-125.148	-0.165	-0.026
-647.770	-0.307	0.060	-0.043
-646.755	83.894	0.345	0.383
-645.741	12.624	-0.056	-0.044
-644.726	267.158	0.065	0.115
-643.711	-180.118	0.266	-0.006
-642.697	-72.526	0.385	-0.144
-641.682	-74.378	0.234	0.086
-640.668	229.824	-0.257	-0.426
-639.653	-171.048	-0.287	0.010
-638.638	-200.000	0.066	-0.316
-637.624	-165.403	0.326	0.014
-636.609	-191.119	0.219	0.002
-635.595	-96.545	0.303	-0.081
-634.580	-36.326	-0.083	0.046
-633.565	-12.019	0.244	0.163
-632.551	-13.301	-0.344	0.227
-631.536	800.000	-0.041	0.156
-630.522	25.504	0.143	0.121
-629.507	-58.101	-0.118	0.052
-628.492	61.070	-0.185	0.187
-627.478	79.094	-0.244	0.266
-626.463	-69.986	0.184	-0.071
-625.449	800.000	-0.107	0.304
-624.434	-200.000	-0.013	0.123
-623.419	44.785	-0.156	0.145
-622.405	-149.347	-0.119	-0.010
-621.390	142.448	0.128	-0.172
-620.376	-102.769	-0.328	-0.079
-619.361	800.000	-0.008	-0.027
-618.346	-38.298	0.274	0.147
-617.332	-2.983	0.197	-0.139
-616.317	36.280	0.063	-0.056
-615.303	-70.957	-0.441	0.168
-614.288	728.242	0.049	0.133
-613.273	0.742	0.162	0.118
-612.259	800.000	0.053	0.161
-611.244	-200.000	-0.001	-0.214
-610.230	-200.000	0.033	-0.414
-609.215	-200.000	0.037	-0.236
-608.201	-154.017	0.188	-0.013
-607.186	-200.000	0.015	0.135
-606.171	-137.817	-0.076	0.009
-605.157	-65.270	0.239	-0.098
-604.142	-48.385	0.212	0.103
-603.128	401.502	0.039	0.083
-602.113	-87.560	0.161	-0.049
-601.098	156.199	-0.152	-0.212
-600.084	-200.000	-0.028	0.310
-599.069	95.414	-0.167	0.193
-598.055	-74.044	-0.060	0.022
-597.040	-72.221	-0.330	0.124
-596.025	111.040	0.202	-0.246
-595.011	-111.009	0.276	0.058
-593.996	-76.632	0.065	-0.023
-592.982	-42.703	-0.171	0.088
-591.967	-200.000	0.012	0.058
-590.952	394.837	-0.240	-0.507
-589.938	163.760	0.032	0.046
-588.923	-85.247	-0.183	-0.058
-587.909	526.270	-0.163	0.388
-586.894	490.109	-0.089	0.206
-585.879	197.942	-0.167	-0.259
-584.865	43.483	0.240	-0.222
-583.850	258.871	0.045	-0.078
-582.836	153.160	-0.099	0.137
-581.821	-126.992	0.196	0.029
-580.806	59.814	0.117	-0.117
-579.792	-129.019	0.356	0.051
-578.777	564.384	0.101	-0.247
-577.763	-164.772	-0.246	-0.011
-576.748	-28.093	0.189	0.111
-575.733	214.302	-0.219	-0.351
-574.719	-200.000	-0.038	-0.210
-573.704	-127.201	0.162	-0.024
-572.690	-200.000	0.211	0.000
-571.675	-102.607	-0.089	-0.022
-570.661	800.000	-0.038	-0.138
-569.646	68.913	-0.040	0.041
-568.631	103.656	0.076	-0.091
-567.617	-200.000	-0.032	0.285
-566.602	-165.738	-0.338	0.015
-565.588	800.000	-0.007	0.020
-564.573	-173.728	-0.175	-0.005
-563.558	-39.412	-0.257	0.136
-562.544	9.446	-0.231	-0.177
-561.529	656.152	0.027	0.069
-560.515	18.713	0.232	-0.188
-559.500	800.000	-0.102	0.298
-558.485	114.112	0.185	-0.228
-557.471	-14.199	0.062	0.040
-556.456	288.951	-0.105	0.193
-555.442	-200.000	0.029	0.252
-554.427	180.418	0.159	0.236
-553.412	-13.515	-0.124	-0.081
-552.398	-107.820	-0.244	-0.054
-551.383	-32.651	-0.284	0.160
-550.369	6.890	-0.146	-0.110
-549.354	-122.554	0.132	-0.022
-548.339	-200.000	0.015	0.093
-547.325	1.410	-0.183	0.133
-546.310	-200.000	-0.053	-0.272
-545.296	13.018	-0.129	-0.101
-544.281	-200.000	0.183	0.000
-543.266	8.768	0.129	-0.099
-542.252	186.980	0.126	-0.189
-541.237	800.000	-0.028	0.113
-540.223	-28.862	-0.133	-0.077
-539.208	586.023	-0.200	-0.498
-538.193	-8.586	-0.183	0.124
-537.179	-27.827	-0.299	0.175
-536.164	-23.703	-0.197	-0.119
-535.150	-103.522	-0.135	-0.032
-534.135	61.935	-0.050	0.051
-533.121	-79.179	-0.149	0.051
-532.106	-172.356	0.256	-0.008
-531.091	55.191	-0.041	0.040
-530.077	-105.705	-0.266	-0.061
-529.062	-35.266	0.231	-0.127
-528.048	396.649	-0.139	-0.293
-527.033	525.305	0.028	0.066
-526.018	-200.000	0.002	-0.145
-525.004	-72.003	-0.079	0.030
-523.989	341.879	-0.091	0.181
-522.975	-66.464	-0.255	-0.103
-521.960	-200.000	-0.000	0.128
-520.945	28.926	-0.034	-0.029
-519.931	-52.865	0.457	-0.213
-518.916	-162.798	0.411	0.020
-517.902	800.000	0.125	-0.370
-516.887	800.000	-0.058	-0.179
-515.872	521.940	-0.059	0.140
-514.858	635.231	0.029	-0.075
-513.843	-200.000	0.041	0.195
-512.829	-200.000	0.005	-0.040
-511.814	800.000	-0.020	0.060
-510.799	-127.201	0.220	0.032
-509.785	-131.090	-0.176	0.024
-508.770	-35.359	-0.110	0.061
-507.756	16.920	-0.188	0.150
-506.741	800.000	-0.047	-0.151
-505.726	20.293	0.205	-0.167
-504.712	233.573	-0.098	0.163
-503.697	-185.613	0.170	-0.003
-502.683	64.958	0.104	-0.107
-501.668	-91.819	-0.177	0.051
-500.653	800.000	0.026	0.092
-499.639	270.745	0.163	-0.290
-498.624	-79.772	0.199	0.068
-497.610	-93.343	0.294	0.082
-496.595	50.770	0.112	0.107
-495.581	236.412	0.060	-0.101
-494.566	800.000	0.007	0.030
-493.551	3.440	-0.161	-0.118
-492.537	800.000	-0.124	-0.481
-491.522	188.387	0.064	0.096
-490.508	-74.191	0.107	-0.039
-489.493	90.421	0.096	-0.109
-488.478	-200.000	0.032	-0.152
-487.464	274.890	0.169	-0.302
-486.449	-9.536	-0.338	0.228
-485.435	-200.000	-0.013	0.085
-484.420	16.665	-0.087	-0.069
-483.405	376.540	-0.078	-0.160
-482.391	3.628	0.112	0.083
-481.376	-112.730	-0.141	0.028
-480.362	688.528	-0.062	-0.165
-479.347	395.488	-0.152	-0.320
-478.332	52.275	0.178	-0.171
-477.318	-187.039	-0.048	0.001
-476.303	342.022	0.086	-0.169
-475.289	127.419	-0.158	-0.203
-474.274	-90.186	-0.200	0.059
-473.259	118.713	-0.079	0.099
-472.245	113.696	-0.173	0.213
-471.230	-200.000	0.016	-0.192
-470.216	-200.000	-0.019	0.107
-469.201	760.285	0.033	-0.089
-468.186	-200.000	-0.051	0.422
-467.172	-77.025	0.133	0.047
-466.157	306.620	0.089	-0.167
-465.143	254.585	-0.039	-0.067
-464.128	533.502	0.147	0.352
-463.113	-51.418	0.276	0.130
-462.099	62.066	0.263	-0.265
-461.084	101.352	-0.301	-0.353
-460.070	-137.621	-0.307	0.035
-459.055	340.457	-0.057	-0.113
-458.040	-24.071	-0.117	-0.071
-457.026	-40.346	0.125	-0.065
-456.011	340.977	0.167	0.328
-454.997	116.942	-0.041	0.051
-453.982	282.267	0.079	-0.143
-452.968	743.085	-0.090	-0.244
-451.953	387.960	-0.099	0.207
-450.938	-37.107	0.245	0.132
-449.924	7.846	0.197	-0.149
-448.909	203.365	0.101	0.158
-447.895	-200.000	-0.073	0.396
-446.880	48.252	0.221	0.209
-445.865	800.000	-0.101	0.401
-444.851	16.940	-0.358	-0.285
-443.836	800.000	-0.206	-0.588
-442.822	-200.000	0.011	-0.245
-441.807	-200.000	-0.055	0.347
-440.792	148.690	0.069	0.094
-439.778	206.730	0.046	-0.072
-438.763	129.597	-0.138	0.178
-437.749	359.265	-0.062	0.126
-436.734	-115.991	-0.251	0.047
-435.719	-136.792	-0.039	0.005
-434.705	800.000	0.065	-0.268
-433.690	58.854	0.166	-0.165
-432.676	88.723	0.037	0.042
-431.661	-72.804	0.231	-0.086
-430.646	-39.317	-0.117	0.062
-429.632	140.943	-0.062	-0.082
-428.617	-158.516	-0.149	-0.009
-427.603	-117.981	0.271	-0.049
-426.588	-84.669	-0.291	-0.092
-425.573	59.164	-0.141	-0.140
-424.559	-67.672	-0.108	-0.042
-423.544	-4.488	-0.157	0.110
-422.530	88.018	0.110	-0.122
-421.515	-13.740	0.108	-0.070
-420.500	-84.255	-0.236	-0.075
-419.486	14.304	-0.164	-0.129
-418.471	-191.300	-0.152	0.002
-417.457	424.415	0.064	0.139
-416.442	-200.000	0.010	0.135
-415.428	-133.850	0.257	0.032
-414.413	76.344	-0.093	-0.099
-413.398	28.990	-0.467	0.399
-412.384	-92.174	-0.344	-0.098
-411.369	323.096	0.094	-0.180
-410.355	-125.037	-0.248	-0.038
-409.340	377.551	-0.135	0.278
-408.325	-200.000	0.063	0.299
-407.311	-54.912	-0.151	0.069
-406.296	115.499	0.195	0.240
-405.282	155.626	0.226	-0.314
-404.267	-110.384	0.115	-0.024
-403.252	598.867	-0.079	-0.197
-402.238	84.139	0.324	-0.357
-401.223	-36.163	0.274	-0.149
-400.209	109.246	-0.203	0.244
-399.194	-200.000	0.003	0.238
-398.179	-134.552	0.155	0.019
-397.165	-12.151	0.177	-0.117
-396.150	-200.000	-0.009	0.273
-395.136	800.000	-0.061	-0.183
-394.121	-2.505	0.194	-0.137
-393.106	37.313	-0.182	-0.162
-392.092	683.465	0.063	0.166
-391.077	-63.339	0.095	-0.039
-390.063	-88.615	0.061	0.018
-389.048	41.879	-0.141	0.128
-388.033	-48.939	-0.159	0.077
-387.019	-35.217	0.209	0.114
-386.004	79.538	0.234	-0.252
-384.990	-149.634	-0.271	0.021
-383.975	-143.995	0.332	0.031
-382.960	87.621	-0.286	-0.319
-381.946	-200.000	0.004	0.046
-380.931	-112.266	-0.106	0.021
-379.917	-1.193	-0.365	0.259
-378.902	612.076	-0.014	-0.034
-377.888	800.000	-0.088	0.383
-376.873	800.000	0.113	0.342
-375.858	178.192	-0.145	0.213
-374.844	-151.988	-0.256	-0.019
-373.829	83.426	0.033	0.036
-372.815	-61.252	0.207	0.088
-371.800	-96.830	0.121	-0.032
-370.785	-59.189	0.394	0.170
-369.771	-60.485	0.162	0.069
-368.756	800.000	-0.045	-0.193
-367.742	-142.272	-0.149	0.015
-366.727	-77.784	0.160	0.056
-365.712	-137.118	-0.140	-0.016
-364.698	-136.638	-0.137	-0.016
-363.683	-36.639	-0.030	-0.016
-362.669	94.346	-0.375	-0.428
-361.654	800.000	0.052	0.151
-360.639	-21.886	0.119	-0.073
-359.625	-83.696	0.238	0.076
-358.610	118.371	-0.039	-0.048
-357.596	-200.000	0.032	0.220
-356.581	-66.028	0.061	-0.024
-355.566	-200.000	-0.023	-0.157
-354.552	-38.304	0.064	-0.034
-353.537	-200.000	-0.051	-0.328
-352.523	37.660	-0.124	0.110
-351.508	-200.000	0.021	0.139
-350.493	-176.394	-0.106	-0.003
-349.479	428.934	-0.253	0.549
-348.464	800.000	-0.042	-0.153
-347.450	-30.280	0.038	0.022
-346.435	77.964	0.177	-0.190
-345.420	-153.126	-0.187	-0.013
-344.406	-200.000	0.020	-0.195
-343.391	121.663	0.239	0.299
-342.377	142.584	0.048	0.064
-341.362	-130.647	0.172	-0.023
-340.348	800.000	-0.082	0.316
-339.333	-111.254	-0.068	0.014
-338.318	-115.384	0.516	-0.098
-337.304	-200.000	-0.016	-0.286
-336.289	-155.357	0.355	-0.023
-335.275	161.116	-0.161	-0.225
-334.260	67.847	-0.221	-0.226
-333.245	14.771	-0.347	0.272
-332.231	-87.850	0.340	-0.103
-331.216	-62.139	0.304	-0.127
-330.202	-16.491	0.304	-0.193
-329.187	29.229	-0.272	-0.232
-328.172	283.982	-0.193	0.349
-327.158	456.278	0.063	-0.140
-326.143	-62.194	-0.243	0.102
-325.129	-95.147	0.099	-0.027
-324.114	334.633	0.071	0.137
-323.099	-200.000	-0.002	0.039
-322.085	41.072	0.234	-0.212
-321.070	8.933	-0.421	-0.319
-320.056	-119.278	-0.213	-0.037
-319.041	-120.139	0.412	0.071
-318.026	-200.000	0.008	-0.060
-317.012	-200.000	0.002	-0.098
-315.997	-132.041	0.091	-0.012
-314.983	36.444	0.242	0.214
-313.968	691.138	-0.016	-0.041
-312.953	-162.310	-0.037	0.002
-311.939	-72.480	0.125	-0.046
-310.924	-23.479	-0.099	-0.060
-309.910	-200.000	-0.005	-0.421
-308.895	17.265	-0.052	0.041
-307.880	587.044	0.090	0.223
-306.866	14.284	-0.061	0.047
-305.851	-65.643	-0.081	-0.032
-304.837	-109.463	0.240	-0.051
-303.822	64.632	0.153	0.154
-302.807	-200.000	0.006	-0.214
-301.793	800.000	-0.046	0.168
-300.778	-200.000	0.004	0.035
-299.764	-200.000	-0.001	0.244
-298.749	-200.000	-0.050	0.229
-297.735	153.930	-0.074	-0.102
-296.720	-140.383	0.138	-0.014
-295.705	141.428	-0.271	-0.360
-294.691	210.800	0.172	-0.271
-293.676	85.066	-0.116	0.127
-292.662	81.766	0.227	-0.246
-291.647	64.497	-0.134	0.135
-290.632	-200.000	0.026	0.121
-289.618	-2.876	0.030	-0.021
-288.603	687.792	-0.082	0.215
-287.589	114.720	0.139	0.170
-286.574	800.000	0.068	-0.279
-285.559	-194.894	-0.183	-0.001
-284.545	426.898	-0.034	-0.074
-283.530	777.938	-0.094	-0.256
-282.516	-200.000	-0.040	0.207
-281.501	-3.532	0.299	0.208
-280.486	-57.105	0.307	-0.135
-279.472	739.724	-0.057	0.153
-278.457	-200.000	0.036	0.298
-277.443	77.571	-0.200	-0.213
-276.428	-200.000	0.006	0.084
-275.413	-200.000	0.042	-0.238
-274.399	-46.719	-0.182	-0.089
-273.384	-200.000	0.002	0.035
-272.370	-200.000	-0.002	-0.381
-271.355	-95.281	0.255	-0.069
-270.340	-200.000	-0.010	-0.072
-269.326	-175.036	-0.178	0.005
-268.311	193.571	0.093	-0.140
-267.297	-125.907	-0.123	-0.018
-266.282	800.000	0.061	-0.228
-265.267	-58.382	-0.222	0.096
-264.253	-200.000	0.012	0.108
-263.238	178.932	0.115	-0.168
-262.224	-54.255	-0.141	0.064
-261.209	-163.103	-0.146	-0.007
-260.195	-125.411	-0.167	0.025
-259.180	-56.389	-0.391	0.174
-258.165	-20.724	0.127	-0.078
-257.151	126.444	-0.153	-0.194
-256.136	-200.000	0.093	0.000
-255.122	800.000	-0.064	-0.243
-254.107	-57.883	0.065	-0.029
-253.092	-29.154	0.103	-0.059
-252.078	484.486	0.104	-0.236
-251.063	56.490	-0.181	-0.176
-250.049	-58.132	0.073	-0.032
-249.034	-200.000	-0.033	0.293
-248.019	-50.872	-0.121	0.057
-247.005	-200.000	-0.027	0.161
-245.990	361.439	0.035	0.070
-244.976	-106.320	0.108	0.024
-243.961	-130.776	-0.078	-0.010
-242.946	192.802	0.077	0.116
-241.932	325.616	0.145	0.277
-240.917	-65.556	-0.319	-0.128
-239.903	-54.852	-0.183	-0.082
-238.888	-170.794	0.175	-0.006
-237.873	-47.039	0.175	0.085
-236.859	-164.504	0.201	-0.009
-235.844	136.834	0.037	-0.048
-234.830	352.979	0.045	-0.089
-233.815	216.149	-0.067	-0.106
-232.800	384.438	0.140	-0.287
-231.786	319.424	0.050	0.094
-230.771	-93.025	0.320	-0.089
-229.757	96.138	0.281	0.321
-228.742	-200.000	-0.013	-0.074
-227.727	-100.006	-0.144	0.036
-226.713	-62.216	-0.147	-0.061
-225.698	-200.000	-0.053	-0.254
-224.684	73.503	0.154	0.162
-223.669	-134.676	0.170	0.021
-222.655	435.854	0.140	-0.303
-221.640	450.023	0.072	0.159
-220.625	29.916	-0.183	0.156
-219.611	800.000	0.068	0.274
-218.596	-200.000	0.012	-0.197
-217.582	177.486	-0.102	0.149
-216.567	-86.423	0.101	-0.031
-215.552	-91.326	-0.204	0.058
-214.538	323.304	0.066	0.125
-213.523	-32.528	-0.404	-0.225
-212.509	-200.000	-0.041	-0.318
-211.494	102.080	-0.223	-0.260
-210.479	520.005	-0.065	-0.151
-209.465	97.247	0.031	-0.035
-208.450	-200.000	-0.069	-0.394
-207.436	-126.463	0.288	0.043
-206.421	-119.356	0.320	-0.056
-205.406	-83.069	-0.241	-0.078
-204.392	-16.834	0.178	0.112
-203.377	-200.000	-0.002	0.080
-202.363	-30.463	0.019	-0.011
-201.348	151.185	-0.105	0.142
-200.333	-129.601	0.179	-0.025
-199.319	-25.092	0.274	-0.162
-198.304	-143.594	-0.174	-0.017
-197.290	-200.000	0.007	0.152
-196.275	800.000	0.045	0.147
-195.260	-20.551	-0.163	-0.100
-194.246	658.821	-0.077	0.198
-193.231	-3.670	-0.050	0.034
-192.217	-200.000	0.007	0.270
-191.202	-200.000	-0.041	0.242
-190.187	140.067	0.122	0.160
-189.173	-88.132	-0.132	0.040
-188.158	191.403	-0.087	0.130
-187.144	-200.000	-0.008	-0.074
-186.129	800.000	0.039	0.150
-185.114	-115.442	0.218	-0.041
-184.100	627.883	-0.111	0.281
-183.085	-140.881	0.127	-0.013
-182.071	76.453	0.039	0.042
-181.056	-200.000	0.007	0.223
-180.042	-200.000	0.028	0.293
-179.027	800.000	-0.052	0.146
-178.012	342.015	0.049	-0.095
-176.998	-200.000	-0.016	0.301
-175.983	-200.000	0.027	0.121
-174.969	122.258	0.205	0.255
-173.954	-57.061	-0.321	-0.141
-172.939	800.000	-0.163	0.580
-171.925	800.000	-0.041	0.166
-170.910	36.536	-0.064	0.056
-169.896	-54.362	0.164	0.074
-168.881	-25.700	-0.213	-0.125
-167.866	24.806	-0.259	0.214
-166.852	800.000	-0.056	0.162
-165.837	-39.485	0.082	-0.043
-164.823	358.064	-0.032	0.064
-163.808	37.818	-0.057	0.051
-162.793	-200.000	0.011	0.324
-161.779	1.614	0.056	-0.040
-160.764	-6.819	0.326	0.221
-159.750	-200.000	0.005	-0.046
-158.735	-43.782	0.301	0.151
-157.720	-168.762	0.022	0.001
-156.706	-200.000	0.001	0.042
-155.691	208.987	-0.155	0.242
-154.677	28.551	0.144	0.121
-153.662	800.000	0.061	-0.237
-152.647	-200.000	0.029	-0.170
-151.633	-64.657	0.204	-0.082
-150.618	-64.976	0.436	-0.176
-149.604	134.393	0.035	0.045
-148.589	-54.231	0.212	-0.096
-147.574	243.258	0.116	0.193
-146.560	-87.274	0.185	-0.056
-145.545	800.000	-0.049	0.199
-144.531	-200.000	-0.001	-0.063
-143.516	31.726	0.076	0.065
-142.502	-171.767	0.389	0.013
-141.487	176.929	-0.076	0.110
-140.472	419.253	-0.129	0.274
-139.458	-30.752	0.256	-0.144
-138.443	6.299	0.305	-0.225
-137.429	726.611	-0.033	-0.087
-136.414	-61.122	0.058	0.024
-135.399	77.616	0.328	0.348
-134.385	-109.569	0.328	-0.069
-133.370	-101.438	0.373	-0.091
-132.356	71.722	-0.190	-0.197
-131.341	359.156	-0.059	0.118
-130.326	528.352	0.189	0.444
-129.312	175.075	0.290	-0.418
-128.297	-54.398	0.101	-0.046
-127.283	-200.000	0.011	0.055
-126.268	193.635	0.220	-0.331
-125.253	206.303	0.200	0.310
-124.239	-23.111	0.048	0.029
-123.224	-147.726	0.371	0.031
-122.210	800.000	0.064	0.208
-121.195	-200.000	-0.065	0.297
-120.180	-39.111	0.085	-0.045
-119.166	-200.000	-0.009	-0.494
-118.151	20.247	-0.213	0.171
-117.137	800.000	-0.144	0.420
-116.122	-200.000	0.010	0.265
-115.107	33.448	0.205	-0.177
-114.093	800.000	-0.112	-0.387
-113.078	-200.000	0.002	0.055
-112.064	-37.480	0.308	0.163
-111.049	125.800	0.057	0.071
-110.034	800.000	-0.048	0.189
-109.020	7.482	0.096	0.072
-108.005	-165.269	-0.130	-0.006
-106.991	389.487	0.150	-0.310
-105.976	-27.839	-0.210	0.121
-104.962	-200.000	-0.014	0.086
-103.947	19.694	0.327	0.262
-102.932	-55.693	0.392	-0.175
-101.918	355.832	-0.089	0.176
-100.903	-101.502	-0.321	-0.078
-99.889	-200.000	-0.010	0.080
-98.874	156.412	-0.105	-0.144
-97.859	-46.441	-0.131	0.064
-96.845	78.085	0.111	-0.117
-95.830	-200.000	-0.007	-0.065
-94.816	414.499	0.030	0.064
-93.801	-200.000	-0.025	-0.212
-92.786	124.482	-0.288	-0.360
-91.772	128.400	-0.058	0.074
-90.757	800.000	0.073	-0.251
-89.743	-145.574	0.469	0.042
-88.728	800.000	-0.024	-0.078
-87.713	355.881	0.112	-0.221
-86.699	45.104	-0.075	0.068
-85.684	620.551	-0.129	0.322
-84.670	-64.854	-0.230	-0.092
-83.655	-200.000	-0.044	-0.236
-82.640	800.000	0.103	0.302
-81.626	371.451	-0.089	-0.179
-80.611	-125.517	-0.136	0.021
-79.597	86.893	-0.053	0.058
-78.582	236.192	-0.155	0.255
-77.567	142.577	-0.078	0.103
-76.553	800.000	-0.072	0.243
-75.538	-200.000	0.014	0.081
-74.524	-7.462	-0.165	-0.111
-73.509	800.000	-0.038	0.124
-72.494	-18.700	0.046	-0.028
-71.480	-104.086	0.165	-0.038
-70.465	23.263	0.239	-0.195
-69.451	74.417	0.133	0.139
-68.436	651.145	-0.075	-0.192
-67.422	234.151	0.230	0.377
-66.407	-124.934	-0.441	0.068
-65.392	-200.000	0.003	0.384
-64.378	395.643	0.117	0.243
-63.363	-200.000	-0.041	0.226
-62.349	26.351	0.047	-0.039
-61.334	-20.554	-1.077	-0.657
-60.319	776.676	0.149	0.403
-59.305	536.682	-0.371	-0.875
-58.290	-200.000	0.156	0.944
-57.276	351.646	0.780	1.533
-56.261	-200.000	88.581	502.799
-55.246	432.432	1431.005	3080.841
-54.232	140.984	2646.311	3473.011
-53.217	109.020	2249.118	2670.152
-52.203	47.355	1682.228	1555.598
-51.188	39.845	1410.114	1256.367
-50.173	36.631	1366.264	1197.390
-49.159	55.570	1410.587	1355.701
-48.144	59.765	1428.854	1399.575
-47.130	40.434	1386.028	1238.393
-46.115	36.642	1368.756	1199.455
-45.100	36.381	1363.948	1193.578
-44.086	36.439	1361.194	1191.480
-43.071	36.339	1359.119	1189.000
-42.057	36.431	1356.451	1187.185
-41.042	36.327	1354.970	1185.203
-40.027	36.391	1353.303	1184.087
-39.013	36.503	1351.191	1182.880
-37.998	36.488	1349.555	1181.308
-36.984	36.592	1347.433	1180.037
-35.969	36.559	1345.371	1177.984
-34.954	36.532	1343.467	1176.110
-33.940	36.616	1342.318	1175.569
-32.925	36.563	1341.180	1174.201
-31.911	36.727	1339.354	1173.548
-30.896	36.637	1338.017	1171.791
-29.881	36.620	1336.893	1170.653
-28.867	36.652	1335.130	1169.254
-27.852	36.690	1333.228	1167.773
-26.838	36.725	1331.665	1166.569
-25.823	36.683	1330.795	1165.508
-24.809	36.635	1329.192	1163.770
-23.794	36.668	1327.699	1162.617
-22.779	36.647	1326.010	1160.962
-21.765	36.619	1325.206	1160.048
-20.750	36.664	1323.602	1158.865
-19.736	36.500	1322.366	1156.754
-18.721	36.461	1320.776	1155.083
-17.706	36.490	1319.621	1154.202
-16.692	36.505	1318.238	1153.039
-15.677	36.501	1317.340	1152.181
-14.663	36.500	1316.303	1151.221
-13.648	36.535	1314.956	1150.208
-12.633	36.577	1313.814	1149.415
-11.619	36.421	1313.409	1148.084
-10.604	36.407	1312.937	1147.543
-9.590	36.436	1311.363	1146.295
-8.575	36.417	1310.883	1145.720
-7.560	36.420	1309.968	1144.890
-6.546	36.410	1308.946	1143.889
-5.531	36.425	1307.728	1142.870
-4.517	36.418	1306.825	1141.993
-3.502	36.463	1305.722	1141.253
-2.487	36.425	1304.756	1140.136
-1.473	36.489	1301.343	1137.484
-0.458	35.686	1286.676	1119.944
0.556	30.982	1268.077	1082.087
1.571	27.290	1272.750	1064.424
2.586	26.108	1287.861	1069.964
3.600	24.885	1277.251	1053.860
4.615	21.455	1205.717	975.649
5.629	15.847	1131.101	885.761
6.644	12.993	1110.201	854.558
7.659	12.705	1107.462	850.884
8.673	12.654	1106.198	849.578
9.688	12.508	1105.214	847.994
10.702	12.939	1103.551	848.857
11.717	16.502	1108.701	871.136
12.731	20.415	1113.256	894.838
13.746	19.726	1111.173	889.541
14.761	17.745	1108.123	876.847
15.775	16.617	1105.461	868.871
16.790	15.452	1103.519	861.296
17.804	14.755	1101.678	856.212
18.819	14.310	1100.565	852.989
19.834	14.019	1099.449	850.563
20.848	13.697	1098.755	848.301
21.863	13.462	1097.612	846.144
22.877	13.359	1096.465	844.660
23.892	13.302	1096.048	843.969
24.907	13.339	1094.981	843.263
25.921	13.490	1094.000	843.202
26.936	13.440	1092.646	841.830
27.950	13.377	1091.440	840.508
28.965	13.581	1089.659	840.095
29.980	13.578	1088.224	838.899
30.994	13.568	1086.904	837.755
32.009	13.576	1086.242	837.211
33.023	13.579	1084.895	836.118
34.038	13.537	1084.054	835.183
35.053	13.545	1083.165	834.462
36.067	13.329	1082.385	832.702
37.082	13.523	1081.011	832.545
38.096	13.443	1080.808	831.914
39.111	13.470	1079.650	831.083
40.126	13.491	1078.093	829.919
41.140	13.321	1077.384	828.446
42.155	13.261	1075.797	826.853
43.169	13.313	1074.322	825.906
44.184	13.386	1073.462	825.534
45.199	13.247	1072.797	824.260
46.213	13.375	1071.349	823.709
47.228	13.322	1070.876	823.009
48.242	13.436	1069.339	822.324
49.257	13.378	1068.286	821.151
50.271	13.516	1066.957	820.740
51.286	13.436	1066.272	819.746
52.301	13.443	1065.589	819.184
53.315	13.461	1063.953	817.943
54.330	13.405	1063.013	816.872
55.344	13.380	1062.566	816.331
56.359	13.299	1061.487	815.033
57.374	13.404	1060.405	814.646
58.388	13.391	1059.214	813.594
59.403	13.253	1058.828	812.548
60.417	13.235	1058.126	811.850
61.432	13.212	1057.340	811.063
62.447	13.150	1056.156	809.778
63.461	13.101	1055.710	809.124
64.476	13.084	1054.477	808.025
65.490	13.214	1053.532	807.861
66.505	13.314	1052.904	807.801
67.520	13.185	1052.795	807.013
68.534	13.260	1051.627	806.413
69.549	13.293	1050.631	805.736
70.563	13.186	1049.768	804.485
71.578	13.206	1049.054	803.965
72.593	13.209	1048.303	803.331
73.607	13.096	1047.689	802.240
74.622	13.207	1046.636	801.902
75.636	13.256	1046.061	801.629
76.651	13.124	1045.654	800.604
77.666	13.107	1045.076	800.010
78.680	13.126	1044.293	799.433
79.695	13.201	1043.871	799.403
80.709	13.334	1042.956	799.273
81.724	13.370	1042.067	798.694
82.739	13.319	1041.536	797.970
83.753	13.549	1040.427	798.160
84.768	13.524	1039.778	797.470
85.782	13.541	1038.573	796.558
86.797	13.511	1038.019	795.917
87.812	13.404	1037.072	794.608
88.826	13.302	1036.268	793.432
89.841	13.443	1035.309	793.301
90.855	13.560	1034.352	793.061
91.870	13.631	1033.078	792.352
92.884	13.584	1032.639	791.722
93.899	13.584	1031.644	790.885
94.914	13.734	1030.764	790.859
95.928	13.616	1029.801	789.485
96.943	13.507	1029.295	788.512
97.957	13.491	1028.268	787.579
98.972	13.496	1027.140	786.669
99.987	13.569	1026.711	786.617
101.001	13.558	1025.422	785.507
102.016	13.602	1024.596	785.012
103.030	13.667	1023.988	784.786
104.045	13.553	1023.394	783.722
105.060	13.430	1022.709	782.544
106.074	13.556	1021.246	781.954
107.089	13.392	1020.717	780.706
108.103	13.366	1019.403	779.508
109.118	13.426	1018.623	779.126
110.133	13.337	1017.442	777.736
111.147	13.281	1016.884	776.974
112.162	13.313	1016.261	776.583
113.176	13.384	1015.098	775.955
114.191	13.377	1014.238	775.198
115.206	13.418	1013.311	774.612
116.220	13.393	1012.391	773.721
117.235	13.382	1011.441	772.878
118.249	13.333	1011.048	772.281
119.264	13.282	1009.742	770.976
120.279	13.499	1008.972	771.334
121.293	13.358	1008.536	770.276
122.308	13.254	1007.320	768.793
123.322	13.414	1006.213	768.625
124.337	13.401	1004.997	767.568
125.352	13.414	1003.800	766.645
126.366	13.381	1002.777	765.643
127.381	13.368	1002.034	764.948
128.395	13.268	1001.267	763.832
129.410	13.366	1000.280	763.465
130.424	13.479	998.931	762.889
131.439	13.522	998.592	762.758
132.454	13.537	997.661	762.048
133.468	13.492	997.260	761.471
134.483	13.570	996.193	760.943
135.497	13.461	995.464	759.819
136.512	13.557	994.544	759.490
137.527	13.531	993.373	758.411
138.541	13.545	992.941	758.078
139.556	13.566	992.151	757.502
140.570	13.645	991.309	757.155
141.585	13.727	990.260	756.663
142.600	13.807	989.417	756.317
143.614	13.745	988.626	755.359
144.629	13.708	988.198	754.800
145.643	13.825	986.821	754.213
146.658	13.633	985.976	752.629
147.673	13.512	985.473	751.626
148.687	13.584	984.342	751.025
149.702	13.422	983.967	749.937
150.716	13.565	983.121	749.873
151.731	13.561	982.168	749.062
152.746	13.604	981.232	748.476
153.760	13.676	980.411	748.109
154.775	13.742	979.966	748.002
155.789	13.742	979.648	747.692
156.804	13.650	978.865	746.614
157.819	13.643	978.094	745.927
158.833	13.816	977.059	745.853
159.848	13.839	976.582	745.523
160.862	13.779	975.388	744.277
161.877	13.730	974.672	743.446
162.892	13.715	973.228	742.212
163.906	13.767	972.105	741.521
164.921	13.730	971.666	740.957
165.935	13.731	970.441	739.963
166.950	13.726	969.719	739.321
167.964	13.775	968.950	738.887
168.979	13.726	967.849	737.767
169.994	13.599	967.520	736.884
171.008	13.691	966.626	736.548
172.023	13.749	965.810	736.118
173.037	13.839	964.927	735.778
174.052	13.870	964.257	735.341
175.067	13.807	963.543	734.452
176.081	13.676	963.271	733.600
177.096	13.660	962.618	732.969
178.110	13.729	961.976	732.718
179.125	13.811	960.858	732.166
180.140	13.805	960.646	731.912
181.154	13.725	960.778	731.596
182.169	13.866	960.150	731.672
183.183	13.888	959.299	731.055
184.198	14.008	957.947	730.487
185.213	14.042	957.422	730.173
186.227	14.018	956.780	729.512
187.242	13.991	955.969	728.711
188.256	14.016	955.639	728.506
189.271	14.054	954.247	727.548
190.286	14.058	953.175	726.684
191.300	13.855	952.837	725.472
192.315	13.815	952.337	724.852
193.329	13.757	951.808	724.134
194.344	13.843	951.107	723.913
195.359	13.902	950.603	723.719
196.373	13.969	949.897	723.410
197.388	14.054	949.481	723.400
198.402	14.120	948.699	723.026
199.417	14.199	948.246	722.963
200.432	14.271	947.575	722.699
201.446	14.228	947.504	722.395
202.461	14.194	947.054	721.838
203.475	14.261	946.147	721.376
204.490	14.321	944.859	720.588
205.504	14.314	944.114	719.926
206.519	14.173	943.670	718.916
207.534	14.161	943.388	718.585
208.548	14.218	942.277	717.920
209.563	14.295	941.316	717.456
210.577	14.192	940.952	716.671
211.592	14.318	940.163	716.549
212.607	14.442	939.161	716.256
213.621	14.394	938.371	715.385
214.636	14.476	937.411	714.941
215.650	14.473	936.990	714.544
216.665	14.398	936.457	713.751
217.680	14.349	935.720	712.918
218.694	14.572	934.892	713.176
219.709	14.471	934.402	712.308
220.723	14.418	933.760	711.528
221.738	14.632	932.573	711.475
222.753	14.522	932.047	710.541
223.767	14.548	931.464	710.145
224.782	14.654	930.908	710.111
225.796	14.743	930.158	709.854
226.811	14.543	929.364	708.333
227.826	14.652	928.958	708.426
228.840	14.482	928.613	707.378
229.855	14.595	927.427	706.890
230.869	14.680	926.636	706.584
231.884	14.612	926.017	705.765
232.899	14.531	925.284	704.799
233.913	14.585	924.522	704.387
234.928	14.589	923.983	703.927
235.942	14.575	923.265	703.259
236.957	14.391	923.212	702.383
237.972	14.537	922.255	702.208
238.986	14.425	921.469	701.074
240.001	14.450	921.139	700.866
241.015	14.777	919.909	701.242
242.030	14.668	919.624	700.505
243.045	14.686	919.192	700.191
244.059	14.733	918.383	699.709
245.074	14.747	917.531	699.058
246.088	14.797	917.056	698.843
247.103	14.844	916.391	698.470
248.117	14.853	916.009	698.152
249.132	14.876	915.451	697.763
250.147	15.042	914.648	697.781
251.161	14.970	914.003	696.927
252.176	15.073	913.767	697.113
253.190	15.130	912.604	696.403
254.205	15.052	911.991	695.549
255.220	14.991	911.348	694.742
256.234	15.107	910.743	694.701
257.249	15.219	909.741	694.342
258.263	15.104	909.057	693.281
259.278	15.068	908.853	692.915
260.293	15.086	908.148	692.391
261.307	15.148	907.803	692.322
262.322	15.307	907.064	692.353
263.336	15.308	906.092	691.555
264.351	15.267	905.456	690.841
265.366	15.274	904.553	690.117
266.380	15.261	903.970	689.558
267.395	15.224	903.656	689.106
268.409	15.353	902.406	688.622
269.424	15.329	901.598	687.848
270.439	15.300	900.936	687.163
271.453	15.308	900.244	686.607
272.468	15.339	899.585	686.171
273.482	15.349	899.136	685.806
274.497	15.274	898.210	684.734
275.512	15.319	897.542	684.347
276.526	15.362	897.648	684.545
277.541	15.373	896.780	683.866
278.555	15.435	896.354	683.734
279.570	15.460	896.005	683.509
280.585	15.434	894.819	682.438
281.599	15.475	894.099	681.995
282.614	15.550	893.323	681.645
283.628	15.467	892.818	680.865
284.643	15.305	892.649	680.020
285.657	15.532	891.602	680.081
286.672	15.526	890.958	679.502
287.687	15.476	890.322	678.758
288.701	15.499	889.780	678.375
289.716	15.540	889.033	677.912
290.730	15.568	888.428	677.503
291.745	15.578	888.293	677.382
292.760	15.637	887.532	676.980
293.774	15.731	886.942	676.845
294.789	15.620	886.290	675.844
295.803	15.593	885.628	675.168
296.818	15.652	884.612	674.574
297.833	15.716	883.862	674.198
298.847	15.649	883.569	673.646
299.862	15.648	883.171	673.279
300.876	15.729	882.333	672.903
301.891	15.770	882.016	672.768
302.906	15.894	881.004	672.433
303.920	15.834	880.953	672.094
304.935	15.939	879.673	671.476
305.949	15.896	879.180	670.867
306.964	15.920	878.964	670.741
307.979	15.896	878.119	669.942
308.993	15.977	877.616	669.818
310.008	15.881	877.419	669.227
311.022	15.850	876.522	668.361
312.037	15.897	875.905	668.020
313.052	15.909	875.342	667.577
314.066	15.852	874.328	666.519
315.081	16.011	873.944	666.797
316.095	15.792	873.429	665.478
317.110	15.936	872.788	665.502
318.125	15.890	872.583	665.104
319.139	15.959	872.295	665.096
320.154	15.859	871.498	664.039
321.168	16.046	870.755	664.148
322.183	15.926	870.433	663.371
323.197	15.996	869.836	663.134
324.212	16.050	869.042	662.681
325.227	16.002	868.740	662.203
326.241	15.906	868.325	661.451
327.256	16.022	867.147	660.951
328.270	15.931	866.778	660.255
329.285	16.109	866.158	660.421
330.300	16.019	865.870	659.790
331.314	16.060	865.207	659.388
332.329	16.030	864.914	658.988
333.343	16.064	864.168	658.496
334.358	16.213	863.971	658.870
335.373	16.149	863.307	658.056
336.387	16.174	863.050	657.900
337.402	16.381	862.925	658.552
338.416	16.191	862.704	657.582
339.431	16.270	862.036	657.323
340.446	16.242	861.649	656.861
341.460	16.412	861.329	657.221
342.475	16.347	861.037	656.686
343.489	16.544	859.929	656.548
344.504	16.459	859.360	655.725
345.519	16.491	859.357	655.789
346.533	16.508	858.982	655.512
347.548	16.430	858.063	654.452
348.562	16.305	857.824	653.729
349.577	16.206	857.129	652.756
350.592	16.397	856.437	652.910
351.606	16.374	855.713	652.210
352.621	16.457	855.183	652.070
353.635	16.358	854.372	651.013
354.650	16.495	853.479	650.802
355.665	16.433	853.148	650.252
356.679	16.493	852.501	649.934
357.694	16.522	851.614	649.310
358.708	16.569	850.785	648.803
359.723	16.463	850.524	648.138
360.738	16.477	849.968	647.710
361.752	16.579	849.393	647.608
362.767	16.610	849.144	647.476
363.781	16.749	848.056	647.123
364.796	16.842	847.799	647.226
365.810	16.673	847.767	646.497
366.825	16.769	847.328	646.472
367.840	16.905	846.520	646.316
368.854	16.715	845.947	645.099
369.869	16.958	845.694	645.772
370.883	16.807	845.364	644.887
371.898	16.848	844.819	644.574
372.913	16.877	844.358	644.273
373.927	16.868	843.712	643.689
374.942	16.983	843.366	643.805
375.956	16.960	843.140	643.489
376.971	16.941	842.917	643.190
377.986	17.018	842.356	642.994
379.000	17.027	841.788	642.541
380.015	16.954	840.974	641.584
381.029	17.055	840.021	641.184
382.044	17.037	839.726	640.834
383.059	17.204	839.327	641.101
384.073	17.175	838.653	640.422
385.088	17.009	838.151	639.354
386.102	16.871	837.800	638.511
387.117	16.936	837.270	638.296
388.132	17.054	836.247	637.901
389.146	17.146	835.944	637.962
390.161	17.126	835.220	637.279
391.175	17.249	834.855	637.402
392.190	17.076	834.238	636.229
393.205	17.109	833.982	636.100
394.219	17.076	833.473	635.533
395.234	17.098	833.155	635.316
396.248	17.085	832.497	634.710
397.263	17.000	832.508	634.345
398.278	17.082	831.627	633.922
399.292	17.119	831.269	633.730
400.307	17.166	831.056	633.689
401.321	16.959	830.484	632.425
402.336	17.104	830.087	632.605
403.350	17.145	829.419	632.195
404.365	17.241	829.091	632.245
405.380	17.421	828.559	632.451
406.394	17.481	827.737	631.993
407.409	17.412	827.568	631.552
408.423	17.420	827.257	631.288
409.438	17.375	827.215	631.031
410.453	17.622	826.356	631.236
411.467	17.622	825.680	630.664
412.482	17.711	825.111	630.503
413.496	17.677	824.947	630.195
414.511	17.688	824.763	630.041
415.526	17.604	824.399	629.396
416.540	17.681	823.501	628.939
417.555	17.642	823.103	628.437
418.569	17.545	822.937	627.897
419.584	17.669	822.317	627.825
420.599	17.699	821.961	627.608
421.613	99.956	1281.324	1424.990
422.628	86.249	1348.224	1425.106
