DTS Sentinel unit serial number:	SN413079Multiplexer serial number:	ORYXHardware model number:	OX4-SRSoftware version number:	ORYX F/W v4.00 Oryx Data Collector v3.7.2.0data status	okinstallation	princeton_trtdifferential loss correction	single-endedforward channel	channel 1reverse channel	N/Adate	2019/09/15time	23:58:35forward acquisition time	60.00reverse acquisition time	0.00gamma	496.2192k internal	0.2333k external	0.2333temperature offset calibration	0.9970default loss term (dB/km)	0.3790temperature slope calibration	1.0000multiplexer offset coefficient	1.0000multiplexer slope coefficient	1.0000fibre end	0.00T internal ref (°C)	27.87T ext. ref 1 (°C)	9.36T ext. ref 2 (°C)	21.82length (m)	temperature (°C)	Stokes	anti-Stokes-747.200	-93.875	-0.249	0.069
-746.185	446.427	-0.087	0.193
-745.171	-200.000	-0.031	-0.143
-744.156	4.071	-0.409	0.301
-743.142	-200.000	-0.008	0.377
-742.127	24.861	-0.423	0.352
-741.112	32.748	-0.256	0.222
-740.098	-87.488	-0.163	0.050
-739.083	788.176	-0.085	0.233
-738.069	208.383	0.161	0.254
-737.054	-200.000	0.010	-0.185
-736.039	57.725	-0.069	-0.068
-735.025	-137.471	0.400	-0.045
-734.010	-132.978	-0.396	0.051
-732.996	-70.917	-0.254	-0.096
-731.981	-15.024	-0.121	-0.078
-730.966	-200.000	-0.012	0.067
-729.952	36.607	-0.165	-0.146
-728.937	-200.000	0.006	0.157
-727.923	221.315	0.124	0.201
-726.908	41.532	-0.050	-0.045
-725.894	-106.575	-0.024	-0.005
-724.879	249.234	-0.181	-0.308
-723.864	-54.174	-0.151	-0.069
-722.850	800.000	0.046	0.144
-721.835	800.000	-0.178	0.522
-720.821	435.959	0.157	-0.342
-719.806	-7.878	-0.236	0.160
-718.791	51.059	-0.262	0.250
-717.777	-101.084	-0.158	-0.039
-716.762	-114.368	-0.235	0.045
-715.748	-56.597	-0.158	0.071
-714.733	464.953	-0.223	-0.500
-713.718	-91.972	-0.235	-0.067
-712.704	80.204	-0.219	-0.237
-711.689	470.037	0.154	0.347
-710.675	-61.120	-0.157	-0.067
-709.660	-97.753	-0.430	-0.112
-708.645	-136.632	-0.210	0.024
-707.631	156.095	-0.168	-0.232
-706.616	-149.602	0.154	0.012
-705.602	711.327	0.062	-0.165
-704.587	-47.234	-0.119	0.058
-703.572	149.051	-0.189	0.257
-702.558	-82.371	-0.329	0.107
-701.543	-117.111	-0.243	0.044
-700.529	-42.917	0.133	-0.068
-699.514	-48.767	-0.104	-0.050
-698.499	-128.100	-0.172	0.025
-697.485	785.941	0.092	-0.254
-696.470	-53.513	-0.212	-0.098
-695.456	-69.753	0.128	0.049
-694.441	-200.000	0.028	0.166
-693.426	48.289	-0.266	0.250
-692.412	800.000	-0.034	-0.104
-691.397	213.031	0.083	-0.132
-690.383	-108.188	-0.086	-0.019
-689.368	340.370	0.082	-0.160
-688.354	260.347	0.194	0.337
-687.339	-97.317	-0.189	-0.049
-686.324	-88.353	-0.185	0.055
-685.310	-200.000	-0.007	0.080
-684.295	163.208	-0.299	-0.422
-683.281	800.000	-0.101	-0.334
-682.266	13.385	-0.195	-0.152
-681.251	-16.133	-0.240	-0.153
-680.237	800.000	-0.060	-0.207
-679.222	-120.177	-0.069	-0.012
-678.208	-154.707	-0.178	-0.012
-677.193	-118.829	-0.513	0.090
-676.178	84.088	-0.192	-0.211
-675.164	-200.000	-0.044	-0.306
-674.149	472.380	0.228	0.514
-673.135	-32.309	-0.006	0.003
-672.120	-182.677	-0.263	0.005
-671.105	-33.322	0.248	-0.138
-670.091	1.822	0.397	0.287
-669.076	-96.389	-0.106	-0.028
-668.062	800.000	-0.055	0.214
-667.047	-92.578	-0.389	-0.109
-666.032	800.000	-0.097	0.339
-665.018	-77.796	-0.140	-0.049
-664.003	-161.394	-0.098	0.005
-662.989	800.000	0.010	0.043
-661.974	361.531	-0.130	0.262
-660.959	-139.557	0.221	-0.024
-659.945	38.346	0.428	-0.382
-658.930	13.071	0.117	-0.091
-657.916	162.198	-0.217	-0.305
-656.901	-200.000	-0.014	0.182
-655.886	138.585	-0.126	0.166
-654.872	372.914	-0.233	0.475
-653.857	800.000	-0.045	0.133
-652.843	-40.511	-0.102	0.053
-651.828	-103.015	0.086	0.021
-650.814	-158.041	-0.190	-0.011
-649.799	800.000	0.059	-0.179
-648.784	-200.000	-0.015	0.080
-647.770	-115.388	-0.394	-0.075
-646.755	110.409	-0.236	0.285
-645.741	-30.737	0.173	0.098
-644.726	-94.071	0.299	0.082
-643.711	-50.752	0.305	-0.144
-642.697	800.000	-0.034	-0.141
-641.682	-13.430	-0.207	-0.134
-640.668	-200.000	-0.045	-0.209
-639.653	-58.847	-0.181	0.078
-638.638	-200.000	-0.010	-0.147
-637.624	-200.000	0.058	-0.318
-636.609	-123.315	-0.289	-0.046
-635.595	800.000	-0.062	0.183
-634.580	-111.309	0.181	0.037
-633.565	25.367	-0.319	0.266
-632.551	-134.989	-0.184	0.022
-631.536	-200.000	-0.022	-0.121
-630.522	-105.948	0.083	0.019
-629.507	800.000	-0.023	0.093
-628.492	-200.000	0.017	-0.460
-627.478	70.028	0.147	-0.152
-626.463	-78.496	0.399	-0.137
-625.449	-44.536	0.081	0.040
-624.434	-121.736	-0.159	-0.026
-623.419	-96.487	-0.254	-0.067
-622.405	-200.000	-0.003	-0.157
-621.390	-200.000	0.029	-0.320
-620.376	-153.970	-0.171	-0.012
-619.361	42.296	-0.233	-0.212
-618.346	-30.132	-0.160	-0.091
-617.332	155.834	0.142	-0.196
-616.317	-56.017	0.425	0.190
-615.303	173.658	-0.143	0.207
-614.288	800.000	-0.173	-0.496
-613.273	-19.299	-0.216	-0.134
-612.259	-66.786	-0.241	0.095
-611.244	290.569	-0.159	0.288
-610.230	-83.835	-0.224	-0.071
-609.215	-200.000	0.044	0.232
-608.201	34.397	0.107	0.093
-607.186	-182.077	-0.266	-0.005
-606.171	-70.822	0.088	-0.033
-605.157	8.375	-0.321	-0.242
-604.142	74.294	0.273	-0.286
-603.128	-200.000	-0.009	0.088
-602.113	221.737	-0.048	0.078
-601.098	-200.000	0.008	-0.106
-600.084	-200.000	0.024	-0.247
-599.069	-200.000	0.000	0.016
-598.055	56.057	-0.190	-0.184
-597.040	244.111	0.120	-0.202
-596.025	-88.444	-0.104	0.031
-595.011	-42.447	-0.255	0.130
-593.996	-27.184	-0.368	-0.214
-592.982	34.985	0.085	0.075
-591.967	-116.121	0.111	0.021
-590.952	124.736	-0.102	-0.129
-589.938	254.433	-0.103	-0.176
-588.923	156.651	0.300	0.415
-587.909	32.694	0.072	-0.062
-586.894	-200.000	0.031	0.433
-585.879	800.000	-0.088	-0.320
-584.865	22.331	-0.082	-0.067
-583.850	576.195	0.062	0.152
-582.836	-200.000	0.039	-0.196
-581.821	-108.971	0.281	0.060
-580.806	16.334	0.277	-0.219
-579.792	-3.908	-0.138	0.096
-578.777	-92.058	0.262	0.074
-577.763	-51.574	0.275	-0.128
-576.748	800.000	0.028	-0.094
-575.733	32.433	0.102	0.088
-574.719	-120.173	-0.122	-0.021
-573.704	39.429	-0.041	-0.036
-572.690	34.371	0.217	-0.189
-571.675	-188.615	-0.235	0.003
-570.661	-35.992	-0.270	-0.146
-569.646	-20.964	-0.064	-0.039
-568.631	340.138	0.039	-0.075
-567.617	-200.000	-0.036	0.480
-566.602	-80.312	-0.204	0.068
-565.588	80.057	-0.143	-0.154
-564.573	-110.119	0.333	-0.069
-563.558	205.852	-0.173	-0.269
-562.544	-45.298	-0.108	0.054
-561.529	-146.646	-0.097	0.008
-560.515	169.994	0.061	0.087
-559.500	-78.214	0.173	0.059
-558.485	-34.487	-0.335	0.183
-557.471	-131.832	0.155	0.020
-556.456	2.649	-0.129	0.093
-555.442	202.606	0.154	-0.238
-554.427	-109.243	-0.282	-0.060
-553.412	-22.708	-0.118	0.071
-552.398	55.590	-0.034	0.033
-551.383	25.362	-0.172	0.142
-550.369	133.082	-0.087	0.112
-549.354	119.387	0.111	0.137
-548.339	800.000	-0.101	0.314
-547.325	-91.057	0.267	-0.077
-546.310	106.273	-0.186	0.220
-545.296	563.432	-0.054	-0.129
-544.281	800.000	0.039	-0.110
-543.266	800.000	-0.080	0.255
-542.252	32.894	-0.077	-0.066
-541.237	800.000	-0.060	0.243
-540.223	800.000	-0.074	-0.256
-539.208	-200.000	0.051	0.441
-538.193	-8.757	-0.317	-0.212
-537.179	75.552	0.086	-0.090
-536.164	67.218	0.049	-0.050
-535.150	-200.000	-0.022	0.175
-534.135	246.352	0.211	0.355
-533.121	53.788	0.114	-0.109
-532.106	55.418	-0.086	-0.083
-531.091	-158.736	0.275	0.016
-530.077	-52.796	0.049	-0.023
-529.062	800.000	-0.124	0.360
-528.048	800.000	-0.056	-0.228
-527.033	-150.635	-0.097	0.007
-526.018	-143.704	-0.136	0.013
-525.004	83.190	0.045	-0.049
-523.989	-109.340	-0.155	-0.033
-522.975	359.977	-0.059	0.118
-521.960	321.452	0.117	0.222
-520.945	-59.872	-0.028	-0.012
-519.931	1.596	-0.034	-0.025
-518.916	-152.567	-0.035	0.002
-517.902	-200.000	-0.022	0.158
-516.887	-200.000	-0.048	0.350
-515.872	-106.142	-0.179	0.040
-514.858	-200.000	0.014	-0.170
-513.843	-86.850	-0.123	0.037
-512.829	320.751	-0.119	0.225
-511.814	311.731	-0.168	0.313
-510.799	-200.000	-0.007	-0.371
-509.785	-200.000	-0.003	0.348
-508.770	-7.307	-0.173	-0.117
-507.756	-75.650	-0.188	-0.067
-506.741	-151.623	0.171	-0.013
-505.726	-145.524	0.135	0.012
-504.712	-109.629	-0.302	-0.063
-503.697	-12.695	-0.250	0.163
-502.683	-8.627	0.318	0.212
-501.668	-41.278	0.256	0.132
-500.653	-41.472	-0.189	0.097
-499.639	-88.600	0.105	-0.031
-498.624	800.000	0.042	0.151
-497.610	-76.263	-0.236	-0.083
-496.595	30.357	-0.278	-0.236
-495.581	-115.460	-0.319	0.060
-494.566	-167.185	-0.219	-0.009
-493.551	206.991	0.197	-0.305
-492.537	64.842	-0.093	-0.093
-491.522	2.749	-0.167	-0.121
-490.508	-200.000	0.016	0.086
-489.493	-200.000	-0.027	-0.209
-488.478	-53.271	-0.237	-0.108
-487.464	255.743	-0.184	-0.313
-486.449	-31.979	-0.146	0.082
-485.435	-63.248	0.124	0.051
-484.420	-28.980	0.279	-0.159
-483.405	800.000	-0.019	0.066
-482.391	-31.720	0.145	-0.081
-481.376	184.191	0.182	-0.268
-480.362	210.770	-0.101	0.158
-479.347	-108.688	-0.307	0.066
-478.332	-151.143	-0.039	-0.003
-477.318	-8.619	0.128	0.085
-476.303	-44.769	0.348	0.173
-475.289	56.857	0.239	-0.231
-474.274	-35.373	0.304	0.164
-473.259	-200.000	-0.029	0.183
-472.245	-56.073	0.393	-0.174
-471.230	92.886	-0.098	-0.110
-470.216	-126.329	0.043	0.006
-469.201	89.024	0.070	-0.078
-468.186	14.934	0.146	-0.114
-467.172	10.119	0.238	0.180
-466.157	800.000	0.067	-0.244
-465.143	-25.536	0.305	0.179
-464.128	311.916	-0.017	-0.031
-463.113	74.677	0.114	-0.119
-462.099	15.295	-0.144	0.112
-461.084	38.537	-0.078	0.069
-460.070	416.738	-0.012	-0.025
-459.055	-200.000	0.020	-0.275
-458.040	-200.000	-0.008	-0.088
-457.026	200.704	0.083	0.127
-456.011	-152.661	-0.278	-0.020
-454.997	-3.766	0.046	-0.032
-453.982	800.000	-0.096	-0.402
-452.968	322.319	-0.067	-0.127
-451.953	-59.957	0.424	0.180
-450.938	-54.969	0.271	0.121
-449.924	112.610	-0.070	0.085
-448.909	-169.038	-0.406	0.015
-447.895	-42.416	0.100	0.051
-446.880	188.544	0.279	-0.414
-445.865	320.125	-0.122	0.231
-444.851	452.684	0.118	0.259
-443.836	80.139	-0.112	-0.120
-442.822	-13.182	0.280	0.181
-441.807	185.493	-0.175	0.258
-440.792	7.751	-0.302	-0.225
-439.778	65.005	-0.046	-0.046
-438.763	195.208	0.141	0.213
-437.749	-200.000	-0.114	0.509
-436.734	-139.673	0.424	-0.045
-435.719	-37.046	-0.034	0.018
-434.705	324.676	0.047	-0.090
-433.690	800.000	0.029	0.083
-432.676	146.358	-0.162	0.216
-431.661	-200.000	0.051	-0.229
-430.646	-95.936	-0.396	-0.105
-429.632	-191.628	-0.382	-0.004
-428.617	75.584	0.144	0.151
-427.603	106.831	-0.325	-0.384
-426.588	-25.193	0.284	0.167
-425.573	-78.508	-0.306	-0.104
-424.559	344.585	0.068	-0.132
-423.544	-85.972	0.363	-0.112
-422.530	-56.939	0.136	-0.060
-421.515	800.000	0.068	0.217
-420.500	13.367	0.285	0.219
-419.486	463.325	0.089	-0.198
-418.471	-32.098	0.222	-0.123
-417.457	800.000	-0.069	0.290
-416.442	-200.000	-0.022	0.249
-415.428	800.000	0.070	-0.282
-414.413	-127.910	0.297	-0.042
-413.398	218.554	-0.068	-0.107
-412.384	800.000	-0.104	-0.447
-411.369	-137.988	0.172	-0.019
-410.355	-88.730	-0.249	0.074
-409.340	-200.000	-0.012	-0.297
-408.325	276.486	0.042	0.074
-407.311	5.218	0.119	-0.087
-406.296	121.758	0.029	-0.035
-405.282	28.194	-0.172	-0.144
-404.267	-42.053	-0.099	-0.050
-403.252	-123.768	0.233	-0.037
-402.238	-140.703	0.172	-0.018
-401.223	12.918	0.126	0.097
-400.209	800.000	-0.064	-0.197
-399.194	-200.000	0.019	-0.285
-398.179	459.131	0.063	0.139
-397.165	47.854	-0.272	0.252
-396.150	-31.492	-0.220	0.123
-395.136	13.253	-0.161	0.124
-394.121	237.673	-0.087	0.144
-393.106	-200.000	0.007	0.118
-392.092	-199.761	-0.228	-0.001
-391.077	101.575	-0.279	-0.323
-390.063	-93.390	-0.074	-0.020
-389.048	57.169	0.060	-0.058
-388.033	18.908	0.107	-0.085
-387.019	-200.000	-0.012	-0.084
-386.004	-47.342	-0.186	-0.090
-384.990	225.884	-0.218	-0.350
-383.975	86.908	-0.148	-0.162
-382.960	-91.866	-0.050	-0.014
-381.946	388.820	-0.095	-0.195
-380.931	-200.000	0.041	0.216
-379.917	-23.420	-0.149	0.089
-378.902	231.481	-0.032	-0.052
-377.888	-100.060	-0.341	-0.084
-376.873	-152.167	0.222	0.016
-375.858	-72.515	0.218	0.080
-374.844	800.000	0.034	0.147
-373.829	32.886	0.176	-0.151
-372.815	-200.000	-0.003	-0.083
-371.800	79.010	-0.099	-0.105
-370.785	-88.428	0.223	0.066
-369.771	-64.460	0.209	0.084
-368.756	-35.927	0.122	0.066
-367.742	70.071	0.184	0.189
-366.727	-70.983	0.179	0.067
-365.712	-73.649	-0.074	-0.027
-364.698	66.275	0.065	-0.066
-363.683	-121.525	-0.236	0.039
-362.669	-42.809	-0.311	-0.157
-361.654	188.112	0.142	0.210
-360.639	143.160	0.209	0.275
-359.625	632.578	0.071	-0.179
-358.610	-1.237	-0.167	-0.117
-357.596	777.742	0.080	-0.217
-356.581	175.766	-0.198	-0.284
-355.566	18.623	-0.138	-0.109
-354.552	-95.733	0.182	-0.048
-353.537	-48.795	0.088	0.042
-352.523	59.736	-0.207	0.203
-351.508	-145.000	-0.047	-0.004
-350.493	800.000	-0.150	0.522
-349.479	19.807	0.152	0.121
-348.464	800.000	0.008	0.034
-347.450	51.650	0.083	0.078
-346.435	68.619	0.151	0.153
-345.420	-182.987	-0.208	-0.004
-344.406	-70.404	0.176	-0.066
-343.391	-200.000	0.001	0.349
-342.377	463.416	0.051	-0.114
-341.362	340.025	-0.138	-0.266
-340.348	67.554	-0.114	0.115
-339.333	76.304	0.205	-0.215
-338.318	-3.180	0.321	-0.222
-337.304	-200.000	-0.067	0.305
-336.289	112.962	-0.107	0.128
-335.275	-63.109	0.433	-0.177
-334.260	-200.000	-0.077	-0.379
-333.245	-79.730	0.417	-0.139
-332.231	-33.975	-0.285	0.155
-331.216	136.350	-0.165	0.213
-330.202	81.034	-0.315	-0.336
-329.187	432.922	0.038	-0.082
-328.172	-155.464	-0.243	-0.016
-327.158	-22.502	0.524	0.314
-326.143	624.068	0.113	0.283
-325.129	-104.577	-0.156	-0.036
-324.114	-13.914	0.135	-0.086
-323.099	-141.850	0.117	-0.012
-322.085	-41.877	0.089	0.045
-321.070	-25.360	-0.052	-0.030
-320.056	79.166	0.052	0.055
-319.041	800.000	0.081	-0.279
-318.026	43.795	0.224	-0.202
-317.012	-200.000	0.057	-0.336
-315.997	-109.958	0.106	-0.022
-314.983	88.664	-0.209	-0.230
-313.968	59.751	-0.116	-0.113
-312.953	374.982	-0.145	0.292
-311.939	88.736	0.157	0.172
-310.924	-41.742	0.025	0.013
-309.910	10.000	0.299	0.225
-308.895	728.729	0.122	0.323
-307.880	800.000	0.042	0.146
-306.866	-200.000	-0.029	0.332
-305.851	286.873	-0.194	0.347
-304.837	209.461	-0.177	0.274
-303.822	-47.694	0.164	0.079
-302.807	-200.000	-0.072	-0.331
-301.793	111.295	0.186	0.222
-300.778	-200.000	0.030	-0.355
-299.764	800.000	0.069	0.223
-298.749	7.291	0.179	0.132
-297.735	-36.671	-0.135	-0.072
-296.720	800.000	-0.136	0.396
-295.705	465.253	-0.056	0.123
-294.691	69.634	0.076	0.078
-293.676	142.588	-0.147	0.193
-292.662	-158.883	0.149	0.008
-291.647	-33.960	-0.287	0.156
-290.632	54.725	0.273	-0.260
-289.618	114.543	-0.137	-0.165
-288.603	-107.559	0.203	-0.044
-287.589	666.377	0.109	0.278
-286.574	-167.595	-0.203	-0.008
-285.559	-185.854	0.105	-0.002
-284.545	14.333	-0.236	0.182
-283.530	-177.035	0.321	0.008
-282.516	-200.000	0.000	0.190
-281.501	212.011	0.052	0.081
-280.486	32.343	0.282	-0.240
-279.472	3.715	-0.045	-0.032
-278.457	242.263	0.183	-0.303
-277.443	531.665	0.093	0.217
-276.428	-33.088	0.260	0.143
-275.413	-67.001	0.128	0.050
-274.399	-106.291	0.297	-0.066
-273.384	-131.096	0.054	-0.007
-272.370	109.569	0.193	0.228
-271.355	-76.642	-0.359	0.124
-270.340	-133.023	0.807	-0.101
-269.326	800.000	0.061	-0.235
-268.311	-200.000	-0.024	0.183
-267.297	-118.524	0.086	0.015
-266.282	-200.000	-0.003	0.305
-265.267	446.236	-0.069	-0.150
-264.253	201.866	0.040	0.060
-263.238	-181.841	-0.208	-0.004
-262.224	-101.803	0.097	-0.023
-261.209	30.703	0.184	0.155
-260.195	40.249	-0.109	0.097
-259.180	800.000	-0.005	0.019
-258.165	515.691	0.027	0.062
-257.151	-200.000	-0.073	-0.414
-256.136	-171.959	0.203	-0.006
-255.122	-200.000	-0.016	0.103
-254.107	-65.384	0.059	-0.024
-253.092	-200.000	0.023	-0.143
-252.078	123.476	-0.051	-0.063
-251.063	-54.425	-0.048	-0.022
-250.049	115.410	-0.283	0.342
-249.034	102.739	0.183	-0.211
-248.019	-175.565	-0.146	0.004
-247.005	-119.812	0.082	0.014
-245.990	-31.244	-0.365	0.203
-244.976	301.307	-0.263	0.479
-243.961	-78.563	-0.089	-0.030
-242.946	-58.331	-0.080	-0.034
-241.932	445.912	0.093	-0.202
-240.917	800.000	0.032	0.131
-239.903	-200.000	0.034	0.240
-238.888	38.123	0.210	0.184
-237.873	-108.678	-0.293	-0.062
-236.859	-91.652	-0.192	-0.054
-235.844	-200.000	0.064	-0.298
-234.830	-113.368	-0.334	-0.065
-233.815	501.941	-0.070	-0.159
-232.800	71.092	0.176	-0.180
-231.786	54.104	-0.068	0.064
-230.771	42.864	-0.251	0.225
-229.757	-170.556	-0.324	-0.011
-228.742	-200.000	-0.012	-0.120
-227.727	-157.151	-0.163	-0.010
-226.713	-112.077	-0.009	0.002
-225.698	139.998	-0.125	-0.163
-224.684	234.631	-0.061	0.100
-223.669	725.603	-0.017	0.044
-222.655	259.826	0.159	0.271
-221.640	-200.000	0.029	-0.145
-220.625	-179.058	0.111	0.002
-219.611	164.999	0.114	-0.158
-218.596	112.238	0.187	0.223
-217.582	-147.220	-0.143	-0.012
-216.567	-40.948	0.155	0.079
-215.552	98.483	0.079	0.090
-214.538	63.881	0.375	-0.371
-213.523	-21.981	0.127	-0.076
-212.509	350.526	-0.031	0.061
-211.494	-200.000	0.017	-0.109
-210.479	-200.000	-0.081	-0.416
-209.465	-142.671	0.099	0.010
-208.450	-110.720	0.126	0.026
-207.436	-51.450	0.143	0.066
-206.421	-54.604	0.226	-0.101
-205.406	-200.000	-0.001	-0.227
-204.392	355.273	-0.029	0.057
-203.377	380.811	-0.070	0.142
-202.363	-198.108	0.194	0.001
-201.348	-51.762	0.223	-0.102
-200.333	-78.893	-0.439	0.147
-199.319	-119.202	-0.332	-0.057
-198.304	118.363	0.077	-0.093
-197.290	-54.581	0.123	0.055
-196.275	498.354	-0.099	0.223
-195.260	-135.578	0.138	-0.016
-194.246	-129.183	0.126	0.017
-193.231	0.903	0.343	0.242
-192.217	96.075	-0.155	0.175
-191.202	3.298	0.060	0.043
-190.187	134.378	0.215	-0.275
-189.173	-200.000	0.054	0.284
-188.158	-119.437	0.160	-0.027
-187.144	-200.000	-0.026	-0.211
-186.129	-111.730	0.123	0.025
-185.114	-69.233	0.210	0.079
-184.100	-152.357	-0.116	-0.008
-183.085	-58.808	-0.381	-0.162
-182.071	-22.935	-0.244	-0.145
-181.056	235.512	0.064	0.105
-180.042	228.224	-0.137	-0.220
-179.027	298.171	-0.156	0.282
-178.012	-200.000	0.087	0.510
-176.998	14.305	0.322	0.247
-175.983	1.289	-0.328	-0.231
-174.969	77.399	-0.128	-0.134
-173.954	74.104	0.063	-0.065
-172.939	-133.464	-0.039	-0.005
-171.925	93.814	-0.272	0.303
-170.910	203.358	0.133	-0.203
-169.896	-90.761	0.318	0.090
-168.881	-127.013	-0.356	-0.051
-167.866	20.842	0.231	-0.184
-166.852	-160.416	-0.027	-0.001
-165.837	-200.000	0.030	-0.612
-164.823	-155.820	0.266	0.017
-163.808	153.663	0.281	0.379
-162.793	-57.218	0.046	0.020
-161.779	174.198	0.080	-0.114
-160.764	-62.506	-0.218	0.089
-159.750	24.552	0.110	0.089
-158.735	-57.044	0.201	-0.087
-157.720	535.030	0.037	0.087
-156.706	-71.595	-0.242	-0.089
-155.691	-200.000	-0.004	0.317
-154.677	578.542	-0.097	-0.234
-153.662	-2.905	-0.120	-0.082
-152.647	800.000	0.061	0.223
-151.633	560.297	0.051	-0.121
-150.618	-148.624	0.130	0.010
-149.604	60.091	-0.055	0.054
-148.589	-95.259	-0.135	-0.036
-147.574	-46.383	-0.347	-0.168
-146.560	-200.000	0.040	-0.419
-145.545	118.028	-0.091	0.110
-144.531	102.147	0.042	0.048
-143.516	-21.682	0.071	0.043
-142.502	754.917	0.136	0.361
-141.487	-69.110	0.438	0.166
-140.472	58.096	0.250	0.240
-139.458	-29.461	-0.307	-0.172
-138.443	190.967	0.126	0.185
-137.429	-21.207	0.170	0.102
-136.414	51.608	-0.057	0.054
-135.399	-200.000	-0.019	0.581
-134.385	-157.789	-0.279	0.016
-133.370	46.862	-0.079	0.072
-132.356	-152.406	0.207	0.015
-131.341	800.000	-0.046	0.198
-130.326	-102.582	-0.264	-0.062
-129.312	-200.000	0.046	0.219
-128.297	800.000	0.092	0.254
-127.283	-200.000	-0.029	-0.396
-126.268	-67.284	-0.223	-0.086
-125.253	-118.877	-0.319	-0.055
-124.239	-13.944	0.123	0.078
-123.224	-81.515	-0.056	-0.018
-122.210	-29.073	-0.273	-0.154
-121.195	519.483	-0.082	0.188
-120.180	-200.000	-0.037	-0.508
-119.166	-79.293	-0.151	0.050
-118.151	249.518	-0.100	0.166
-117.137	-88.141	-0.351	0.103
-116.122	-200.000	0.014	0.324
-115.107	-107.886	0.091	-0.020
-114.093	-6.644	0.161	-0.107
-113.078	171.686	-0.077	-0.109
-112.064	-119.970	0.163	0.028
-111.049	-200.000	0.001	0.061
-110.034	-30.655	0.246	-0.137
-109.020	143.052	-0.025	0.033
-108.005	161.871	-0.078	0.107
-106.991	800.000	-0.091	0.325
-105.976	-200.000	-0.051	0.358
-104.962	291.171	0.090	0.160
-103.947	-99.666	0.325	0.080
-102.932	-43.330	-0.044	-0.022
-101.918	230.477	-0.195	0.313
-100.903	-200.000	0.026	0.219
-99.889	-200.000	-0.056	0.345
-98.874	94.667	-0.316	-0.352
-97.859	-88.141	0.232	-0.068
-96.845	-160.238	-0.242	-0.013
-95.830	-200.000	0.036	0.566
-94.816	135.190	0.127	0.161
-93.801	273.200	0.094	0.162
-92.786	618.778	-0.072	0.177
-91.772	45.262	0.279	-0.252
-90.757	-48.643	0.017	-0.008
-89.743	32.784	-0.206	0.175
-88.728	-86.180	-0.138	-0.042
-87.713	800.000	0.108	0.310
-86.699	-112.886	0.377	0.073
-85.684	-105.596	-0.134	-0.030
-84.670	-200.000	0.002	0.204
-83.655	-27.142	0.144	-0.082
-82.640	208.889	-0.095	0.146
-81.626	47.235	0.069	0.063
-80.611	164.413	0.104	-0.144
-79.597	-200.000	0.035	-0.404
-78.582	-87.781	-0.328	0.097
-77.567	-22.088	-0.070	0.042
-76.553	-192.068	-0.101	-0.001
-75.538	10.527	-0.178	-0.133
-74.524	373.412	-0.117	0.233
-73.509	24.977	-0.233	0.190
-72.494	480.715	0.176	0.391
-71.480	148.817	-0.051	-0.068
-70.465	77.087	0.182	0.190
-69.451	249.100	-0.234	-0.388
-68.436	800.000	0.086	0.334
-67.422	-200.000	0.025	-0.359
-66.407	-200.000	0.049	-0.296
-65.392	486.023	0.056	0.125
-64.378	-200.000	-0.016	0.218
-63.363	8.884	-0.104	-0.076
-62.349	62.810	0.131	0.129
-61.334	113.318	-0.977	-1.160
-60.319	46.865	0.437	0.398
-59.305	536.197	-0.415	-0.965
-58.290	464.782	0.566	1.239
-57.276	800.000	0.450	1.538
-56.261	-200.000	111.505	646.820
-55.246	488.324	1485.873	3321.358
-54.232	151.063	2648.076	3525.703
-53.217	105.173	2138.479	2470.484
-52.203	39.082	1595.181	1396.025
-51.188	31.165	1343.997	1128.519
-50.173	28.243	1306.659	1079.916
-49.159	56.424	1361.430	1295.226
-48.144	54.904	1376.726	1300.623
-47.130	31.452	1332.270	1120.211
-46.115	28.063	1315.010	1085.578
-45.100	27.792	1310.034	1079.823
-44.086	27.738	1307.861	1077.667
-43.071	27.757	1305.292	1075.624
-42.057	27.718	1303.321	1073.723
-41.042	27.709	1301.937	1072.486
-40.027	27.834	1299.951	1071.543
-39.013	27.796	1298.271	1069.896
-37.998	27.803	1296.445	1068.389
-36.984	27.839	1294.978	1067.349
-35.969	27.887	1292.968	1065.927
-34.954	27.832	1290.935	1063.889
-33.940	27.858	1290.013	1063.240
-32.925	27.971	1288.741	1062.807
-31.911	28.006	1287.038	1061.561
-30.896	27.983	1285.760	1060.333
-29.881	27.976	1284.911	1059.549
-28.867	27.966	1283.269	1058.097
-27.852	28.071	1281.327	1057.059
-26.838	28.030	1280.221	1055.870
-25.823	27.963	1279.082	1054.500
-24.809	28.050	1277.342	1053.526
-23.794	27.888	1276.561	1051.906
-22.779	27.870	1275.620	1050.984
-21.765	28.017	1273.877	1050.355
-20.750	27.895	1272.497	1048.474
-19.736	27.805	1270.903	1046.604
-18.721	27.842	1269.797	1045.861
-17.706	27.934	1268.436	1045.227
-16.692	27.852	1267.965	1044.326
-15.677	27.901	1266.603	1043.443
-14.663	27.932	1265.184	1042.413
-13.648	27.778	1264.521	1040.947
-12.633	27.742	1263.478	1039.837
-11.619	27.777	1262.563	1039.244
-10.604	27.810	1261.745	1038.717
-9.590	27.750	1261.136	1037.831
-8.575	27.785	1259.977	1037.040
-7.560	27.786	1259.115	1036.296
-6.546	27.803	1258.084	1035.500
-5.531	27.783	1257.204	1034.623
-4.517	27.781	1256.327	1033.845
-3.502	27.902	1255.250	1033.605
-2.487	27.903	1254.411	1032.880
-1.473	27.830	1249.987	1028.785
-0.458	26.181	1235.535	1007.655
0.556	21.111	1218.180	969.922
1.571	17.306	1224.898	953.882
2.586	16.588	1238.886	960.612
3.600	16.510	1228.656	952.157
4.615	14.786	1161.436	890.799
5.629	11.070	1095.301	821.286
6.644	9.456	1077.840	800.103
7.659	9.342	1075.373	797.637
8.673	9.322	1073.774	796.280
9.688	9.321	1072.867	795.532
10.702	9.425	1071.139	794.694
11.717	11.719	1073.145	807.450
12.731	15.296	1078.268	828.948
13.746	17.489	1080.199	841.207
14.761	17.466	1079.957	840.831
15.775	16.450	1078.334	834.479
16.790	15.234	1076.668	827.118
17.804	14.550	1074.504	822.014
18.819	14.237	1073.313	819.488
19.834	13.975	1072.147	817.240
20.848	13.782	1071.206	815.502
21.863	13.557	1070.275	813.613
22.877	13.466	1069.790	812.728
23.892	13.482	1069.041	812.165
24.907	13.485	1068.048	811.351
25.921	13.493	1067.008	810.533
26.936	13.420	1066.007	809.343
27.950	13.543	1064.549	808.763
28.965	13.584	1063.257	807.911
29.980	13.595	1061.749	806.745
30.994	13.650	1060.780	806.207
32.009	13.639	1059.567	805.158
33.023	13.678	1058.091	804.155
34.038	13.560	1057.392	802.982
35.053	13.519	1056.394	801.954
36.067	13.466	1055.632	801.047
37.082	13.596	1054.459	800.716
38.096	13.552	1053.936	800.035
39.111	13.584	1053.411	799.719
40.126	13.534	1052.038	798.368
41.140	13.414	1050.484	796.540
42.155	13.341	1049.536	795.396
43.169	13.235	1048.577	794.094
44.184	13.313	1047.627	793.674
45.199	13.360	1046.395	792.896
46.213	13.361	1045.219	791.941
47.228	13.556	1043.976	791.860
48.242	13.489	1042.980	790.715
49.257	13.527	1041.892	790.002
50.271	13.541	1041.217	789.490
51.286	13.479	1040.326	788.446
52.301	13.585	1039.720	788.425
53.315	13.342	1038.690	786.417
54.330	13.498	1037.181	785.948
55.344	13.366	1036.694	784.882
56.359	13.260	1035.961	783.754
57.374	13.406	1034.741	783.451
58.388	13.439	1033.872	782.881
59.403	13.350	1033.069	781.783
60.417	13.372	1032.377	781.294
61.432	13.289	1031.432	780.118
62.447	13.261	1030.659	779.335
63.461	13.182	1029.939	778.348
64.476	13.263	1028.637	777.676
65.490	13.309	1028.461	777.693
66.505	13.316	1027.415	776.862
67.520	13.284	1026.728	776.125
68.534	13.286	1026.335	775.769
69.549	13.309	1025.236	774.979
70.563	13.252	1024.719	774.251
71.578	13.194	1023.720	773.159
72.593	13.040	1023.168	771.950
73.607	13.246	1021.950	771.925
74.622	13.225	1021.254	771.235
75.636	13.244	1020.786	770.900
76.651	13.211	1020.178	770.219
77.666	13.209	1019.940	769.961
78.680	13.284	1018.731	769.329
79.695	13.108	1018.553	768.308
80.709	13.371	1017.561	768.713
81.724	13.367	1016.384	767.738
82.739	13.382	1015.999	767.449
83.753	13.363	1015.648	767.029
84.768	13.536	1014.414	766.830
85.782	13.492	1013.796	766.090
86.797	13.564	1012.672	765.506
87.812	13.610	1011.486	764.754
88.826	13.496	1010.821	763.658
89.841	13.574	1009.437	762.906
90.855	13.554	1008.875	762.320
91.870	13.563	1008.126	761.730
92.884	13.719	1007.052	761.565
93.899	13.748	1006.009	760.845
94.914	13.608	1005.678	759.883
95.928	13.601	1004.970	759.250
96.943	13.535	1004.095	758.221
97.957	13.520	1003.223	757.426
98.972	13.636	1002.128	757.062
99.987	13.547	1001.507	756.118
101.001	13.543	1000.267	755.096
102.016	13.583	999.309	754.488
103.030	13.799	998.302	754.644
104.045	13.715	997.941	753.924
105.060	13.611	997.181	752.810
106.074	13.474	996.158	751.350
107.089	13.478	994.767	750.250
108.103	13.298	994.328	749.041
109.118	13.418	993.104	748.595
110.133	13.332	992.293	747.527
111.147	13.377	991.679	747.200
112.162	13.422	990.727	746.620
113.176	13.586	989.600	746.445
114.191	13.609	988.864	745.928
115.206	13.501	988.219	744.891
116.220	13.355	987.606	743.706
117.235	13.413	986.441	743.024
118.249	13.475	985.607	742.604
119.264	13.372	984.873	741.528
120.279	13.476	983.579	740.954
121.293	13.488	982.961	740.476
122.308	13.427	982.303	739.643
123.322	13.450	981.161	738.818
124.337	13.490	979.946	738.015
125.352	13.367	979.243	736.873
126.366	13.373	977.973	735.878
127.381	13.403	976.955	735.182
128.395	13.396	976.166	734.490
129.410	13.415	975.643	734.118
130.424	13.258	974.750	732.683
131.439	13.457	974.005	732.942
132.454	13.583	972.906	732.608
133.468	13.451	972.577	731.710
134.483	13.520	971.347	731.024
135.497	13.465	970.294	729.924
136.512	13.614	969.639	730.026
137.527	13.517	968.912	728.985
138.541	13.577	968.733	729.052
139.556	13.466	967.923	727.888
140.570	13.619	967.299	728.025
141.585	13.742	966.074	727.581
142.600	13.730	965.433	726.979
143.614	13.700	964.807	726.315
144.629	13.797	963.819	725.931
145.643	13.701	963.023	724.845
146.658	13.726	961.721	723.914
147.673	13.713	960.794	723.092
148.687	13.739	959.648	722.280
149.702	13.606	959.115	721.234
150.716	13.649	958.002	720.522
151.731	13.722	957.577	720.454
152.746	13.657	956.906	719.604
153.760	13.666	956.246	719.082
154.775	13.714	955.560	718.712
155.789	13.813	954.957	718.624
156.804	13.798	954.160	717.898
157.819	13.718	953.723	717.157
158.833	13.839	953.278	717.283
159.848	13.835	952.261	716.435
160.862	13.821	951.335	715.616
161.877	13.719	950.303	714.337
162.892	13.716	949.296	713.503
163.906	13.709	948.325	712.680
164.921	13.720	947.719	712.209
165.935	13.713	946.891	711.496
166.950	13.904	945.833	711.453
167.964	13.868	945.210	710.770
168.979	13.871	943.890	709.728
169.994	13.725	943.386	708.663
171.008	13.908	942.394	708.634
172.023	14.047	941.467	708.467
173.037	13.872	941.350	707.568
174.052	13.902	940.202	706.772
175.067	13.878	939.832	706.329
176.081	13.775	939.141	705.309
177.096	13.808	938.603	704.985
178.110	13.873	938.236	704.924
179.125	13.930	937.635	704.651
180.140	14.006	936.469	704.035
181.154	13.946	936.521	703.756
182.169	13.928	935.935	703.178
183.183	14.023	934.976	702.798
184.198	14.032	934.091	702.108
185.213	14.040	933.822	701.878
186.227	14.195	932.878	701.758
187.242	14.143	932.638	701.296
188.256	14.181	931.966	700.889
189.271	14.094	931.609	700.192
190.286	14.052	930.307	698.974
191.300	13.863	929.554	697.551
192.315	13.794	929.035	696.812
193.329	13.791	928.510	696.344
194.344	14.036	927.769	696.755
195.359	14.103	927.174	696.526
196.373	14.069	926.750	696.002
197.388	14.155	926.525	696.134
198.402	14.200	926.092	695.937
199.417	14.292	925.122	695.528
200.432	14.213	924.757	694.860
201.446	14.381	923.654	694.673
202.461	14.364	924.054	694.844
203.475	14.323	923.246	694.003
204.490	14.291	922.199	693.022
205.504	14.329	921.519	692.607
206.519	14.360	920.503	691.908
207.534	14.320	919.807	691.160
208.548	14.297	919.195	690.543
209.563	14.331	918.659	690.220
210.577	14.331	918.340	689.918
211.592	14.441	917.432	689.631
212.607	14.538	916.651	689.383
213.621	14.530	915.860	688.694
214.636	14.432	915.265	687.781
215.650	14.545	914.522	687.629
216.665	14.574	913.637	687.020
217.680	14.672	912.849	686.772
218.694	14.510	912.732	685.958
219.709	14.594	911.905	685.621
220.723	14.618	911.127	685.072
221.738	14.625	910.524	684.590
222.753	14.540	909.839	683.663
223.767	14.743	909.106	683.883
224.782	14.687	908.918	683.451
225.796	14.712	908.493	683.173
226.811	14.616	907.721	682.143
227.826	14.543	907.057	681.283
228.840	14.502	906.354	680.529
229.855	14.568	904.973	679.699
230.869	14.587	904.551	679.399
231.884	14.599	903.892	678.894
232.899	14.546	903.026	677.966
233.913	14.617	902.386	677.717
234.928	14.644	901.576	677.157
235.942	14.627	901.056	676.638
236.957	14.517	900.800	675.940
237.972	14.617	900.144	675.794
238.986	14.670	899.202	675.242
240.001	14.699	898.565	674.818
241.015	14.746	897.877	674.432
242.030	14.733	897.459	674.006
243.045	14.726	896.716	673.359
244.059	14.769	896.074	672.991
245.074	14.758	895.895	672.754
246.088	14.841	894.903	672.285
247.103	14.888	894.251	671.922
248.117	14.906	894.177	671.882
249.132	14.959	893.723	671.693
250.147	15.093	892.786	671.465
251.161	14.996	892.422	670.745
252.176	15.121	891.484	670.482
253.190	15.252	890.748	670.390
254.205	15.372	889.514	669.881
255.220	15.157	889.225	668.746
256.234	15.184	888.529	668.272
257.249	15.190	887.923	667.783
258.263	15.312	887.343	667.771
259.278	15.193	886.991	666.974
260.293	15.185	886.509	666.520
261.307	15.226	885.764	666.063
262.322	15.268	885.170	665.726
263.336	15.299	884.296	665.133
264.351	15.326	883.418	664.519
265.366	15.338	882.890	664.113
266.380	15.243	882.496	663.380
267.395	15.379	881.543	663.142
268.409	15.277	880.848	662.160
269.424	15.381	879.914	661.810
270.439	15.392	879.198	661.254
271.453	15.431	878.575	660.882
272.468	15.287	878.343	660.080
273.482	15.377	877.943	660.078
274.497	15.316	877.141	659.177
275.512	15.262	876.469	658.401
276.526	15.306	876.319	658.401
277.541	15.415	875.254	657.969
278.555	15.507	874.749	657.894
279.570	15.513	874.185	657.434
280.585	15.452	873.604	656.702
281.599	15.530	872.509	656.125
282.614	15.736	871.715	656.271
283.628	15.552	871.610	655.419
284.643	15.614	870.886	655.058
285.657	15.673	870.197	654.709
286.672	15.560	869.643	653.796
287.687	15.624	868.716	653.290
288.701	15.647	868.093	652.853
289.716	15.720	867.676	652.767
290.730	15.757	867.092	652.414
291.745	15.739	866.324	651.707
292.760	15.656	866.167	651.211
293.774	15.886	864.964	651.138
294.789	15.702	864.939	650.350
295.803	15.710	863.801	649.469
296.818	15.666	863.093	648.709
297.833	15.698	862.662	648.451
298.847	15.769	862.157	648.286
299.862	15.704	861.673	647.616
300.876	15.888	860.866	647.660
301.891	15.937	860.426	647.458
302.906	15.876	859.668	646.597
303.920	15.978	859.376	646.712
304.935	16.050	858.944	646.606
305.949	15.937	858.099	645.480
306.964	15.990	857.392	645.092
307.979	15.851	857.055	644.250
308.993	15.917	856.580	644.088
310.008	16.032	855.924	643.976
311.022	15.925	855.548	643.229
312.037	15.968	854.828	642.796
313.052	15.892	853.991	641.819
314.066	15.896	853.659	641.529
315.081	15.993	852.921	641.286
316.095	15.940	852.392	640.629
317.110	16.021	851.906	640.517
318.125	15.875	851.544	639.633
319.139	16.088	850.869	639.875
320.154	15.970	850.504	639.098
321.168	16.061	849.986	638.996
322.183	16.049	849.417	638.469
323.197	16.026	849.149	638.123
324.212	16.069	848.539	637.769
325.227	15.978	847.872	636.868
326.241	16.097	847.021	636.622
327.256	16.148	846.925	636.689
328.270	16.133	846.182	636.015
329.285	16.182	845.654	635.745
330.300	16.002	844.860	634.415
331.314	16.080	844.715	634.545
332.329	16.233	843.723	634.317
333.343	16.228	843.925	634.395
334.358	16.165	843.517	633.794
335.373	16.312	842.565	633.576
336.387	16.193	842.696	633.171
337.402	16.189	842.463	632.926
338.416	16.290	842.207	633.057
339.431	16.358	841.765	632.921
340.446	16.393	841.270	632.625
341.460	16.425	840.662	632.230
342.475	16.529	840.004	632.068
343.489	16.682	839.614	632.290
344.504	16.560	839.370	631.596
345.519	16.580	838.819	631.200
346.533	16.467	838.435	630.436
347.548	16.436	837.937	629.889
348.562	16.278	837.520	628.932
349.577	16.572	836.491	629.196
350.592	16.497	835.941	628.449
351.606	16.439	835.523	627.864
352.621	16.353	835.130	627.194
353.635	16.418	834.199	626.680
354.650	16.619	833.646	626.954
355.665	16.453	833.108	625.880
356.679	16.573	832.158	625.552
357.694	16.533	831.787	625.071
358.708	16.507	831.216	624.491
359.723	16.652	830.639	624.537
360.738	16.627	829.681	623.670
361.752	16.730	829.141	623.588
362.767	16.660	828.824	623.037
363.781	16.828	828.030	623.002
364.796	16.947	827.993	623.357
365.810	16.827	827.385	622.402
366.825	16.864	826.830	622.067
367.840	16.933	826.417	621.953
368.854	17.017	825.867	621.793
369.869	16.911	825.271	620.901
370.883	16.966	825.099	620.916
371.898	17.021	824.737	620.790
372.913	17.043	824.309	620.494
373.927	16.980	823.622	619.693
374.942	17.013	823.281	619.502
375.956	17.034	823.116	619.399
376.971	17.155	822.341	619.203
377.986	17.080	822.142	618.723
379.000	17.185	821.664	618.691
380.015	17.155	820.964	618.001
381.029	17.086	820.738	617.525
382.044	17.217	819.757	617.208
383.059	17.257	819.135	616.829
384.073	17.164	818.607	616.043
385.088	17.160	817.865	615.414
386.102	17.051	817.853	614.956
387.117	17.105	816.749	614.268
388.132	17.245	816.411	614.463
389.146	17.174	816.093	613.914
390.161	17.023	816.077	613.302
391.175	17.159	815.037	612.956
392.190	17.243	814.386	612.717
393.205	17.291	813.863	612.441
394.219	17.113	813.791	611.690
395.234	17.074	813.381	611.190
396.248	17.002	813.013	610.600
397.263	17.064	812.420	610.324
398.278	17.153	812.001	610.275
399.292	17.216	811.474	610.050
400.307	17.109	811.014	609.267
401.321	17.107	810.605	608.897
402.336	17.144	810.222	608.689
403.350	17.161	810.083	608.591
404.365	17.318	809.258	608.480
405.380	17.422	808.608	608.309
406.394	17.447	808.289	608.105
407.409	17.372	808.261	607.761
408.423	17.509	807.613	607.708
409.438	17.524	807.540	607.656
410.453	17.683	806.765	607.585
411.467	17.691	806.273	607.187
412.482	17.555	806.230	606.617
413.496	17.722	805.773	606.814
414.511	17.756	805.003	606.300
415.526	17.660	804.514	605.538
416.540	17.780	804.015	605.535
417.555	17.738	803.761	605.142
418.569	17.703	803.434	604.719
419.584	17.752	803.021	604.528
420.599	17.782	802.430	604.135
421.613	111.587	1295.315	1477.978
422.628	96.187	1367.100	1478.082
