DTS Sentinel unit serial number:	SN413079Multiplexer serial number:	ORYXHardware model number:	OX4-SRSoftware version number:	ORYX F/W v4.00 Oryx Data Collector v3.7.2.0data status	okinstallation	princeton_trtdifferential loss correction	single-endedforward channel	channel 1reverse channel	N/Adate	2019/09/17time	01:10:35forward acquisition time	60.00reverse acquisition time	0.00gamma	496.2192k internal	0.2324k external	0.2324temperature offset calibration	0.9955default loss term (dB/km)	0.3790temperature slope calibration	1.0000multiplexer offset coefficient	1.0000multiplexer slope coefficient	1.0000fibre end	0.00T internal ref (°C)	29.48T ext. ref 1 (°C)	0.11T ext. ref 2 (°C)	24.20length (m)	temperature (°C)	Stokes	anti-Stokes-747.200	2.302	-0.190	0.139
-746.185	542.454	0.074	0.177
-745.171	0.386	-0.066	-0.048
-744.156	31.396	-0.317	0.275
-743.142	-200.000	0.031	0.156
-742.127	22.012	-0.118	0.097
-741.112	-200.000	-0.076	0.409
-740.098	29.008	0.059	0.051
-739.083	-200.000	-0.017	0.111
-738.069	-200.000	0.020	0.236
-737.054	225.422	-0.032	0.053
-736.039	-123.430	-0.413	-0.066
-735.025	-79.852	0.195	0.066
-734.010	198.301	0.124	-0.192
-732.996	91.368	-0.296	-0.335
-731.981	208.019	0.126	-0.198
-730.966	-94.763	0.056	0.015
-729.952	297.810	-0.085	-0.158
-728.937	348.535	-0.091	-0.181
-727.923	-200.000	0.038	0.304
-726.908	-122.718	0.097	0.016
-725.894	800.000	0.066	-0.284
-724.879	-200.000	0.044	-0.408
-723.864	637.741	-0.095	-0.243
-722.850	-79.098	-0.400	-0.137
-721.835	148.524	-0.191	-0.260
-720.821	-83.850	-0.363	0.117
-719.806	92.147	-0.158	0.180
-718.791	-200.000	-0.027	0.187
-717.777	-200.000	0.014	0.160
-716.762	800.000	-0.016	0.064
-715.748	-38.538	0.297	-0.158
-714.733	-139.502	-0.062	-0.007
-713.718	-57.343	0.312	0.138
-712.704	220.112	-0.183	0.295
-711.689	309.204	-0.039	-0.073
-710.675	-162.206	0.153	-0.008
-709.660	545.691	0.209	-0.503
-708.645	526.369	-0.143	-0.339
-707.631	323.734	0.133	0.256
-706.616	-41.134	-0.311	-0.162
-705.602	-200.000	-0.001	-0.197
-704.587	66.381	0.105	0.107
-703.572	-200.000	0.043	0.321
-702.558	800.000	0.049	-0.216
-701.543	240.557	0.039	-0.066
-700.529	-7.988	0.178	-0.121
-699.514	-128.386	-0.129	-0.018
-698.499	6.751	-0.048	-0.036
-697.485	177.132	-0.048	0.070
-696.470	-60.460	-0.198	0.085
-695.456	-134.241	-0.350	0.043
-694.441	-200.000	0.021	-0.107
-693.426	443.066	0.157	-0.346
-692.412	114.573	-0.153	-0.187
-691.397	19.947	-0.230	-0.187
-690.383	-200.000	0.021	0.170
-689.368	-200.000	0.052	0.267
-688.354	-55.295	-0.231	-0.104
-687.339	-10.990	0.246	-0.164
-686.324	-163.729	-0.160	-0.008
-685.310	111.484	0.173	-0.210
-684.295	-7.479	0.284	0.194
-683.281	800.000	0.045	-0.147
-682.266	-53.686	-0.317	-0.146
-681.251	800.000	-0.127	-0.413
-680.237	-200.000	0.030	0.178
-679.222	-105.877	-0.220	0.050
-678.208	4.993	0.136	0.101
-677.193	-154.515	-0.349	-0.023
-676.178	800.000	-0.056	0.240
-675.164	-200.000	-0.032	-0.379
-674.149	702.801	-0.155	-0.411
-673.135	113.349	0.095	0.116
-672.120	-200.000	-0.005	0.033
-671.105	77.222	0.082	-0.088
-670.091	-200.000	-0.018	-0.171
-669.076	-18.298	-0.163	0.102
-668.062	-46.243	-0.217	0.107
-667.047	-200.000	-0.079	-0.360
-666.032	89.801	-0.223	-0.251
-665.018	726.044	-0.146	-0.392
-664.003	-27.953	-0.225	-0.131
-662.989	79.013	-0.107	0.116
-661.974	157.972	-0.175	0.244
-660.959	305.528	0.155	0.291
-659.945	221.096	0.113	-0.182
-658.930	-34.136	-0.152	-0.084
-657.916	93.810	-0.191	-0.218
-656.901	-78.364	-0.076	-0.026
-655.886	-66.600	0.087	0.035
-654.872	-200.000	-0.004	0.210
-653.857	-200.000	0.001	-0.297
-652.843	190.672	-0.076	-0.115
-651.828	-25.733	-0.134	-0.079
-650.814	-111.916	-0.073	-0.015
-649.799	93.094	-0.122	-0.139
-648.784	434.882	-0.074	0.162
-647.770	-163.006	0.106	0.005
-646.755	70.615	-0.164	-0.170
-645.741	-82.639	0.437	0.142
-644.726	88.497	-0.301	-0.336
-643.711	695.586	-0.066	-0.174
-642.697	-52.729	-0.279	0.129
-641.682	-70.298	0.142	0.054
-640.668	800.000	-0.038	-0.134
-639.653	-200.000	0.061	-0.334
-638.638	-11.468	-0.293	-0.194
-637.624	10.299	-0.131	-0.100
-636.609	110.989	-0.171	0.208
-635.595	-75.425	-0.234	-0.084
-634.580	-55.465	-0.224	0.101
-633.565	-200.000	0.008	0.071
-632.551	138.115	0.184	0.242
-631.536	-200.000	0.031	0.154
-630.522	-166.244	-0.125	0.005
-629.507	-100.384	0.262	0.065
-628.492	226.872	-0.180	0.293
-627.478	81.359	0.316	-0.343
-626.463	42.261	0.197	0.180
-625.449	41.758	-0.072	0.065
-624.434	800.000	-0.110	-0.311
-623.419	14.896	-0.095	0.074
-622.405	-200.000	0.031	0.271
-621.390	-117.984	-0.215	-0.039
-620.376	100.151	-0.110	0.128
-619.361	177.583	0.142	-0.208
-618.346	800.000	0.065	0.198
-617.332	505.203	-0.140	0.326
-616.317	205.346	-0.082	-0.127
-615.303	-200.000	0.010	0.066
-614.288	-114.480	0.185	-0.036
-613.273	-48.348	0.180	-0.087
-612.259	0.604	0.054	-0.039
-611.244	31.352	0.148	0.127
-610.230	129.837	-0.188	0.242
-609.215	800.000	-0.056	-0.197
-608.201	143.906	-0.081	-0.108
-607.186	800.000	0.075	-0.293
-606.171	-200.000	-0.023	0.316
-605.157	-0.399	-0.086	-0.061
-604.142	96.750	-0.261	0.300
-603.128	-200.000	-0.019	-0.231
-602.113	10.124	-0.111	0.085
-601.098	-33.283	0.225	-0.125
-600.084	30.061	0.218	-0.186
-599.069	-200.000	0.046	0.228
-598.055	-200.000	0.014	0.115
-597.040	-80.785	-0.121	-0.040
-596.025	-12.651	0.123	0.081
-595.011	-200.000	0.028	0.464
-593.996	10.230	0.114	-0.087
-592.982	-161.409	-0.266	-0.014
-591.967	800.000	-0.029	0.103
-590.952	494.966	-0.178	-0.410
-589.938	24.528	-0.061	0.051
-588.923	612.183	0.122	0.306
-587.909	-200.000	-0.050	-0.263
-586.894	-200.000	-0.050	0.226
-585.879	130.474	-0.264	-0.339
-584.865	800.000	-0.079	-0.226
-583.850	-200.000	-0.006	0.313
-582.836	-200.000	0.052	-0.351
-581.821	-119.152	0.276	0.048
-580.806	225.117	-0.076	-0.124
-579.792	-108.562	-0.288	0.062
-578.777	66.109	-0.238	0.243
-577.763	-1.263	-0.195	-0.138
-576.748	-200.000	0.009	0.105
-575.733	280.154	-0.040	0.071
-574.719	-170.606	0.448	0.016
-573.704	-82.437	-0.163	-0.053
-572.690	106.378	-0.156	0.185
-571.675	-165.113	0.323	0.014
-570.661	25.040	-0.160	-0.133
-569.646	-200.000	-0.020	0.173
-568.631	-90.549	0.221	-0.064
-567.617	-1.485	-0.376	-0.266
-566.602	-16.199	-0.088	-0.056
-565.588	800.000	0.086	-0.253
-564.573	-200.000	0.029	0.226
-563.558	800.000	0.043	-0.145
-562.544	-200.000	0.018	-0.298
-561.529	-31.313	-0.150	-0.084
-560.515	333.553	-0.111	-0.215
-559.500	800.000	0.031	0.104
-558.485	295.282	0.269	-0.494
-557.471	-117.574	-0.269	-0.049
-556.456	271.045	-0.177	0.312
-555.442	-145.538	0.307	-0.028
-554.427	800.000	-0.064	-0.232
-553.412	-32.414	0.102	0.057
-552.398	-36.198	0.129	0.070
-551.383	-3.393	0.042	-0.029
-550.369	183.039	0.162	-0.240
-549.354	-162.562	0.307	-0.015
-548.339	182.592	0.038	-0.056
-547.325	-3.690	0.074	-0.052
-546.310	22.360	0.227	0.186
-545.296	171.620	0.034	0.049
-544.281	147.648	0.132	0.178
-543.266	-200.000	-0.001	0.258
-542.252	-4.213	-0.371	0.257
-541.237	-115.085	-0.139	-0.026
-540.223	494.946	-0.237	0.545
-539.208	390.099	-0.194	-0.402
-538.193	-200.000	0.021	-0.173
-537.179	-8.622	0.130	0.087
-536.164	-150.232	-0.332	-0.026
-535.150	-117.532	-0.085	-0.015
-534.135	800.000	-0.043	-0.156
-533.121	116.932	0.121	0.149
-532.106	-66.270	0.043	0.017
-531.091	-76.070	-0.481	-0.170
-530.077	230.339	-0.135	0.222
-529.062	-40.523	-0.351	-0.182
-528.048	171.346	-0.088	0.126
-527.033	800.000	0.081	0.268
-526.018	798.770	-0.060	0.167
-525.004	-87.000	-0.302	-0.092
-523.989	280.887	-0.092	0.164
-522.975	-179.207	0.258	0.006
-521.960	-92.524	-0.196	-0.055
-520.945	170.488	-0.078	0.112
-519.931	-97.909	-0.131	0.034
-518.916	-9.438	0.191	0.127
-517.902	92.666	-0.053	0.059
-516.887	800.000	-0.158	-0.451
-515.872	-196.271	0.256	0.002
-514.858	119.072	-0.142	-0.176
-513.843	-76.171	-0.098	-0.035
-512.829	-71.978	0.221	0.082
-511.814	-200.000	0.012	-0.133
-510.799	-39.631	0.020	0.010
-509.785	-12.805	-0.163	0.106
-508.770	37.576	-0.311	0.276
-507.756	-10.570	-0.128	0.085
-506.741	-200.000	0.157	-0.001
-505.726	-93.205	0.279	0.078
-504.712	800.000	0.082	0.234
-503.697	9.501	0.160	0.121
-502.683	-200.000	-0.068	-0.328
-501.668	-84.496	-0.147	0.046
-500.653	10.014	-0.085	-0.064
-499.639	365.887	-0.211	-0.425
-498.624	800.000	-0.030	-0.125
-497.610	-45.438	0.079	-0.039
-496.595	-200.000	0.024	-0.148
-495.581	-200.000	-0.014	0.214
-494.566	-90.774	-0.173	0.050
-493.551	800.000	0.082	-0.318
-492.537	800.000	-0.115	0.390
-491.522	171.775	0.097	0.139
-490.508	73.249	-0.129	-0.135
-489.493	9.570	-0.090	0.068
-488.478	30.537	-0.147	-0.126
-487.464	-200.000	-0.016	-0.091
-486.449	-200.000	-0.026	-0.314
-485.435	-184.475	-0.154	0.003
-484.420	-19.345	-0.259	0.161
-483.405	-26.388	0.009	0.005
-482.391	782.427	0.086	-0.236
-481.376	192.198	0.037	-0.056
-480.362	-119.576	0.284	0.049
-479.347	2.004	0.004	-0.003
-478.332	230.351	-0.059	0.096
-477.318	-133.022	0.179	-0.023
-476.303	-46.829	-0.366	0.179
-475.289	-90.541	-0.342	-0.099
-474.274	800.000	0.149	0.461
-473.259	-117.897	0.117	-0.021
-472.245	-36.175	-0.179	-0.097
-471.230	71.916	-0.343	-0.357
-470.216	800.000	-0.051	-0.189
-469.201	43.248	-0.085	0.077
-468.186	236.816	0.107	0.178
-467.172	110.009	-0.150	0.180
-466.157	2.892	-0.123	0.089
-465.143	137.222	-0.013	-0.017
-464.128	242.297	-0.138	-0.231
-463.113	-104.261	0.148	0.034
-462.099	800.000	0.094	0.283
-461.084	-60.104	-0.088	-0.038
-460.070	-133.440	0.041	0.005
-459.055	800.000	-0.064	-0.210
-458.040	63.277	-0.227	0.227
-457.026	194.527	0.120	0.181
-456.011	-48.760	0.287	-0.138
-454.997	-92.634	0.044	-0.012
-453.982	-200.000	0.018	0.089
-452.968	-200.000	0.011	-0.221
-451.953	32.814	-0.175	0.151
-450.938	363.269	0.035	0.070
-449.924	306.208	-0.228	0.422
-448.909	-200.000	-0.006	0.181
-447.895	11.834	-0.096	-0.074
-446.880	305.759	0.112	-0.209
-445.865	121.885	0.177	0.221
-444.851	12.332	0.062	0.047
-443.836	-200.000	0.019	-0.143
-442.822	157.092	0.059	-0.081
-441.807	-14.959	0.130	0.083
-440.792	-24.363	0.165	0.098
-439.778	-1.402	-0.156	-0.110
-438.763	45.418	0.131	0.120
-437.749	-14.063	0.083	0.053
-436.734	203.548	-0.155	0.239
-435.719	-200.000	-0.066	0.392
-434.705	-200.000	0.033	-0.252
-433.690	59.599	-0.077	-0.075
-432.676	800.000	0.116	0.452
-431.661	800.000	0.096	0.341
-430.646	362.879	0.128	0.257
-429.632	195.428	-0.139	0.210
-428.617	800.000	-0.086	0.296
-427.603	-116.077	0.215	-0.040
-426.588	416.096	0.093	0.197
-425.573	-65.091	0.199	0.080
-424.559	5.711	0.207	-0.153
-423.544	-92.442	0.072	0.020
-422.530	-137.926	-0.083	0.009
-421.515	-144.072	-0.236	0.022
-420.500	800.000	0.082	-0.227
-419.486	-200.000	0.036	0.233
-418.471	106.287	-0.046	0.054
-417.457	532.475	-0.058	-0.136
-416.442	564.823	0.058	-0.140
-415.428	-200.000	0.047	-0.336
-414.413	800.000	-0.048	-0.160
-413.398	-200.000	-0.026	-0.123
-412.384	217.666	0.050	0.080
-411.369	-84.837	-0.170	0.053
-410.355	-6.054	0.105	-0.071
-409.340	14.138	-0.058	-0.045
-408.325	41.328	0.157	-0.142
-407.311	120.107	-0.076	-0.094
-406.296	-200.000	0.021	0.161
-405.282	339.713	0.091	-0.177
-404.267	-200.000	-0.005	-0.047
-403.252	800.000	0.040	-0.171
-402.238	-51.000	-0.192	-0.090
-401.223	-200.000	0.015	-0.295
-400.209	-95.496	-0.077	0.020
-399.194	-30.965	0.098	-0.055
-398.179	-200.000	-0.019	0.123
-397.165	79.659	-0.229	-0.245
-396.150	-97.144	-0.031	0.008
-395.136	286.504	0.102	-0.183
-394.121	48.090	-0.095	-0.088
-393.106	6.456	0.409	-0.302
-392.092	320.306	-0.215	-0.406
-391.077	-45.181	0.069	-0.034
-390.063	-200.000	0.021	-0.265
-389.048	95.951	0.135	0.153
-388.033	-26.404	0.191	0.112
-387.019	711.072	-0.105	-0.276
-386.004	60.797	-0.183	-0.181
-384.990	-100.230	0.498	0.123
-383.975	678.655	-0.077	-0.199
-382.960	-121.416	-0.290	-0.048
-381.946	-200.000	-0.029	-0.349
-380.931	-54.994	0.102	-0.046
-379.917	-200.000	0.022	-0.218
-378.902	28.027	0.060	-0.050
-377.888	-25.933	0.176	0.103
-376.873	-200.000	-0.021	0.119
-375.858	16.906	-0.143	0.113
-374.844	-200.000	-0.004	0.164
-373.829	201.594	0.086	0.132
-372.815	-101.169	-0.195	0.047
-371.800	-91.797	-0.214	0.060
-370.785	-200.000	0.030	-0.204
-369.771	-60.954	-0.113	0.048
-368.756	-109.533	-0.233	-0.049
-367.742	-200.000	-0.000	-0.087
-366.727	-200.000	-0.006	0.101
-365.712	36.229	0.156	0.137
-364.698	800.000	-0.089	-0.278
-363.683	126.877	-0.039	0.049
-362.669	-86.125	0.297	0.091
-361.654	62.462	-0.135	-0.135
-360.639	-12.151	0.166	-0.108
-359.625	86.204	-0.157	-0.172
-358.610	-100.958	-0.075	-0.018
-357.596	21.744	-0.263	-0.213
-356.581	291.882	-0.117	0.212
-355.566	-67.573	-0.160	-0.062
-354.552	-8.085	-0.132	0.088
-353.537	308.973	-0.156	0.290
-352.523	800.000	0.040	-0.123
-351.508	-65.287	-0.172	0.069
-350.493	-52.426	-0.095	-0.044
-349.479	-20.506	0.067	0.041
-348.464	-200.000	0.044	0.214
-347.450	-22.896	0.081	-0.048
-346.435	133.094	0.091	0.116
-345.420	17.685	-0.190	0.150
-344.406	0.357	-0.131	0.093
-343.391	107.088	0.206	0.243
-342.377	800.000	-0.020	-0.083
-341.362	-200.000	0.013	-0.178
-340.348	-88.470	-0.118	0.035
-339.333	-200.000	0.050	0.301
-338.318	93.935	-0.115	0.129
-337.304	-200.000	-0.002	0.400
-336.289	28.458	0.122	-0.102
-335.275	-95.514	0.347	0.092
-334.260	-68.132	0.235	-0.091
-333.245	800.000	-0.022	0.092
-332.231	-74.317	0.173	-0.062
-331.216	183.717	0.070	-0.103
-330.202	-200.000	0.027	-0.230
-329.187	-200.000	0.045	0.213
-328.172	-85.215	0.175	0.054
-327.158	0.114	0.322	0.228
-326.143	189.234	-0.089	0.132
-325.129	435.172	0.156	-0.336
-324.114	-49.907	0.077	0.036
-323.099	-129.022	-0.230	0.032
-322.085	-200.000	-0.014	0.131
-321.070	768.128	-0.130	-0.351
-320.056	-81.002	-0.202	0.066
-319.041	-116.436	-0.144	0.026
-318.026	-39.228	0.153	-0.080
-317.012	158.311	0.217	0.298
-315.997	537.142	-0.082	-0.194
-314.983	-111.667	0.217	0.044
-313.968	-200.000	0.082	0.388
-312.953	-138.940	0.015	-0.002
-311.939	800.000	0.061	-0.192
-310.924	-116.831	0.084	0.015
-309.910	800.000	-0.010	0.040
-308.895	-45.584	-0.204	-0.100
-307.880	106.499	-0.169	0.199
-306.866	-174.630	-0.295	-0.008
-305.851	-85.559	0.070	0.022
-304.837	348.220	0.146	0.285
-303.822	66.921	0.261	0.263
-302.807	-76.211	0.198	-0.069
-301.793	-200.000	0.011	-0.052
-300.778	103.257	0.033	0.038
-299.764	454.470	-0.023	-0.051
-298.749	272.818	0.037	0.065
-297.735	-79.759	-0.275	-0.092
-296.720	-67.296	-0.120	-0.047
-295.705	-200.000	0.054	-0.275
-294.691	-70.398	-0.263	-0.099
-293.676	-115.798	0.439	0.081
-292.662	-36.220	0.198	0.106
-291.647	197.685	0.089	0.135
-290.632	-200.000	-0.049	-0.291
-289.618	328.454	0.116	-0.220
-288.603	-193.109	0.271	-0.002
-287.589	64.670	-0.100	0.100
-286.574	-112.785	-0.297	0.058
-285.559	-200.000	-0.044	0.527
-284.545	-108.185	0.140	-0.030
-283.530	-74.520	0.185	-0.066
-282.516	106.815	0.101	-0.119
-281.501	-39.915	0.213	-0.110
-280.486	-164.016	-0.067	0.003
-279.472	239.891	-0.105	-0.173
-278.457	632.892	0.105	0.263
-277.443	-65.042	0.244	-0.098
-276.428	800.000	-0.033	-0.118
-275.413	-72.037	-0.141	0.052
-274.399	-193.708	0.442	-0.004
-273.384	44.079	-0.107	0.097
-272.370	-99.302	-0.199	0.050
-271.355	221.108	-0.151	-0.240
-270.340	105.227	0.066	0.077
-269.326	-200.000	0.038	-0.274
-268.311	267.080	0.204	-0.353
-267.297	-79.567	0.101	-0.034
-266.282	-78.157	0.096	-0.033
-265.267	800.000	-0.083	-0.236
-264.253	-100.489	-0.057	0.014
-263.238	36.759	-0.097	-0.085
-262.224	-200.000	-0.031	0.190
-261.209	297.527	0.057	0.104
-260.195	800.000	0.036	0.137
-259.180	28.759	-0.375	-0.315
-258.165	-200.000	0.013	-0.159
-257.151	120.456	0.189	-0.233
-256.136	12.682	-0.220	0.168
-255.122	17.849	-0.185	0.146
-254.107	108.761	0.205	0.242
-253.092	86.811	0.199	-0.217
-252.078	-4.288	0.089	-0.061
-251.063	362.792	0.086	0.172
-250.049	54.357	-0.071	0.068
-249.034	415.003	0.112	-0.236
-248.019	259.128	0.067	-0.115
-247.005	-200.000	0.038	-0.252
-245.990	-51.598	-0.151	0.070
-244.976	14.873	-0.151	0.117
-243.961	-200.000	0.035	0.245
-242.946	800.000	0.036	0.148
-241.932	800.000	0.040	0.172
-240.917	-200.000	0.031	-0.234
-239.903	97.796	0.114	-0.130
-238.888	49.063	-0.087	-0.081
-237.873	-83.779	-0.141	0.044
-236.859	-90.902	-0.345	-0.098
-235.844	-200.000	0.049	-0.541
-234.830	176.427	0.176	0.253
-233.815	150.722	0.075	0.101
-232.800	-200.000	-0.025	0.165
-231.786	-39.242	0.281	-0.146
-230.771	86.282	0.064	-0.070
-229.757	-58.708	0.081	-0.035
-228.742	794.924	0.080	-0.219
-227.727	-95.716	-0.083	-0.022
-226.713	-142.843	-0.076	-0.007
-225.698	145.884	0.197	-0.262
-224.684	-158.084	0.352	0.020
-223.669	-140.489	0.206	0.021
-222.655	-115.739	0.289	0.054
-221.640	800.000	-0.013	0.044
-220.625	367.575	0.203	-0.405
-219.611	-79.621	0.402	-0.134
-218.596	437.401	0.112	-0.242
-217.582	126.726	0.100	0.125
-216.567	800.000	-0.041	0.179
-215.552	49.204	-0.128	-0.119
-214.538	-57.927	-0.116	-0.050
-213.523	106.193	-0.107	-0.126
-212.509	406.066	0.129	0.269
-211.494	68.787	0.269	0.273
-210.479	-200.000	0.126	0.000
-209.465	187.028	0.085	-0.125
-208.450	157.581	0.125	-0.171
-207.436	800.000	-0.016	0.056
-206.421	-133.083	0.581	0.073
-205.406	-150.887	-0.309	0.023
-204.392	120.739	0.020	0.024
-203.377	270.235	-0.104	-0.180
-202.363	800.000	-0.017	-0.048
-201.348	99.627	-0.107	-0.123
-200.333	-28.458	0.445	0.254
-199.319	800.000	-0.066	0.261
-198.304	-102.963	0.369	0.087
-197.290	-200.000	-0.043	-0.213
-196.275	-27.941	0.009	-0.005
-195.260	-200.000	0.025	0.236
-194.246	-126.884	0.072	0.011
-193.231	-111.389	0.263	0.053
-192.217	-200.000	0.031	-0.282
-191.202	-200.000	-0.029	-0.210
-190.187	-49.172	0.085	0.040
-189.173	9.773	-0.141	-0.106
-188.158	19.667	-0.069	0.055
-187.144	80.329	-0.209	-0.222
-186.129	504.671	0.136	0.312
-185.114	-29.457	0.368	-0.208
-184.100	34.502	0.083	0.071
-183.085	-200.000	0.004	-0.147
-182.071	-200.000	-0.017	-0.169
-181.056	-200.000	0.031	0.333
-180.042	547.151	0.056	-0.133
-179.027	-88.831	0.219	0.064
-178.012	-200.000	-0.030	0.326
-176.998	800.000	-0.045	-0.129
-175.983	47.150	0.112	0.103
-174.969	80.917	-0.173	0.184
-173.954	94.875	0.194	0.218
-172.939	-116.731	0.160	0.029
-171.925	290.281	-0.034	-0.061
-170.910	-200.000	-0.007	0.201
-169.896	61.198	0.209	0.205
-168.881	446.215	-0.140	-0.303
-167.866	-35.416	0.145	0.078
-166.852	-166.344	-0.283	-0.012
-165.837	108.519	0.242	-0.285
-164.823	-29.585	-0.186	0.105
-163.808	-16.280	0.154	-0.096
-162.793	-114.205	-0.344	0.066
-161.779	-119.178	-0.215	-0.037
-160.764	-200.000	0.040	0.382
-159.750	547.812	-0.123	-0.291
-158.735	99.343	-0.308	0.352
-157.720	152.665	-0.189	-0.255
-156.706	14.825	-0.088	0.068
-155.691	-200.000	-0.036	0.358
-154.677	-200.000	-0.047	0.244
-153.662	80.527	-0.303	0.322
-152.647	-50.047	0.218	-0.102
-151.633	-200.000	0.007	0.080
-150.618	800.000	-0.060	0.192
-149.604	-147.676	-0.025	-0.002
-148.589	680.241	-0.113	-0.290
-147.574	445.966	-0.101	0.218
-146.560	-154.009	0.281	-0.019
-145.545	110.456	0.080	0.094
-144.531	-65.292	-0.116	-0.046
-143.516	800.000	-0.052	0.187
-142.502	800.000	0.015	-0.060
-141.487	-36.431	-0.100	-0.053
-140.472	-135.053	-0.207	0.025
-139.458	137.978	-0.144	0.186
-138.443	800.000	-0.037	0.136
-137.429	-126.075	0.096	-0.014
-136.414	-200.000	-0.051	-0.234
-135.399	-84.134	-0.160	0.050
-134.385	27.720	0.202	0.167
-133.370	-146.481	0.514	0.044
-132.356	45.711	-0.167	-0.152
-131.341	-173.940	-0.050	0.001
-130.326	686.131	0.104	0.269
-129.312	-32.575	-0.185	-0.101
-128.297	-200.000	-0.015	0.079
-127.283	-162.128	-0.095	0.005
-126.268	249.459	-0.038	0.063
-125.253	22.237	0.187	0.150
-124.239	297.391	-0.046	0.084
-123.224	47.750	-0.061	0.056
-122.210	-200.000	0.006	-0.324
-121.195	800.000	-0.022	-0.078
-120.180	800.000	-0.028	-0.106
-119.166	-27.315	0.193	-0.111
-118.151	-160.678	-0.420	-0.022
-117.137	475.694	0.057	-0.127
-116.122	85.040	-0.349	-0.377
-115.107	-20.136	0.304	-0.185
-114.093	-15.018	-0.211	0.133
-113.078	201.699	0.154	-0.233
-112.064	264.502	0.132	0.227
-111.049	-81.981	0.369	-0.119
-110.034	518.498	0.068	0.156
-109.020	80.410	-0.077	0.081
-108.005	-58.592	-0.154	-0.066
-106.991	704.816	0.069	0.180
-105.976	800.000	-0.055	0.228
-104.962	-200.000	0.002	-0.307
-103.947	-69.912	-0.178	0.067
-102.932	-4.500	-0.164	0.111
-101.918	-47.248	0.082	-0.039
-100.903	115.208	0.153	0.184
-99.889	160.791	-0.096	0.132
-98.874	224.744	-0.073	0.116
-97.859	-150.888	-0.241	0.018
-96.845	367.118	0.200	0.397
-95.830	-200.000	-0.008	0.323
-94.816	65.727	0.212	-0.212
-93.801	-200.000	-0.030	0.171
-92.786	-156.801	0.140	-0.008
-91.772	-19.441	0.304	0.185
-90.757	-200.000	-0.019	0.295
-89.743	117.869	0.150	-0.182
-88.728	654.540	-0.139	0.350
-87.713	-200.000	0.025	0.188
-86.699	170.276	0.271	0.381
-85.684	255.547	0.241	0.406
-84.670	95.884	0.090	0.101
-83.655	1.909	-0.074	0.053
-82.640	546.726	0.094	-0.221
-81.626	-200.000	-0.039	-0.204
-80.611	25.316	0.285	-0.233
-79.597	54.933	-0.083	0.079
-78.582	-121.511	-0.207	-0.034
-77.567	15.867	0.246	0.190
-76.553	105.500	-0.194	-0.225
-75.538	-87.379	0.241	0.072
-74.524	-145.055	0.144	0.013
-73.509	-109.049	-0.177	0.037
-72.494	800.000	0.057	-0.210
-71.480	-64.054	-0.407	-0.163
-70.465	-200.000	-0.015	0.065
-69.451	184.563	-0.128	0.187
-68.436	800.000	-0.037	-0.123
-67.422	-200.000	-0.013	0.125
-66.407	800.000	0.144	0.447
-65.392	-3.816	-0.141	-0.096
-64.378	17.375	-0.131	-0.102
-63.363	800.000	-0.107	-0.333
-62.349	187.195	-0.075	-0.110
-61.334	11.370	-1.047	-0.788
-60.319	24.013	0.478	0.387
-59.305	800.000	-0.418	-1.193
-58.290	136.383	0.770	0.987
-57.276	800.000	0.397	1.461
-56.261	-200.000	108.910	593.909
-55.246	443.685	1484.637	3199.000
-54.232	146.395	2665.691	3516.870
-53.217	105.891	2156.543	2507.253
-52.203	40.725	1606.062	1422.801
-51.188	33.014	1346.536	1146.275
-50.173	29.912	1305.693	1093.176
-49.159	54.457	1360.201	1287.392
-48.144	54.516	1375.577	1302.248
-47.130	33.041	1330.359	1132.488
-46.115	29.731	1312.970	1098.022
-45.100	29.535	1307.745	1092.446
-44.086	29.367	1305.819	1089.804
-43.071	29.409	1302.989	1087.645
-42.057	29.346	1300.784	1085.391
-41.042	29.350	1299.191	1084.039
-40.027	29.394	1297.625	1082.951
-39.013	29.330	1295.972	1081.151
-37.998	29.386	1293.918	1079.722
-36.984	29.427	1292.409	1078.664
-35.969	29.528	1290.301	1077.448
-34.954	29.531	1288.623	1076.024
-33.940	29.576	1287.558	1075.355
-32.925	29.576	1286.163	1074.146
-31.911	29.506	1284.966	1072.697
-30.896	29.575	1283.232	1071.607
-29.881	29.525	1282.557	1070.709
-28.867	29.478	1280.741	1068.876
-27.852	29.585	1279.014	1068.013
-26.838	29.589	1277.729	1066.921
-25.823	29.567	1276.571	1065.783
-24.809	29.586	1275.279	1064.773
-23.794	29.594	1273.721	1063.476
-22.779	29.667	1272.168	1062.556
-21.765	29.580	1271.707	1061.630
-20.750	29.658	1269.776	1060.423
-19.736	29.434	1268.872	1058.345
-18.721	29.390	1267.746	1057.111
-17.706	29.428	1266.540	1056.282
-16.692	29.503	1265.444	1055.752
-15.677	29.366	1264.524	1054.162
-14.663	29.513	1263.107	1053.774
-13.648	29.441	1261.884	1052.302
-12.633	29.386	1261.233	1051.403
-11.619	29.352	1260.400	1050.474
-10.604	29.426	1259.444	1050.056
-9.590	29.500	1258.345	1049.521
-8.575	29.461	1257.571	1048.610
-7.560	29.367	1256.993	1047.553
-6.546	29.459	1255.669	1046.931
-5.531	29.415	1255.115	1046.176
-4.517	29.400	1254.077	1045.185
-3.502	29.369	1253.349	1044.363
-2.487	29.321	1252.503	1043.346
-1.473	29.398	1248.213	1040.165
-0.458	28.046	1233.265	1020.132
0.556	22.780	1217.082	983.581
1.571	19.387	1223.091	969.310
2.586	18.627	1237.935	976.663
3.600	18.450	1226.999	966.952
4.615	13.509	1153.626	882.773
5.629	4.688	1077.644	780.462
6.644	0.483	1057.993	745.420
7.659	0.048	1055.624	741.540
8.673	-0.010	1054.907	740.688
9.688	-0.089	1053.188	739.025
10.702	0.250	1051.445	739.400
11.717	5.412	1058.661	769.874
12.731	13.918	1069.611	819.925
13.746	17.562	1073.258	840.664
14.761	17.003	1072.219	837.020
15.775	15.953	1070.164	830.171
16.790	14.817	1068.257	823.024
17.804	14.255	1066.517	818.845
18.819	13.948	1065.596	816.559
19.834	13.741	1064.086	814.313
20.848	13.448	1063.361	812.249
21.863	13.237	1062.630	810.583
22.877	12.971	1061.894	808.648
23.892	12.968	1061.019	807.894
24.907	12.919	1060.611	807.273
25.921	13.132	1059.507	807.402
26.936	12.936	1059.221	806.156
27.950	12.994	1058.184	805.576
28.965	13.198	1056.652	805.336
29.980	13.265	1055.618	804.802
30.994	13.181	1054.644	803.580
32.009	13.365	1053.403	803.454
33.023	13.293	1052.055	802.010
34.038	13.221	1051.414	801.100
35.053	13.308	1050.669	800.882
36.067	13.137	1049.735	799.273
37.082	13.198	1048.992	798.930
38.096	13.216	1048.676	798.706
39.111	13.213	1047.909	798.035
40.126	13.109	1046.584	796.453
41.140	13.070	1045.220	795.161
42.155	12.927	1044.578	793.912
43.169	13.051	1043.209	793.398
44.184	12.958	1042.406	792.270
45.199	12.914	1041.335	791.174
46.213	13.043	1039.934	790.659
47.228	13.029	1039.255	790.007
48.242	13.116	1038.295	789.619
49.257	12.931	1038.009	788.450
50.271	13.159	1036.513	788.332
51.286	13.033	1035.970	787.248
52.301	13.091	1034.665	786.463
53.315	13.150	1033.621	785.880
54.330	13.036	1033.164	784.920
55.344	12.950	1032.220	783.727
56.359	13.105	1030.742	783.271
57.374	12.993	1030.173	782.238
58.388	12.947	1029.336	781.313
59.403	12.894	1028.500	780.358
60.417	12.990	1027.933	780.313
61.432	13.045	1027.051	779.834
62.447	12.872	1026.261	778.350
63.461	12.913	1025.267	777.723
64.476	12.962	1024.292	777.141
65.490	12.815	1023.974	776.142
66.505	12.913	1022.992	775.788
67.520	13.007	1022.395	775.708
68.534	12.917	1021.305	774.390
69.549	12.893	1020.971	773.960
70.563	12.961	1020.128	773.570
71.578	12.893	1019.289	772.545
72.593	12.866	1018.445	771.712
73.607	12.718	1017.825	770.478
74.622	13.002	1017.045	771.149
75.636	12.870	1016.552	770.090
76.651	12.924	1015.884	769.768
77.666	12.942	1014.788	768.955
78.680	13.019	1014.372	768.932
79.695	12.872	1013.455	767.482
80.709	13.045	1013.142	767.980
81.724	12.992	1012.480	767.165
82.739	13.090	1011.562	766.856
83.753	13.062	1010.963	766.205
84.768	13.206	1010.220	766.244
85.782	13.185	1008.997	765.151
86.797	13.162	1008.462	764.570
87.812	13.092	1007.595	763.520
88.826	13.166	1006.491	762.958
89.841	13.113	1005.930	762.223
90.855	13.164	1004.825	761.551
91.870	13.223	1003.998	761.131
92.884	13.155	1003.414	760.308
93.899	13.258	1002.540	760.050
94.914	13.424	1000.966	759.554
95.928	13.329	1000.644	758.805
96.943	13.389	999.426	758.089
97.957	13.213	998.918	756.833
98.972	13.207	998.045	756.076
99.987	13.203	997.193	755.343
101.001	13.155	996.395	754.456
102.016	13.199	995.689	754.055
103.030	13.313	994.624	753.702
104.045	13.267	993.895	752.872
105.060	13.355	992.616	752.236
106.074	13.207	992.012	751.039
107.089	13.118	991.250	749.993
108.103	12.955	990.227	748.411
109.118	13.104	989.135	748.193
110.133	13.081	988.313	747.402
111.147	13.009	987.537	746.426
112.162	12.998	986.999	745.903
113.176	13.164	986.055	745.873
114.191	13.061	985.624	745.016
115.206	13.117	984.296	744.199
116.220	13.063	983.646	743.399
117.235	13.187	982.250	742.836
118.249	13.040	981.985	741.907
119.264	13.139	980.857	741.433
120.279	13.120	980.537	741.041
121.293	13.088	979.808	740.280
122.308	12.986	978.622	738.862
123.322	13.002	977.623	738.115
124.337	13.093	976.345	737.491
125.352	13.082	975.615	736.826
126.366	13.091	974.520	735.974
127.381	13.089	973.248	734.939
128.395	13.060	972.588	734.245
129.410	13.144	971.592	733.801
130.424	13.177	970.763	733.257
131.439	13.050	970.379	732.338
132.454	13.129	969.580	732.023
133.468	13.158	968.406	731.201
134.483	13.131	967.764	730.532
135.497	13.241	966.628	730.093
136.512	13.121	965.679	728.785
137.527	13.249	964.685	728.534
138.541	13.185	964.386	727.963
139.556	13.229	963.811	727.656
140.570	13.210	963.156	727.015
141.585	13.300	961.797	726.320
142.600	13.303	960.911	725.601
143.614	13.282	960.228	724.925
144.629	13.318	959.968	724.824
145.643	13.343	958.354	723.649
146.658	13.316	957.769	723.026
147.673	13.368	956.310	722.086
148.687	13.222	956.016	721.165
149.702	13.098	955.504	720.177
150.716	13.252	954.283	719.862
151.731	13.167	953.810	719.070
152.746	13.325	952.635	718.808
153.760	13.368	952.156	718.569
154.775	13.450	951.623	718.460
155.789	13.367	951.316	717.806
156.804	13.260	950.509	716.668
157.819	13.387	949.811	716.629
158.833	13.315	949.472	715.999
159.848	13.537	948.067	715.833
160.862	13.493	947.222	714.944
161.877	13.401	946.312	713.797
162.892	13.305	945.123	712.424
163.906	13.405	944.135	712.047
164.921	13.348	943.683	711.397
165.935	13.466	942.517	710.961
166.950	13.491	942.078	710.676
167.964	13.337	941.200	709.288
168.979	13.443	940.179	708.909
169.994	13.526	939.181	708.452
171.008	13.543	938.587	708.014
172.023	13.591	937.781	707.549
173.037	13.606	937.215	707.120
174.052	13.443	936.897	706.123
175.067	13.371	935.894	704.999
176.081	13.348	935.553	704.581
177.096	13.447	934.733	704.321
178.110	13.483	934.169	703.987
179.125	13.467	933.514	703.362
180.140	13.598	932.956	703.439
181.154	13.378	933.045	702.510
182.169	13.610	932.003	702.647
183.183	13.724	931.085	702.373
184.198	13.774	930.414	702.019
185.213	13.675	929.934	701.176
186.227	13.692	929.148	700.591
187.242	13.760	928.840	700.586
188.256	13.788	928.080	700.069
189.271	13.725	927.264	699.124
190.286	13.687	926.466	698.299
191.300	13.497	925.759	696.908
192.315	13.534	924.982	696.415
193.329	13.454	924.922	695.972
194.344	13.701	923.814	696.112
195.359	13.845	922.705	695.820
196.373	13.676	922.561	694.941
197.388	13.738	922.519	695.109
198.402	13.836	922.067	695.119
199.417	13.933	921.150	694.769
200.432	13.857	920.675	694.033
201.446	13.860	920.667	693.976
202.461	14.017	919.584	693.758
203.475	14.050	919.058	693.435
204.490	13.894	918.100	691.999
205.504	13.935	917.721	691.823
206.519	13.881	916.711	690.776
207.534	13.886	915.983	690.188
208.548	13.936	915.312	689.829
209.563	13.792	914.886	688.850
210.577	14.080	914.023	689.336
211.592	13.999	913.621	688.632
212.607	13.990	912.557	687.733
213.621	14.033	911.819	687.292
214.636	14.140	911.338	687.314
215.650	14.043	910.498	686.217
216.665	14.148	909.681	685.975
217.680	14.155	909.304	685.660
218.694	14.186	908.788	685.334
219.709	13.980	908.330	684.081
220.723	14.149	907.407	684.021
221.738	14.187	906.508	683.440
222.753	14.362	905.673	683.469
223.767	14.306	905.684	683.185
224.782	14.203	904.698	681.958
225.796	14.256	904.488	681.957
226.811	14.461	903.358	681.885
227.826	14.194	903.324	680.707
228.840	14.255	902.155	680.013
229.855	14.410	900.994	679.713
230.869	14.195	900.908	678.710
231.884	14.049	900.381	677.657
232.899	14.328	899.092	677.764
233.913	14.278	898.286	676.893
234.928	14.417	897.494	676.798
235.942	14.163	897.420	675.654
236.957	14.318	896.790	675.746
237.972	14.226	895.914	674.656
238.986	14.272	895.457	674.436
240.001	14.297	895.306	674.366
241.015	14.357	894.367	673.840
242.030	14.395	893.679	673.416
243.045	14.332	893.165	672.713
244.059	14.394	892.532	672.427
245.074	14.364	892.165	671.972
246.088	14.485	891.204	671.675
247.103	14.576	890.508	671.459
248.117	14.572	890.392	671.296
249.132	14.664	889.610	671.017
250.147	14.736	888.921	670.725
251.161	14.611	888.653	669.965
252.176	14.617	887.702	669.210
253.190	14.727	886.822	668.927
254.205	14.821	886.283	668.841
255.220	14.805	885.696	668.272
256.234	14.700	885.070	667.322
257.249	14.886	884.131	667.298
258.263	14.775	883.277	666.152
259.278	14.912	882.681	666.189
260.293	14.873	882.522	665.855
261.307	15.010	881.956	665.915
262.322	14.709	881.325	664.180
263.336	14.891	880.529	664.246
264.351	14.854	879.741	663.448
265.366	14.877	879.263	663.116
266.380	14.872	879.053	662.881
267.395	14.979	877.793	662.297
268.409	14.924	876.933	661.372
269.424	15.083	876.261	661.434
270.439	14.977	875.935	660.711
271.453	14.895	874.875	659.528
272.468	14.916	874.791	659.492
273.482	14.962	874.162	659.138
274.497	14.956	873.344	658.441
275.512	15.038	873.000	658.443
276.526	15.027	872.267	657.790
277.541	15.036	872.033	657.592
278.555	15.045	871.255	656.984
279.570	15.048	870.523	656.383
280.585	15.212	869.734	656.371
281.599	15.084	869.229	655.434
282.614	15.058	868.591	654.793
283.628	15.123	868.018	654.555
284.643	15.149	867.422	654.151
285.657	15.345	866.412	654.096
286.672	15.188	866.387	653.406
287.687	15.328	865.096	652.918
288.701	15.287	864.967	652.607
289.716	15.233	864.291	651.827
290.730	15.250	863.858	651.508
291.745	15.435	862.978	651.507
292.760	15.333	862.602	650.767
293.774	15.401	862.189	650.663
294.789	15.444	861.127	649.969
295.803	15.321	860.794	649.186
296.818	15.400	860.020	648.850
297.833	15.392	859.257	648.186
298.847	15.381	858.589	647.581
299.862	15.241	858.550	646.955
300.876	15.492	857.545	647.107
301.891	15.674	856.726	647.136
302.906	15.422	856.168	645.685
303.920	15.479	856.150	645.835
304.935	15.706	855.527	646.179
305.949	15.618	854.927	645.332
306.964	15.747	854.127	645.167
307.979	15.660	853.663	644.424
308.993	15.655	853.038	643.876
310.008	15.556	852.915	643.347
311.022	15.578	852.179	642.821
312.037	15.547	851.225	641.922
313.052	15.414	851.066	641.240
314.066	15.600	850.076	641.148
315.081	15.521	849.466	640.326
316.095	15.627	848.953	640.289
317.110	15.562	848.553	639.682
318.125	15.711	847.984	639.766
319.139	15.605	847.373	638.842
320.154	15.600	847.207	638.644
321.168	15.596	846.649	638.149
322.183	15.783	846.013	638.324
323.197	15.698	845.626	637.655
324.212	15.885	844.831	637.706
325.227	15.776	844.169	636.738
326.241	15.750	843.972	636.436
327.256	15.774	843.427	636.059
328.270	15.800	842.704	635.555
329.285	15.510	842.289	634.089
330.300	15.691	841.100	633.820
331.314	15.671	841.172	633.744
332.329	15.751	840.873	633.766
333.343	15.911	839.699	633.425
334.358	15.787	839.829	632.999
335.373	15.914	839.180	632.934
336.387	15.865	839.015	632.569
337.402	15.829	838.915	632.300
338.416	15.896	838.681	632.322
339.431	16.064	837.542	632.038
340.446	16.005	837.580	631.788
341.460	16.132	837.065	631.819
342.475	16.211	836.510	631.640
343.489	16.110	836.260	631.017
344.504	16.306	835.637	631.225
345.519	16.208	835.211	630.480
346.533	16.131	834.924	629.919
347.548	16.180	834.306	629.583
348.562	16.139	833.557	628.807
349.577	16.074	832.954	628.054
350.592	16.129	832.212	627.643
351.606	16.047	832.043	627.156
352.621	16.100	831.096	626.586
353.635	16.107	830.517	626.119
354.650	16.138	830.197	625.936
355.665	16.221	829.411	625.598
356.679	16.376	828.627	625.525
357.694	16.223	827.880	624.338
358.708	16.309	827.581	624.375
359.723	16.206	827.452	623.842
360.738	16.310	826.311	623.313
361.752	16.348	825.675	622.916
362.767	16.416	825.222	622.769
363.781	16.442	824.864	622.541
364.796	16.452	824.372	622.151
365.810	16.440	824.095	621.842
366.825	16.501	823.508	621.569
367.840	16.342	823.402	620.849
368.854	16.453	822.744	620.706
369.869	16.415	822.376	620.234
370.883	16.464	821.582	619.761
371.898	16.582	821.242	619.880
372.913	16.636	821.042	619.875
373.927	16.620	820.469	619.328
374.942	16.535	820.004	618.611
375.956	16.543	819.761	618.399
376.971	16.709	818.837	618.256
377.986	16.677	818.679	617.965
379.000	16.725	818.487	617.941
380.015	16.709	818.016	617.470
381.029	16.799	816.861	616.872
382.044	16.656	816.406	615.955
383.059	16.857	815.712	616.107
384.073	16.840	815.365	615.729
385.088	16.790	814.700	614.992
386.102	16.765	814.154	614.435
387.117	16.659	813.627	613.597
388.132	16.843	812.946	613.696
389.146	16.830	812.379	613.165
390.161	16.902	812.097	613.161
391.175	16.921	811.686	612.863
392.190	16.741	811.579	612.077
393.205	16.833	810.695	611.689
394.219	16.893	810.188	611.468
395.234	16.977	809.572	611.252
396.248	16.815	809.480	610.547
397.263	16.906	809.189	610.600
398.278	16.744	808.414	609.379
399.292	16.591	808.615	608.924
400.307	16.684	808.008	608.749
401.321	16.785	807.026	608.318
402.336	16.805	806.728	608.112
403.350	16.998	806.308	608.434
404.365	17.048	806.149	608.439
405.380	17.162	805.499	608.300
406.394	16.957	805.035	607.162
407.409	17.141	804.477	607.349
408.423	17.284	803.960	607.413
409.438	17.204	803.513	606.736
410.453	17.090	803.239	606.069
411.467	17.324	802.982	606.656
412.482	17.149	802.889	605.909
413.496	17.226	802.196	605.606
414.511	17.346	801.645	605.565
415.526	17.313	801.076	604.964
416.540	17.388	800.576	604.800
417.555	17.379	799.975	604.259
418.569	17.306	800.219	604.132
419.584	17.376	799.665	603.906
420.599	17.482	798.875	603.633
421.613	108.817	1292.633	1469.057
422.628	93.563	1364.593	1469.129
