DTS Sentinel unit serial number:	SN413079Multiplexer serial number:	ORYXHardware model number:	OX4-SRSoftware version number:	ORYX F/W v4.00 Oryx Data Collector v3.7.2.0data status	okinstallation	princeton_trtdifferential loss correction	single-endedforward channel	channel 1reverse channel	N/Adate	2019/09/12time	02:28:11forward acquisition time	60.00reverse acquisition time	0.00gamma	496.2192k internal	0.2321k external	0.2321temperature offset calibration	1.0080default loss term (dB/km)	0.3790temperature slope calibration	1.0000multiplexer offset coefficient	1.0000multiplexer slope coefficient	1.0000fibre end	0.00T internal ref (°C)	32.50T ext. ref 1 (°C)	2.07T ext. ref 2 (°C)	27.11length (m)	temperature (°C)	Stokes	anti-Stokes-747.200	-34.838	-0.187	0.103
-746.185	-65.244	-0.191	0.078
-745.171	-47.378	0.253	-0.124
-744.156	340.412	-0.150	0.295
-743.142	104.473	0.314	-0.374
-742.127	800.000	-0.080	0.251
-741.112	-50.430	-0.397	0.189
-740.098	-100.890	-0.289	0.072
-739.083	31.449	0.167	0.145
-738.069	205.852	0.334	0.525
-737.054	-43.551	-0.039	0.020
-736.039	-200.000	-0.055	-0.254
-735.025	76.269	0.153	-0.164
-734.010	-45.671	0.090	0.045
-732.996	79.128	0.146	-0.158
-731.981	65.313	-0.097	-0.099
-730.966	-114.174	0.263	-0.051
-729.952	-200.000	-0.031	-0.458
-728.937	372.387	0.124	-0.254
-727.923	740.730	-0.063	0.171
-726.908	150.986	-0.135	-0.186
-725.894	-200.000	0.024	-0.455
-724.879	-200.000	-0.011	-0.399
-723.864	246.581	-0.169	0.288
-722.850	-110.729	-0.593	0.124
-721.835	398.886	0.055	0.116
-720.821	-98.907	-0.193	0.050
-719.806	24.577	0.165	-0.137
-718.791	-47.641	-0.065	0.032
-717.777	118.841	-0.055	0.068
-716.762	800.000	-0.082	0.241
-715.748	-200.000	0.009	-0.093
-714.733	18.125	0.266	0.214
-713.718	800.000	0.028	0.121
-712.704	800.000	0.104	-0.341
-711.689	691.314	0.025	0.067
-710.675	800.000	-0.075	0.209
-709.660	-200.000	-0.032	-0.205
-708.645	-200.000	0.107	-0.515
-707.631	480.946	0.042	-0.096
-706.616	167.605	-0.082	-0.118
-705.602	-31.539	-0.032	0.018
-704.587	161.112	0.134	0.189
-703.572	-20.293	-0.234	-0.145
-702.558	6.599	0.061	0.046
-701.543	86.003	0.102	-0.113
-700.529	-174.694	0.201	-0.006
-699.514	-82.400	-0.193	0.063
-698.499	44.859	-0.177	-0.164
-697.485	127.812	-0.151	-0.194
-696.470	-17.372	-0.328	-0.208
-695.456	-155.091	0.221	-0.015
-694.441	-200.000	0.013	-0.352
-693.426	-128.308	0.269	0.039
-692.412	598.172	0.080	-0.199
-691.397	-200.000	0.020	-0.219
-690.383	-200.000	-0.046	0.224
-689.368	224.342	-0.077	0.125
-688.354	-200.000	0.023	0.106
-687.339	492.187	-0.082	0.189
-686.324	-62.710	0.266	-0.111
-685.310	-29.343	-0.009	0.005
-684.295	-139.091	-0.075	0.008
-683.281	30.690	-0.205	-0.177
-682.266	-134.453	0.378	0.047
-681.251	-58.873	-0.385	-0.168
-680.237	142.954	0.100	0.135
-679.222	-141.816	0.255	0.026
-678.208	-200.000	0.014	-0.207
-677.193	800.000	0.102	-0.327
-676.178	105.943	0.257	-0.307
-675.164	15.763	-0.034	-0.027
-674.149	373.570	-0.146	-0.300
-673.135	36.227	-0.164	0.146
-672.120	-136.621	-0.223	0.026
-671.105	-142.257	0.230	-0.023
-670.091	-80.988	-0.350	-0.117
-669.076	800.000	0.080	-0.243
-668.062	700.412	0.055	-0.146
-667.047	-200.000	-0.026	0.321
-666.032	-93.578	0.050	-0.014
-665.018	800.000	-0.079	-0.262
-664.003	-78.406	0.068	-0.024
-662.989	-60.432	-0.250	-0.107
-661.974	-200.000	0.042	-0.227
-660.959	65.989	-0.185	-0.189
-659.945	-7.000	-0.169	0.116
-658.930	132.962	-0.079	0.102
-657.916	355.369	0.096	0.193
-656.901	800.000	-0.026	-0.094
-655.886	14.306	-0.058	-0.045
-654.872	589.684	0.064	-0.158
-653.857	74.201	-0.108	-0.114
-652.843	29.519	0.203	-0.174
-651.828	-200.000	-0.035	-0.295
-650.814	-200.000	0.041	0.181
-649.799	696.450	-0.077	0.205
-648.784	-200.000	-0.073	-0.367
-647.770	124.958	0.161	-0.205
-646.755	-96.363	-0.057	0.015
-645.741	-200.000	-0.025	0.146
-644.726	-28.763	-0.193	0.112
-643.711	148.943	0.048	0.066
-642.697	800.000	0.061	-0.200
-641.682	135.277	-0.153	-0.200
-640.668	-172.380	0.179	0.006
-639.653	536.169	-0.039	0.093
-638.638	-200.000	-0.004	-0.201
-637.624	125.143	0.025	0.032
-636.609	800.000	0.047	-0.207
-635.595	379.734	0.066	0.136
-634.580	47.250	0.126	-0.118
-633.565	-155.604	-0.370	0.024
-632.551	36.449	0.011	0.009
-631.536	-26.785	0.153	-0.090
-630.522	-200.000	0.008	0.286
-629.507	-200.000	0.020	-0.125
-628.492	101.567	0.051	-0.060
-627.478	190.060	0.023	-0.034
-626.463	-61.936	-0.201	0.085
-625.449	127.960	-0.181	0.231
-624.434	284.915	0.181	-0.328
-623.419	645.711	0.095	-0.244
-622.405	145.601	0.190	0.256
-621.390	233.517	-0.178	0.295
-620.376	-138.410	-0.151	0.017
-619.361	98.308	-0.515	-0.597
-618.346	392.764	0.072	0.150
-617.332	614.613	0.173	-0.436
-616.317	-200.000	-0.011	0.079
-615.303	408.239	0.022	0.046
-614.288	221.839	0.068	-0.110
-613.273	-123.360	0.317	-0.051
-612.259	520.605	0.067	0.159
-611.244	215.801	0.156	-0.249
-610.230	-33.223	-0.087	-0.048
-609.215	27.593	0.200	0.169
-608.201	-111.256	0.179	-0.037
-607.186	307.999	-0.099	0.185
-606.171	168.230	-0.186	0.267
-605.157	-41.372	-0.278	0.144
-604.142	-94.543	-0.116	0.032
-603.128	-45.557	0.235	0.117
-602.113	800.000	-0.125	-0.449
-601.098	800.000	0.074	-0.227
-600.084	111.618	0.157	0.191
-599.069	-112.400	-0.149	0.030
-598.055	-200.000	0.034	0.275
-597.040	-115.648	0.225	0.042
-596.025	800.000	-0.061	-0.172
-595.011	-200.000	-0.056	0.367
-593.996	-200.000	0.039	-0.186
-592.982	16.158	0.054	-0.042
-591.967	96.785	-0.328	-0.378
-590.952	178.073	0.248	-0.363
-589.938	-22.887	0.112	-0.068
-588.923	800.000	-0.083	-0.363
-587.909	-40.955	0.211	-0.110
-586.894	102.378	-0.178	-0.209
-585.879	711.057	-0.048	-0.126
-584.865	800.000	0.078	0.269
-583.850	82.854	0.102	0.111
-582.836	-200.000	0.007	-0.295
-581.821	-7.234	-0.089	0.060
-580.806	-140.474	-0.098	0.010
-579.792	331.913	-0.055	0.106
-578.777	-150.423	-0.105	-0.008
-577.763	-58.632	0.225	0.098
-576.748	-200.000	0.014	0.088
-575.733	-200.000	-0.082	0.694
-574.719	-59.362	-0.235	0.101
-573.704	230.602	-0.192	-0.315
-572.690	-200.000	0.051	-0.333
-571.675	-69.670	0.170	0.065
-570.661	-200.000	0.031	-0.161
-569.646	111.057	-0.433	0.523
-568.631	34.031	0.204	-0.179
-567.617	68.732	0.077	-0.080
-566.602	800.000	-0.087	-0.309
-565.588	255.041	-0.054	-0.093
-564.573	-53.254	-0.323	-0.149
-563.558	43.939	-0.208	-0.191
-562.544	-17.575	0.154	-0.097
-561.529	-200.000	0.000	-0.032
-560.515	6.148	-0.185	0.138
-559.500	800.000	-0.074	-0.208
-558.485	-172.274	0.292	0.009
-557.471	-102.200	-0.152	-0.037
-556.456	26.650	-0.009	0.008
-555.442	86.148	0.089	0.099
-554.427	261.705	0.115	0.200
-553.412	27.980	-0.072	-0.061
-552.398	-6.913	0.216	0.147
-551.383	195.373	-0.169	0.257
-550.369	18.117	-0.159	0.127
-549.354	-72.796	-0.282	-0.104
-548.339	800.000	-0.046	0.184
-547.325	-200.000	-0.014	-0.188
-546.310	-97.951	0.228	-0.059
-545.296	-40.335	-0.185	-0.097
-544.281	46.893	0.179	-0.167
-543.266	-152.076	0.052	0.004
-542.252	239.262	-0.244	0.407
-541.237	800.000	-0.055	0.186
-540.223	-22.552	-0.164	0.099
-539.208	-159.219	-0.112	0.006
-538.193	800.000	-0.155	-0.433
-537.179	311.667	-0.244	0.459
-536.164	86.259	-0.095	0.105
-535.150	-57.577	-0.333	0.146
-534.135	8.469	-0.016	-0.012
-533.121	-200.000	0.006	-0.159
-532.106	-167.666	0.128	0.005
-531.091	229.852	0.175	-0.286
-530.077	-72.008	-0.142	0.053
-529.062	197.665	-0.043	-0.066
-528.048	258.555	-0.105	-0.181
-527.033	3.795	0.371	0.272
-526.018	92.454	-0.369	-0.416
-525.004	-150.594	-0.191	0.015
-523.989	800.000	0.058	-0.186
-522.975	100.823	-0.170	-0.199
-521.960	-119.091	0.218	0.038
-520.945	-200.000	0.012	-0.085
-519.931	280.628	-0.051	-0.091
-518.916	-200.000	0.005	-0.205
-517.902	-160.439	0.444	-0.024
-516.887	-109.077	-0.071	-0.015
-515.872	-93.151	-0.137	-0.038
-514.858	7.383	0.129	-0.097
-513.843	404.513	0.109	0.229
-512.829	268.493	-0.049	-0.087
-511.814	662.045	-0.084	0.216
-510.799	125.075	-0.077	0.097
-509.785	800.000	0.057	-0.206
-508.770	314.829	0.060	0.113
-507.756	221.937	0.142	-0.229
-506.741	-45.245	0.162	-0.081
-505.726	-105.526	0.198	-0.045
-504.712	800.000	0.023	-0.079
-503.697	175.220	-0.186	0.269
-502.683	297.857	0.081	0.149
-501.668	254.175	0.149	-0.255
-500.653	-200.000	0.040	-0.188
-499.639	-101.513	-0.287	0.070
-498.624	39.979	0.161	-0.145
-497.610	-140.764	-0.143	0.015
-496.595	-172.648	-0.211	0.007
-495.581	-200.000	0.327	0.001
-494.566	-101.435	-0.397	-0.097
-493.551	-179.899	-0.535	0.011
-492.537	22.184	0.142	0.116
-491.522	326.527	-0.122	-0.234
-490.508	16.182	0.232	-0.183
-489.493	98.039	-0.193	-0.222
-488.478	800.000	0.061	-0.210
-487.464	-39.950	-0.014	0.007
-486.449	67.185	-0.045	-0.046
-485.435	800.000	-0.117	0.383
-484.420	569.011	0.073	-0.176
-483.405	-200.000	0.012	-0.248
-482.391	-101.878	-0.381	-0.092
-481.376	-58.169	0.243	-0.106
-480.362	-77.873	-0.111	-0.038
-479.347	496.066	-0.180	0.413
-478.332	98.373	0.200	-0.231
-477.318	-112.372	0.291	-0.058
-476.303	-76.017	-0.117	-0.041
-475.289	2.069	-0.113	0.081
-474.274	182.729	-0.116	0.172
-473.259	2.625	-0.295	-0.214
-472.245	800.000	0.090	-0.313
-471.230	-127.470	-0.056	-0.008
-470.216	12.159	0.145	-0.112
-469.201	180.886	0.111	0.163
-468.186	372.541	0.152	-0.308
-467.172	-200.000	0.041	-0.249
-466.157	-78.801	0.479	0.163
-465.143	-58.711	0.244	-0.106
-464.128	-80.529	-0.099	0.033
-463.113	-200.000	0.057	-0.283
-462.099	-200.000	0.015	0.150
-461.084	-24.875	-0.306	-0.182
-460.070	399.069	-0.075	0.157
-459.055	800.000	-0.036	-0.159
-458.040	-200.000	-0.028	-0.142
-457.026	-200.000	0.034	0.153
-456.011	46.819	0.245	0.228
-454.997	-50.030	0.313	0.148
-453.982	-27.963	0.252	-0.146
-452.968	800.000	-0.049	-0.204
-451.953	-15.864	0.240	0.153
-450.938	341.360	-0.153	0.298
-449.924	341.539	-0.072	0.140
-448.909	-45.554	-0.147	-0.073
-447.895	-200.000	0.013	-0.312
-446.880	-57.672	-0.184	0.080
-445.865	-33.725	-0.220	0.121
-444.851	82.823	0.147	-0.160
-443.836	76.709	-0.090	-0.095
-442.822	-200.000	0.022	-0.538
-441.807	-200.000	-0.187	0.000
-440.792	-129.989	-0.356	0.049
-439.778	392.386	0.105	-0.219
-438.763	-45.601	-0.098	-0.048
-437.749	441.833	0.140	0.306
-436.734	105.662	-0.159	0.187
-435.719	247.515	-0.124	-0.210
-434.705	-200.000	-0.003	-0.324
-433.690	17.327	0.070	0.056
-432.676	-170.468	0.154	0.005
-431.661	69.514	0.094	-0.096
-430.646	-188.730	-0.208	0.003
-429.632	800.000	0.092	-0.316
-428.617	191.920	0.092	0.138
-427.603	117.124	-0.161	-0.197
-426.588	24.455	-0.162	0.133
-425.573	-200.000	-0.012	0.182
-424.559	-172.910	0.073	0.002
-423.544	-200.000	-0.060	0.292
-422.530	263.451	0.109	0.189
-421.515	89.060	0.346	0.384
-420.500	-200.000	0.030	0.278
-419.486	-27.725	0.229	0.133
-418.471	98.451	0.178	-0.205
-417.457	-200.000	0.012	-0.229
-416.442	-200.000	-0.009	0.586
-415.428	492.631	-0.038	-0.087
-414.413	800.000	0.043	-0.139
-413.398	8.693	0.226	0.170
-412.384	53.599	-0.222	0.213
-411.369	743.820	-0.095	0.254
-410.355	-92.579	-0.219	-0.061
-409.340	132.036	0.055	0.071
-408.325	800.000	-0.186	-0.542
-407.311	97.751	-0.182	0.209
-406.296	455.684	0.039	0.086
-405.282	36.719	0.055	-0.049
-404.267	-105.916	-0.170	0.038
-403.252	283.742	-0.031	-0.055
-402.238	1.326	0.050	-0.036
-401.223	2.632	0.093	-0.067
-400.209	-17.610	-0.334	0.209
-399.194	-18.401	-0.168	0.105
-398.179	-149.929	0.321	0.025
-397.165	-18.294	-0.318	-0.198
-396.150	240.153	-0.029	0.049
-395.136	45.060	0.149	0.137
-394.121	-187.968	-0.037	0.000
-393.106	161.213	0.208	0.290
-392.092	800.000	0.026	0.094
-391.077	170.694	0.043	-0.061
-390.063	471.242	-0.108	0.243
-389.048	-200.000	-0.019	-0.152
-388.033	60.436	0.122	-0.120
-387.019	502.975	-0.089	-0.206
-386.004	-200.000	0.014	0.237
-384.990	-200.000	-0.019	0.172
-383.975	50.520	0.054	-0.051
-382.960	-171.516	-0.194	-0.006
-381.946	800.000	-0.072	-0.256
-380.931	-35.580	-0.111	0.060
-379.917	-58.063	0.198	-0.086
-378.902	116.410	-0.102	-0.125
-377.888	-200.000	-0.009	0.560
-376.873	602.620	-0.116	0.287
-375.858	207.093	-0.143	-0.222
-374.844	-61.125	-0.159	0.067
-373.829	-38.889	0.098	-0.051
-372.815	-200.000	-0.021	0.195
-371.800	543.816	0.097	-0.231
-370.785	-118.842	-0.190	0.033
-369.771	26.934	0.293	0.245
-368.756	-32.220	0.150	0.083
-367.742	227.412	-0.183	-0.296
-366.727	16.741	-0.195	-0.154
-365.712	-8.668	0.237	-0.158
-364.698	800.000	0.019	-0.059
-363.683	196.297	0.098	-0.149
-362.669	10.226	0.160	-0.121
-361.654	375.716	-0.097	0.197
-360.639	324.776	-0.157	-0.298
-359.625	38.803	0.196	0.174
-358.610	-16.898	-0.204	-0.129
-357.596	-120.466	0.235	0.040
-356.581	-65.010	-0.113	0.045
-355.566	-83.377	0.493	0.157
-354.552	800.000	0.065	0.278
-353.537	-37.043	0.223	0.119
-352.523	326.666	-0.134	-0.255
-351.508	371.309	-0.116	0.235
-350.493	21.556	0.280	0.227
-349.479	-200.000	0.013	0.383
-348.464	-75.327	0.026	0.009
-347.450	-200.000	0.056	-0.338
-346.435	-200.000	0.042	-0.327
-345.420	-70.285	0.180	0.068
-344.406	800.000	0.038	-0.104
-343.391	-200.000	-0.008	0.090
-342.377	123.587	0.127	-0.158
-341.362	357.084	0.125	-0.247
-340.348	293.169	0.117	0.212
-339.333	-31.931	-0.176	-0.098
-338.318	-4.494	-0.142	0.098
-337.304	83.152	-0.087	-0.095
-336.289	266.456	0.158	-0.274
-335.275	21.224	-0.237	0.191
-334.260	-46.932	-0.146	-0.071
-333.245	800.000	-0.018	0.050
-332.231	19.745	0.186	-0.149
-331.216	-76.193	-0.174	-0.061
-330.202	194.942	0.105	0.158
-329.187	-71.160	-0.194	-0.072
-328.172	-62.919	0.168	-0.069
-327.158	660.380	0.119	0.304
-326.143	96.220	0.091	-0.103
-325.129	47.283	0.124	-0.115
-324.114	-200.000	-0.023	0.220
-323.099	-200.000	-0.004	0.047
-322.085	32.145	0.154	0.132
-321.070	-171.870	-0.292	-0.009
-320.056	-73.024	0.336	-0.123
-319.041	-200.000	0.039	0.695
-318.026	-134.881	-0.089	-0.011
-317.012	31.685	0.177	-0.152
-315.997	522.205	0.128	0.299
-314.983	800.000	-0.044	0.132
-313.968	-200.000	0.031	0.460
-312.953	265.639	0.134	0.233
-311.939	-183.402	0.407	-0.007
-310.924	589.696	-0.140	0.344
-309.910	-200.000	-0.018	-0.232
-308.895	-76.317	0.071	0.025
-307.880	-198.004	0.142	0.001
-306.866	145.155	-0.120	0.159
-305.851	-40.931	0.214	0.110
-304.837	508.891	-0.036	0.082
-303.822	172.141	0.161	0.230
-302.807	50.270	-0.116	0.108
-301.793	-38.073	-0.076	0.040
-300.778	3.666	0.257	-0.186
-299.764	-99.644	-0.090	-0.022
-298.749	-200.000	0.086	-0.559
-297.735	397.032	0.156	0.325
-296.720	67.697	0.131	-0.133
-295.705	-81.059	0.250	0.082
-294.691	303.056	0.104	-0.191
-293.676	-200.000	-0.023	-0.173
-292.662	-123.520	0.082	-0.013
-291.647	800.000	-0.036	-0.121
-290.632	4.299	-0.237	0.173
-289.618	800.000	-0.023	0.079
-288.603	-200.000	-0.042	-0.293
-287.589	-123.151	0.061	-0.010
-286.574	-52.947	0.334	0.153
-285.559	156.569	-0.154	-0.211
-284.545	-136.941	-0.244	-0.028
-283.530	-96.908	-0.273	0.071
-282.516	-43.264	0.091	-0.046
-281.501	-50.921	0.278	0.130
-280.486	-200.000	-0.017	0.231
-279.472	-10.930	-0.020	-0.013
-278.457	57.805	0.107	-0.104
-277.443	-200.000	0.014	0.280
-276.428	800.000	-0.064	0.211
-275.413	-200.000	-0.052	-0.258
-274.399	387.988	0.063	-0.129
-273.384	-200.000	0.033	0.234
-272.370	-16.901	0.151	0.094
-271.355	140.504	-0.288	0.377
-270.340	-18.507	0.302	-0.187
-269.326	132.595	-0.121	0.155
-268.311	19.908	-0.174	0.139
-267.297	67.109	0.144	-0.145
-266.282	800.000	0.025	0.100
-265.267	-44.618	0.332	-0.165
-264.253	800.000	0.059	0.247
-263.238	800.000	-0.033	0.139
-262.224	-116.950	-0.227	0.041
-261.209	452.606	0.188	0.412
-260.195	-200.000	-0.044	-0.209
-259.180	207.828	0.181	-0.281
-258.165	-97.657	-0.302	-0.078
-257.151	-119.305	0.050	0.009
-256.136	56.569	-0.073	-0.070
-255.122	-96.912	-0.295	-0.077
-254.107	426.746	-0.016	-0.033
-253.092	-175.703	-0.243	0.006
-252.078	800.000	-0.033	-0.107
-251.063	62.553	0.111	0.110
-250.049	-200.000	-0.004	0.376
-249.034	787.492	0.008	0.021
-248.019	-74.397	-0.167	-0.060
-247.005	-5.392	0.087	0.059
-245.990	-200.000	-0.058	-0.590
-244.976	37.501	-0.106	0.093
-243.961	671.599	0.029	-0.074
-242.946	-99.542	0.249	0.062
-241.932	-144.669	-0.247	-0.023
-240.917	800.000	0.053	0.213
-239.903	114.356	-0.286	0.345
-238.888	-35.720	-0.090	0.048
-237.873	325.860	0.030	-0.057
-236.859	-200.000	0.001	-0.128
-235.844	530.663	0.108	-0.253
-234.830	-56.675	0.056	0.025
-233.815	-31.778	0.223	0.124
-232.800	-37.827	-0.110	0.058
-231.786	-149.811	0.346	-0.027
-230.771	-83.208	-0.196	-0.062
-229.757	274.287	0.035	0.061
-228.742	218.379	0.258	0.407
-227.727	370.952	-0.051	0.103
-226.713	-91.743	0.230	0.065
-225.698	-200.000	-0.011	-0.259
-224.684	220.795	0.112	-0.177
-223.669	1.779	0.127	-0.091
-222.655	-60.166	-0.284	-0.120
-221.640	-30.886	0.112	0.063
-220.625	-90.526	-0.143	0.041
-219.611	298.138	-0.016	0.029
-218.596	-200.000	0.004	-0.358
-217.582	-71.110	0.208	0.077
-216.567	-41.284	-0.137	0.070
-215.552	64.894	-0.218	0.218
-214.538	388.945	0.077	-0.158
-213.523	-39.148	0.042	0.022
-212.509	-200.000	0.072	-0.354
-211.494	316.111	0.033	0.062
-210.479	-39.660	0.233	-0.121
-209.465	-135.488	0.387	-0.046
-208.450	32.150	-0.214	-0.182
-207.436	293.899	0.058	0.105
-206.421	15.843	-0.270	0.210
-205.406	-52.195	0.409	0.188
-204.392	-200.000	-0.011	0.064
-203.377	-0.431	-0.113	-0.079
-202.363	54.209	0.224	-0.213
-201.348	-13.628	-0.465	0.298
-200.333	-139.266	0.082	0.009
-199.319	-90.168	0.144	0.041
-198.304	-68.653	0.061	0.023
-197.290	161.166	0.068	0.095
-196.275	-167.396	-0.207	-0.008
-195.260	-102.061	0.074	0.018
-194.246	800.000	-0.029	-0.104
-193.231	-11.229	-0.151	0.099
-192.217	174.742	0.196	0.280
-191.202	-200.000	-0.037	0.257
-190.187	-7.321	-0.051	-0.034
-189.173	-57.435	-0.336	-0.146
-188.158	-107.809	-0.155	0.033
-187.144	-70.046	0.442	0.166
-186.129	-28.293	-0.162	0.093
-185.114	-47.735	-0.168	0.081
-184.100	-37.868	-0.235	-0.124
-183.085	-59.720	-0.171	0.072
-182.071	800.000	-0.091	-0.296
-181.056	280.092	0.099	0.175
-180.042	-87.087	0.092	-0.028
-179.027	121.547	0.067	0.082
-178.012	800.000	-0.042	0.126
-176.998	273.958	-0.107	0.188
-175.983	-172.971	-0.405	-0.012
-174.969	-156.640	-0.238	0.015
-173.954	-97.235	-0.043	-0.011
-172.939	800.000	0.079	0.253
-171.925	-200.000	-0.076	0.348
-170.910	39.724	0.306	-0.271
-169.896	-200.000	0.012	-0.287
-168.881	174.918	-0.090	0.128
-167.866	90.888	0.225	0.249
-166.852	-119.524	-0.312	-0.053
-165.837	-123.652	-0.102	0.016
-164.823	-42.500	0.201	0.101
-163.808	311.189	-0.070	0.130
-162.793	233.581	-0.167	-0.272
-161.779	-200.000	-0.010	-0.157
-160.764	221.596	0.163	-0.259
-159.750	128.376	-0.077	-0.097
-158.735	684.428	-0.071	0.184
-157.720	-96.083	-0.205	-0.054
-156.706	138.177	0.127	-0.164
-155.691	-48.645	0.275	0.131
-154.677	23.336	-0.032	-0.026
-153.662	800.000	0.078	0.275
-152.647	-139.435	0.430	-0.046
-151.633	126.793	0.096	-0.120
-150.618	-18.572	0.068	0.042
-149.604	12.418	0.061	-0.047
-148.589	-200.000	-0.004	-0.073
-147.574	-44.006	0.364	-0.180
-146.560	-154.801	0.132	0.009
-145.545	288.232	-0.110	-0.197
-144.531	-91.090	0.164	0.046
-143.516	-175.865	0.081	-0.002
-142.502	118.449	0.127	-0.154
-141.487	-129.150	-0.435	-0.060
-140.472	-93.065	0.189	-0.052
-139.458	142.118	-0.156	0.204
-138.443	-200.000	0.032	0.213
-137.429	-80.187	-0.142	0.047
-136.414	-64.968	0.112	-0.044
-135.399	30.073	0.128	0.108
-134.385	-33.136	-0.190	0.104
-133.370	75.517	-0.011	-0.011
-132.356	228.325	0.055	0.088
-131.341	119.069	-0.221	0.269
-130.326	-200.000	-0.026	0.264
-129.312	-200.000	0.010	-0.170
-128.297	-200.000	0.069	0.356
-127.283	-133.459	0.158	0.020
-126.268	800.000	-0.091	0.337
-125.253	499.547	0.088	-0.201
-124.239	64.239	0.191	-0.189
-123.224	386.751	-0.114	-0.232
-122.210	-200.000	-0.019	0.234
-121.195	800.000	-0.018	-0.076
-120.180	800.000	0.024	-0.084
-119.166	64.340	-0.101	0.101
-118.151	210.420	0.290	0.450
-117.137	-200.000	0.043	0.212
-116.122	40.926	0.152	0.135
-115.107	587.666	-0.073	0.177
-114.093	-161.496	0.501	0.025
-113.078	367.931	-0.037	0.073
-112.064	129.395	-0.198	-0.250
-111.049	-200.000	-0.033	-0.247
-110.034	-200.000	0.032	0.192
-109.020	-37.456	0.246	0.130
-108.005	148.268	-0.175	0.233
-106.991	-148.833	0.120	-0.010
-105.976	92.808	-0.064	0.072
-104.962	-145.766	0.374	-0.033
-103.947	800.000	-0.052	0.191
-102.932	-200.000	-0.006	0.246
-101.918	-200.000	0.023	0.357
-100.903	128.584	0.066	-0.083
-99.889	-0.735	0.168	0.117
-98.874	597.220	0.069	0.168
-97.859	-200.000	-0.008	-0.083
-96.845	-200.000	0.002	0.324
-95.830	18.089	0.255	0.201
-94.816	-54.597	0.215	-0.096
-93.801	127.655	-0.101	-0.127
-92.786	-200.000	-0.043	0.282
-91.772	-40.342	-0.331	-0.170
-90.757	259.156	0.104	-0.177
-89.743	274.958	0.058	0.101
-88.728	201.038	-0.068	0.104
-87.713	800.000	-0.054	-0.163
-86.699	-38.670	-0.113	-0.059
-85.684	-87.428	-0.266	0.079
-84.670	691.750	0.125	-0.323
-83.655	-32.178	-0.257	-0.141
-82.640	691.386	-0.142	-0.367
-81.626	-68.121	-0.290	-0.111
-80.611	-200.000	0.028	-0.287
-79.597	246.525	0.251	0.417
-78.582	-35.687	-0.152	-0.081
-77.567	15.973	0.182	-0.141
-76.553	191.061	0.146	0.216
-75.538	-90.044	0.224	0.064
-74.524	616.341	0.089	-0.219
-73.509	-143.270	-0.570	-0.054
-72.494	141.683	0.027	0.035
-71.480	-65.135	0.203	0.081
-70.465	170.307	-0.147	-0.207
-69.451	6.831	0.071	0.052
-68.436	653.615	-0.072	0.181
-67.422	-200.000	-0.005	-0.196
-66.407	124.188	0.170	-0.210
-65.392	800.000	0.105	0.313
-64.378	-91.691	-0.139	0.039
-63.363	-103.234	-0.422	0.098
-62.349	87.316	0.261	-0.285
-61.334	4.014	-1.110	-0.798
-60.319	-90.729	0.775	-0.220
-59.305	405.101	-0.418	-0.866
-58.290	800.000	0.312	0.960
-57.276	-200.000	0.335	1.538
-56.261	-200.000	96.247	587.942
-55.246	565.300	1369.575	3266.312
-54.232	162.583	2541.376	3507.285
-53.217	113.159	2134.656	2546.455
-52.203	44.203	1600.462	1444.184
-51.188	36.026	1339.551	1159.739
-50.173	32.742	1298.579	1105.015
-49.159	54.353	1345.307	1274.067
-48.144	56.643	1361.943	1303.414
-47.130	36.103	1320.699	1143.692
-46.115	32.686	1303.694	1108.861
-45.100	32.538	1298.580	1103.599
-44.086	32.468	1296.001	1100.953
-43.071	32.310	1293.828	1098.144
-42.057	32.375	1291.790	1096.752
-41.042	32.404	1290.317	1095.625
-40.027	32.510	1288.294	1094.480
-39.013	32.470	1286.142	1092.372
-37.998	32.362	1285.059	1090.785
-36.984	32.396	1283.236	1089.392
-35.969	32.584	1281.172	1088.683
-34.954	32.471	1279.995	1086.990
-33.940	32.594	1278.366	1086.270
-32.925	32.606	1276.760	1084.928
-31.911	32.622	1275.459	1083.877
-30.896	32.606	1273.768	1082.303
-29.881	32.677	1272.427	1081.525
-28.867	32.681	1270.929	1080.237
-27.852	32.646	1269.547	1078.816
-26.838	32.676	1268.412	1077.982
-25.823	32.639	1266.907	1076.447
-24.809	32.609	1265.730	1075.235
-23.794	32.554	1264.391	1073.743
-22.779	32.528	1263.456	1072.755
-21.765	32.481	1262.114	1071.307
-20.750	32.524	1260.884	1070.462
-19.736	32.460	1259.187	1068.615
-18.721	32.431	1258.124	1067.510
-17.706	32.460	1257.224	1066.868
-16.692	32.521	1255.548	1065.750
-15.677	32.402	1254.764	1064.365
-14.663	32.420	1253.889	1063.685
-13.648	32.541	1252.384	1063.049
-12.633	32.378	1251.739	1061.539
-11.619	32.452	1250.839	1061.151
-10.604	32.411	1250.133	1060.279
-9.590	32.413	1248.652	1058.992
-8.575	32.450	1247.539	1058.211
-7.560	32.342	1247.194	1057.274
-6.546	32.458	1246.032	1056.894
-5.531	32.372	1245.375	1055.815
-4.517	32.439	1244.296	1055.233
-3.502	32.321	1243.782	1054.097
-2.487	32.371	1242.793	1053.492
-1.473	32.420	1238.644	1050.207
-0.458	31.003	1223.761	1029.727
0.556	27.995	1206.078	991.985
1.571	24.457	1210.222	975.997
2.586	23.607	1224.808	982.967
3.600	23.012	1214.192	971.095
4.615	16.966	1141.627	881.648
5.629	6.846	1064.881	773.013
6.644	2.446	1043.959	736.616
7.659	1.985	1041.837	732.839
8.673	1.944	1040.244	731.459
9.688	1.917	1039.020	730.402
10.702	2.371	1038.077	731.847
11.717	8.919	1047.075	769.643
12.731	19.031	1061.409	829.081
13.746	24.122	1067.766	858.586
14.761	25.208	1068.739	864.525
15.775	25.371	1067.916	864.569
16.790	25.063	1067.279	862.496
17.804	25.187	1066.604	862.468
18.819	25.083	1066.704	861.976
19.834	25.202	1066.223	862.080
20.848	25.308	1065.888	862.245
21.863	25.316	1065.055	861.533
22.877	25.207	1064.687	860.632
23.892	25.203	1063.816	859.833
24.907	25.304	1062.722	859.358
25.921	25.260	1061.734	858.272
26.936	25.207	1060.608	857.032
27.950	25.134	1059.091	855.383
28.965	25.046	1057.304	853.445
29.980	24.988	1056.056	852.086
30.994	25.296	1055.266	852.836
32.009	25.291	1054.393	852.035
33.023	25.182	1052.633	850.021
34.038	25.161	1052.083	849.403
35.053	25.198	1051.479	849.012
36.067	25.277	1050.736	848.712
37.082	25.323	1049.701	848.018
38.096	25.417	1049.631	848.329
39.111	25.483	1048.495	847.650
40.126	25.372	1046.988	845.832
41.140	25.101	1045.373	843.178
42.155	24.782	1044.443	840.855
43.169	24.929	1043.273	840.527
44.184	24.925	1042.451	839.772
45.199	24.779	1041.819	838.507
46.213	24.858	1040.411	837.668
47.228	24.997	1039.819	837.768
48.242	25.175	1038.911	837.791
49.257	25.264	1038.366	837.693
50.271	25.348	1037.662	837.445
51.286	25.379	1037.090	837.053
52.301	25.308	1035.815	835.619
53.315	25.286	1034.897	834.704
54.330	25.242	1033.830	833.562
55.344	25.302	1033.308	833.348
56.359	25.273	1032.611	832.578
57.374	24.940	1031.472	830.041
58.388	24.984	1030.862	829.680
59.403	25.005	1029.778	828.834
60.417	24.757	1029.221	827.164
61.432	24.953	1028.484	827.406
62.447	24.841	1028.465	826.800
63.461	25.071	1026.821	826.465
64.476	25.039	1026.072	825.642
65.490	24.992	1025.300	824.732
66.505	24.946	1025.101	824.287
67.520	24.925	1024.260	823.440
68.534	24.743	1023.224	821.696
69.549	24.494	1021.956	819.466
70.563	24.436	1021.533	818.787
71.578	24.442	1020.547	817.951
72.593	24.300	1019.608	816.477
73.607	24.506	1018.953	816.820
74.622	24.850	1018.394	817.872
75.636	24.827	1017.987	817.370
76.651	24.648	1017.235	815.874
77.666	24.579	1016.295	814.733
78.680	24.748	1015.428	814.738
79.695	24.796	1014.713	814.311
80.709	24.892	1014.223	814.282
81.724	24.735	1014.098	813.398
82.739	24.992	1012.854	813.492
83.753	25.229	1011.955	813.773
84.768	25.508	1011.289	814.430
85.782	25.767	1010.561	814.947
86.797	25.539	1009.559	813.033
87.812	25.447	1008.299	811.532
88.826	25.501	1007.572	811.117
89.841	25.726	1006.792	811.434
90.855	25.559	1005.837	809.842
91.870	25.552	1005.001	809.066
92.884	25.287	1004.360	807.285
93.899	25.361	1002.893	806.368
94.914	25.499	1002.331	806.462
95.928	25.427	1001.148	805.117
96.943	25.135	999.832	802.680
97.957	24.859	999.095	800.784
98.972	24.834	997.809	799.568
99.987	25.072	997.440	800.265
101.001	25.311	996.421	800.443
102.016	25.177	995.951	799.395
103.030	25.291	994.759	798.879
104.045	24.940	994.572	797.096
105.060	24.752	993.315	795.180
106.074	24.898	992.879	795.411
107.089	25.369	992.065	796.777
108.103	25.247	990.905	795.235
109.118	25.156	989.494	793.629
110.133	24.936	988.644	791.906
111.147	24.802	987.474	790.307
112.162	24.679	986.569	788.968
113.176	24.967	985.888	789.625
114.191	24.881	984.953	788.427
115.206	24.633	983.960	786.470
116.220	24.490	983.518	785.418
117.235	24.717	982.758	785.743
118.249	24.667	981.528	784.470
119.264	24.544	981.205	783.603
120.279	24.635	980.753	783.569
121.293	24.745	979.811	783.228
122.308	24.732	978.606	782.142
123.322	24.598	977.745	780.798
124.337	24.544	975.978	779.080
125.352	23.949	974.820	775.497
126.366	24.012	973.725	774.830
127.381	24.834	973.858	778.444
128.395	25.080	973.653	779.281
129.410	25.321	972.621	779.432
130.424	25.409	971.297	778.683
131.439	25.200	970.879	777.376
132.454	25.187	969.828	776.410
133.468	25.221	968.900	775.743
134.483	25.304	968.230	775.499
135.497	25.376	967.609	775.240
136.512	25.443	966.553	774.619
137.527	25.458	965.875	774.070
138.541	25.528	965.293	773.834
139.556	25.422	964.415	772.606
140.570	25.548	963.793	772.584
141.585	25.608	962.860	772.022
142.600	25.619	961.253	770.716
143.614	25.857	960.304	770.905
144.629	25.807	960.208	770.542
145.643	25.633	958.644	768.478
146.658	25.399	957.907	766.819
147.673	25.335	956.691	765.505
148.687	25.293	955.541	764.338
149.702	25.192	954.717	763.181
150.716	25.180	953.962	762.459
151.731	25.439	953.115	762.818
152.746	25.638	952.828	763.363
153.760	25.636	952.356	762.910
154.775	25.813	951.264	762.714
155.789	25.725	950.425	761.606
156.804	25.674	949.325	760.441
157.819	25.752	948.923	760.379
158.833	25.780	948.043	759.725
159.848	25.759	947.625	759.234
160.862	25.640	945.953	757.327
161.877	25.688	945.426	757.041
162.892	25.699	944.400	756.197
163.906	25.660	943.315	755.097
164.921	25.540	942.500	753.879
165.935	25.624	941.732	753.548
166.950	25.706	940.869	753.132
167.964	25.669	939.769	752.033
168.979	25.546	938.734	750.625
169.994	25.532	937.859	749.798
171.008	25.667	937.235	749.797
172.023	25.648	936.831	749.329
173.037	25.423	935.583	747.327
174.052	25.319	934.946	746.320
175.067	25.286	934.409	745.689
176.081	25.468	933.374	745.553
177.096	25.389	933.074	744.917
178.110	25.174	931.881	743.008
179.125	25.014	931.129	741.683
180.140	24.896	931.229	741.206
181.154	25.120	930.950	741.847
182.169	25.383	930.620	742.604
183.183	25.682	929.812	743.129
184.198	25.553	929.068	741.939
185.213	25.473	928.442	741.042
186.227	25.487	928.362	740.972
187.242	25.625	927.340	740.658
188.256	25.724	926.755	740.530
189.271	25.801	925.633	739.885
190.286	25.329	924.805	737.222
191.300	24.827	923.110	733.746
192.315	23.883	921.936	728.882
193.329	24.065	921.034	728.848
194.344	24.977	921.948	733.244
195.359	25.329	922.058	734.706
196.373	25.549	921.172	734.833
197.388	25.459	920.448	733.823
198.402	25.519	919.839	733.518
199.417	25.562	919.304	733.204
200.432	25.237	918.522	731.190
201.446	24.980	918.105	729.747
202.461	25.049	917.216	729.254
203.475	24.287	915.150	724.453
204.490	23.614	913.519	720.366
205.504	24.504	914.363	724.584
206.519	25.138	914.163	726.932
207.534	25.192	913.838	726.829
208.548	25.665	913.443	728.362
209.563	25.335	912.713	726.384
210.577	25.253	912.255	725.624
211.592	25.666	911.783	726.854
212.607	25.689	910.625	725.958
213.621	25.745	909.839	725.492
214.636	25.533	909.762	724.514
215.650	25.641	908.567	723.930
216.665	25.665	908.251	723.712
217.680	25.632	907.711	723.085
218.694	25.325	906.095	720.502
219.709	25.215	905.503	719.526
220.723	25.439	905.751	720.557
221.738	25.496	905.032	720.152
222.753	25.517	903.956	719.314
223.767	25.635	903.484	719.345
224.782	25.904	903.337	720.243
225.796	25.779	902.844	719.287
226.811	25.038	901.658	715.320
227.826	24.556	899.903	711.943
228.840	24.730	899.542	712.290
229.855	24.747	898.857	711.749
230.869	24.496	897.413	709.549
231.884	24.829	897.949	711.232
232.899	25.436	898.123	713.719
233.913	25.333	897.694	712.907
234.928	25.397	897.324	712.805
235.942	25.388	896.056	711.698
236.957	25.049	894.936	709.402
237.972	25.043	894.738	709.158
238.986	25.011	894.225	708.563
240.001	25.076	893.438	708.134
241.015	25.287	893.197	708.712
242.030	25.553	892.379	709.053
243.045	25.499	891.946	708.430
244.059	25.719	891.869	709.175
245.074	25.371	891.016	707.064
246.088	25.161	889.440	704.925
247.103	25.470	889.178	705.868
248.117	25.977	889.485	708.041
249.132	26.113	889.398	708.443
250.147	26.267	888.928	708.611
251.161	26.375	888.322	708.486
252.176	26.434	887.386	707.911
253.190	26.421	887.185	707.635
254.205	26.470	886.816	707.471
255.220	26.465	885.894	706.652
256.234	26.351	885.458	705.799
257.249	26.333	884.619	704.994
258.263	26.465	883.761	704.765
259.278	26.558	883.266	704.668
260.293	26.582	882.470	704.063
261.307	26.424	881.887	702.924
262.322	26.120	881.278	701.196
263.336	25.462	879.253	696.970
264.351	24.419	877.543	691.512
265.366	24.553	877.352	691.820
266.380	25.575	878.122	696.324
267.395	25.890	878.136	697.495
268.409	25.960	877.054	696.846
269.424	26.298	876.098	697.327
270.439	26.234	875.877	696.843
271.453	26.301	875.555	696.786
272.468	26.491	875.338	697.281
273.482	26.437	874.488	696.337
274.497	25.932	873.897	693.859
275.512	25.756	872.528	692.035
276.526	26.122	872.716	693.528
277.541	26.377	872.269	694.091
278.555	26.188	871.122	692.394
279.570	25.939	870.679	691.027
280.585	26.017	870.407	691.046
281.599	26.039	869.386	690.258
282.614	25.359	868.204	686.662
283.628	25.502	867.596	686.666
284.643	25.907	867.044	687.714
285.657	25.366	866.397	685.076
286.672	25.110	865.571	683.386
287.687	25.714	865.218	685.350
288.701	25.796	864.839	685.300
289.716	25.414	864.042	683.155
290.730	25.362	863.674	682.608
291.745	25.136	862.453	680.724
292.760	25.561	862.222	682.094
293.774	26.509	862.594	685.922
294.789	26.626	862.663	686.361
295.803	26.744	861.819	686.075
296.818	26.805	861.053	685.634
297.833	26.378	860.209	683.286
298.847	26.167	859.696	682.025
299.862	26.448	859.541	682.902
300.876	26.690	859.082	683.388
301.891	26.551	858.830	682.605
302.906	26.306	857.275	680.385
303.920	26.307	857.422	680.446
304.935	26.709	856.849	681.441
305.949	26.778	856.234	681.154
306.964	26.502	855.309	679.321
307.979	26.580	855.191	679.458
308.993	26.940	854.744	680.393
310.008	26.951	854.131	679.886
311.022	26.545	853.149	677.527
312.037	26.439	852.547	676.591
313.052	26.261	851.620	675.130
314.066	25.292	850.123	670.267
315.081	25.126	849.495	669.092
316.095	25.900	849.714	672.096
317.110	26.405	849.601	673.827
318.125	25.555	847.996	669.334
319.139	24.543	846.501	664.333
320.154	24.529	846.552	664.261
321.168	25.439	847.057	667.983
322.183	26.050	847.056	670.194
323.197	26.331	846.649	670.857
324.212	26.571	845.944	671.129
325.227	26.411	845.942	670.475
326.241	26.436	845.129	669.863
327.256	26.207	844.750	668.655
328.270	26.231	843.644	667.807
329.285	26.101	842.554	666.407
330.300	25.809	842.072	664.891
331.314	25.936	842.036	665.271
332.329	26.541	841.764	667.229
333.343	26.613	841.175	666.967
334.358	26.630	840.995	666.829
335.373	26.740	840.710	666.946
336.387	26.927	840.840	667.681
337.402	27.094	840.402	667.886
338.416	27.050	839.933	667.295
339.431	27.149	839.673	667.391
340.446	27.232	839.513	667.510
341.460	27.221	838.515	666.617
342.475	26.871	838.607	665.350
343.489	27.015	838.273	665.551
344.504	27.173	837.854	665.738
345.519	27.496	837.559	666.628
346.533	27.636	836.888	666.546
347.548	27.645	836.141	665.925
348.562	27.377	836.125	664.876
349.577	27.317	835.439	664.053
350.592	27.517	834.185	663.727
351.606	27.309	833.880	662.667
352.621	27.237	832.913	661.577
353.635	27.213	832.179	660.849
354.650	26.525	830.541	656.994
355.665	25.652	829.078	652.615
356.679	25.803	829.371	653.334
357.694	26.414	828.598	654.881
358.708	26.314	828.138	654.098
359.723	26.833	827.878	655.712
360.738	27.052	827.351	656.025
361.752	27.241	827.099	656.451
362.767	27.447	826.820	656.913
363.781	27.754	826.095	657.385
364.796	27.797	825.535	657.037
365.810	27.733	825.758	656.925
366.825	27.714	825.632	656.699
367.840	27.384	824.444	654.509
368.854	27.166	823.707	653.083
369.869	27.177	823.688	653.051
370.883	27.050	823.019	652.006
371.898	26.952	822.412	651.117
372.913	27.152	822.487	651.836
373.927	27.176	821.944	651.434
374.942	27.386	821.625	651.874
375.956	27.563	821.147	652.072
376.971	27.786	820.523	652.315
377.986	27.920	819.953	652.283
379.000	27.705	819.911	651.424
380.015	27.537	818.748	649.843
381.029	27.625	818.364	649.796
382.044	27.635	818.292	649.714
383.059	27.668	817.669	649.282
384.073	27.765	816.724	648.818
385.088	27.728	816.131	648.157
386.102	27.559	815.457	646.967
387.117	27.339	815.040	645.795
388.132	27.096	813.634	643.767
389.146	26.695	812.579	641.452
390.161	27.085	812.840	642.984
391.175	27.588	812.672	644.575
392.190	27.142	811.267	641.827
393.205	25.710	809.392	635.239
394.219	24.216	807.669	628.563
395.234	24.107	807.723	628.166
396.248	25.878	809.103	635.434
397.263	27.287	809.759	640.862
398.278	27.322	809.482	640.708
399.292	27.047	808.700	639.064
400.307	26.958	808.364	638.431
401.321	26.971	807.989	638.122
402.336	27.384	808.013	639.536
403.350	28.022	807.681	641.456
404.365	28.212	807.791	642.154
405.380	28.443	807.465	642.649
406.394	28.540	806.936	642.510
407.409	28.396	806.573	641.661
408.423	28.378	805.948	641.045
409.438	28.383	805.701	640.809
410.453	28.491	805.182	640.718
411.467	28.482	804.531	640.109
412.482	28.490	804.059	639.705
413.496	28.602	803.665	639.727
414.511	28.440	803.135	638.683
415.526	28.404	803.003	638.396
416.540	28.274	802.585	637.554
417.555	28.062	801.580	635.964
418.569	28.189	801.240	636.077
419.584	28.254	800.401	635.580
420.599	28.085	799.899	634.542
421.613	112.007	1284.989	1459.369
422.628	96.682	1355.660	1459.464
