DTS Sentinel unit serial number:	SN413079Multiplexer serial number:	ORYXHardware model number:	OX4-SRSoftware version number:	ORYX F/W v4.00 Oryx Data Collector v3.7.2.0data status	okinstallation	princeton_trtdifferential loss correction	single-endedforward channel	channel 1reverse channel	N/Adate	2019/09/12time	16:16:11forward acquisition time	60.00reverse acquisition time	0.00gamma	496.2192k internal	0.2301k external	0.2301temperature offset calibration	1.0085default loss term (dB/km)	0.3790temperature slope calibration	1.0000multiplexer offset coefficient	1.0000multiplexer slope coefficient	1.0000fibre end	0.00T internal ref (°C)	38.14T ext. ref 1 (°C)	2.54T ext. ref 2 (°C)	30.85length (m)	temperature (°C)	Stokes	anti-Stokes-747.200	800.000	0.034	-0.102
-746.185	-77.991	-0.258	0.091
-745.171	-106.499	0.281	0.064
-744.156	-31.133	0.213	0.122
-743.142	-200.000	0.043	0.331
-742.127	72.497	0.143	0.152
-741.112	151.018	0.051	-0.070
-740.098	449.247	-0.211	0.475
-739.083	156.914	0.066	0.093
-738.069	-157.002	0.248	0.015
-737.054	327.437	0.136	-0.265
-736.039	308.682	0.121	0.230
-735.025	107.279	0.064	-0.078
-734.010	-124.006	-0.284	0.046
-732.996	95.356	0.110	0.128
-731.981	-121.988	-0.064	-0.011
-730.966	21.940	-0.119	0.099
-729.952	-199.574	0.363	-0.002
-728.937	-65.515	0.246	0.101
-727.923	-136.024	-0.208	-0.025
-726.908	-66.265	-0.217	0.088
-725.894	-117.008	-0.236	0.044
-724.879	800.000	0.080	-0.327
-723.864	800.000	0.033	-0.132
-722.850	65.807	-0.107	0.110
-721.835	800.000	-0.065	-0.273
-720.821	-105.370	-0.433	0.100
-719.806	800.000	0.038	-0.118
-718.791	-41.680	-0.257	-0.134
-717.777	-14.875	-0.200	-0.130
-716.762	51.527	0.369	0.357
-715.748	28.784	0.129	-0.111
-714.733	-200.000	-0.039	-0.347
-713.718	664.480	-0.080	0.211
-712.704	800.000	-0.044	-0.135
-711.689	241.978	-0.088	0.150
-710.675	-53.349	-0.069	-0.032
-709.660	-200.000	-0.004	-0.068
-708.645	-200.000	-0.028	-0.137
-707.631	431.286	-0.163	-0.358
-706.616	-200.000	0.020	-0.369
-705.602	800.000	0.090	-0.354
-704.587	-166.787	0.594	0.025
-703.572	-200.000	-0.010	-0.218
-702.558	-106.847	0.486	0.110
-701.543	-11.627	-0.245	-0.164
-700.529	-120.683	-0.203	0.035
-699.514	659.256	-0.196	-0.514
-698.499	-33.236	-0.151	0.085
-697.485	-73.034	-0.072	-0.027
-696.470	800.000	0.034	-0.153
-695.456	22.570	-0.333	0.277
-694.441	78.447	0.163	0.177
-693.426	271.049	-0.253	0.454
-692.412	109.561	0.159	0.194
-691.397	258.219	-0.022	0.038
-690.383	9.160	-0.151	-0.116
-689.368	-96.965	-0.353	0.094
-688.354	-98.316	0.362	0.095
-687.339	-170.844	0.208	-0.007
-686.324	-17.694	-0.242	0.154
-685.310	800.000	-0.021	-0.093
-684.295	-88.673	-0.132	-0.040
-683.281	-96.930	-0.240	-0.064
-682.266	800.000	-0.036	0.129
-681.251	-200.000	0.019	-0.103
-680.237	138.609	0.210	0.280
-679.222	800.000	-0.080	0.297
-678.208	-55.847	0.321	-0.146
-677.193	-95.154	0.083	0.023
-676.178	800.000	0.005	0.019
-675.164	-59.874	-0.147	-0.064
-674.149	-22.389	0.170	-0.105
-673.135	-200.000	0.012	0.210
-672.120	-94.683	-0.406	0.112
-671.105	-23.859	0.160	0.097
-670.091	-200.000	0.047	0.398
-669.076	-115.374	-0.155	-0.030
-668.062	-200.000	0.066	-0.462
-667.047	-172.602	0.098	0.003
-666.032	-42.353	0.206	-0.107
-665.018	-200.000	-0.014	-0.101
-664.003	14.069	-0.160	0.126
-662.989	111.093	-0.152	0.186
-661.974	12.886	0.406	0.319
-660.959	80.267	-0.255	0.279
-659.945	87.485	0.080	0.090
-658.930	-132.893	0.492	-0.064
-657.916	800.000	-0.078	-0.289
-656.901	80.688	0.146	-0.159
-655.886	800.000	0.020	-0.083
-654.872	-183.269	-0.140	-0.003
-653.857	-51.866	0.081	-0.038
-652.843	98.050	-0.155	-0.181
-651.828	800.000	0.120	0.391
-650.814	800.000	0.030	0.106
-649.799	-0.813	-0.161	0.116
-648.784	-65.283	0.354	-0.145
-647.770	-65.752	-0.259	-0.105
-646.755	131.064	-0.140	-0.182
-645.741	-94.615	-0.375	0.104
-644.726	-200.000	0.057	-0.361
-643.711	-120.867	-0.284	-0.049
-642.697	169.299	0.052	-0.075
-641.682	265.316	0.043	0.077
-640.668	-40.940	-0.176	0.092
-639.653	167.176	-0.190	0.273
-638.638	15.863	0.032	-0.026
-637.624	-110.761	-0.159	0.033
-636.609	546.124	-0.058	-0.140
-635.595	-200.000	0.036	-0.165
-634.580	-28.730	0.217	-0.127
-633.565	-54.699	-0.297	0.136
-632.551	503.096	-0.246	-0.577
-631.536	27.829	0.127	0.108
-630.522	455.778	0.080	0.180
-629.507	-15.464	-0.172	-0.112
-628.492	800.000	-0.018	-0.077
-627.478	-200.000	0.030	-0.268
-626.463	150.806	-0.158	-0.218
-625.449	363.348	-0.086	-0.175
-624.434	62.884	-0.143	-0.145
-623.419	134.591	0.263	0.346
-622.405	-29.973	0.140	-0.081
-621.390	-34.614	-0.254	-0.141
-620.376	-11.639	-0.082	-0.055
-619.361	-200.000	-0.038	-0.237
-618.346	-200.000	0.055	-0.340
-617.332	-146.623	0.243	0.021
-616.317	-153.323	-0.143	0.010
-615.303	-17.221	0.062	-0.040
-614.288	305.407	-0.077	-0.146
-613.273	-200.000	0.022	-0.194
-612.259	83.641	-0.274	-0.303
-611.244	10.417	-0.520	-0.402
-610.230	-59.131	0.168	-0.073
-609.215	-200.000	-0.002	-0.013
-608.201	800.000	0.066	-0.247
-607.186	-110.529	-0.078	0.016
-606.171	132.908	0.092	-0.120
-605.157	307.460	-0.211	-0.398
-604.142	800.000	0.055	0.202
-603.128	-50.729	-0.077	0.037
-602.113	-200.000	-0.004	0.175
-601.098	-93.598	0.251	0.070
-600.084	157.157	0.154	-0.217
-599.069	-157.791	-0.503	-0.030
-598.055	5.818	-0.395	0.296
-597.040	97.851	0.130	-0.152
-596.025	129.018	0.127	0.165
-595.011	-160.567	0.370	-0.020
-593.996	-77.349	0.172	0.061
-592.982	104.625	-0.051	-0.061
-591.967	-200.000	0.050	0.307
-590.952	-99.133	0.416	0.107
-589.938	-21.178	-0.276	-0.171
-588.923	800.000	-0.039	0.141
-587.909	-104.831	-0.360	0.084
-586.894	265.255	-0.061	-0.108
-585.879	-7.168	0.370	0.254
-584.865	800.000	0.046	-0.151
-583.850	43.900	-0.134	-0.125
-582.836	177.293	0.078	-0.114
-581.821	-200.000	0.012	-0.169
-580.806	-91.234	0.082	-0.024
-579.792	-19.438	-0.261	0.164
-578.777	-83.836	0.418	-0.135
-577.763	-94.975	0.248	0.068
-576.748	-146.260	-0.132	-0.012
-575.733	25.945	0.101	0.085
-574.719	-200.000	0.045	0.219
-573.704	-139.278	0.459	-0.050
-572.690	-200.000	0.002	-0.144
-571.675	30.201	0.188	0.162
-570.661	-200.000	0.025	0.204
-569.646	-200.000	0.049	-0.240
-568.631	-21.766	0.118	0.073
-567.617	53.225	0.105	0.102
-566.602	-200.000	0.036	0.325
-565.588	794.645	-0.111	0.310
-564.573	-74.420	0.227	0.083
-563.558	129.980	-0.078	-0.101
-562.544	-118.075	0.112	0.020
-561.529	-106.612	0.117	0.026
-560.515	146.288	-0.149	0.202
-559.500	-75.644	0.045	0.016
-558.485	800.000	0.092	-0.277
-557.471	-114.859	0.161	-0.031
-556.456	-200.000	0.044	0.209
-555.442	42.773	-0.183	-0.168
-554.427	16.958	-0.204	-0.164
-553.412	-145.051	0.270	-0.025
-552.398	-12.643	-0.142	0.094
-551.383	64.764	0.104	0.106
-550.369	676.553	0.066	-0.172
-549.354	92.011	0.146	0.166
-548.339	30.971	-0.092	0.080
-547.325	22.513	0.215	0.178
-546.310	-200.000	-0.035	-0.238
-545.296	-200.000	0.068	0.454
-544.281	-68.267	-0.012	-0.005
-543.266	15.653	0.200	-0.159
-542.252	800.000	0.106	-0.335
-541.237	0.189	0.256	0.185
-540.223	-96.846	0.266	-0.071
-539.208	-128.477	0.143	0.021
-538.193	238.758	0.085	0.142
-537.179	-200.000	-0.013	0.467
-536.164	-19.105	0.242	0.152
-535.150	-168.179	-0.277	0.011
-534.135	36.336	-0.249	-0.222
-533.121	613.198	-0.106	-0.267
-532.106	-70.258	0.097	0.037
-531.091	129.394	0.123	0.159
-530.077	-200.000	-0.013	0.137
-529.062	200.630	-0.132	0.205
-528.048	-131.037	0.168	-0.023
-527.033	52.781	0.161	0.155
-526.018	30.683	0.133	-0.115
-525.004	335.550	0.134	-0.263
-523.989	636.628	0.137	0.353
-522.975	83.828	-0.139	0.153
-521.960	800.000	-0.021	-0.085
-520.945	302.006	-0.063	0.117
-519.931	800.000	0.055	0.207
-518.916	-196.108	0.024	0.000
-517.902	335.554	0.073	0.144
-516.887	48.106	-0.070	-0.066
-515.872	800.000	0.062	-0.187
-514.858	-42.854	0.139	0.071
-513.843	-200.000	-0.030	0.149
-512.829	212.226	0.065	0.104
-511.814	-182.178	0.314	0.006
-510.799	45.008	0.157	0.146
-509.785	8.688	0.215	0.164
-508.770	109.806	-0.095	0.115
-507.756	31.906	0.114	-0.099
-506.741	-200.000	0.013	0.133
-505.726	209.488	-0.236	-0.374
-504.712	-67.910	-0.220	0.087
-503.697	80.109	-0.020	0.022
-502.683	-184.581	-0.271	-0.004
-501.668	800.000	0.028	0.100
-500.653	-200.000	-0.046	-0.359
-499.639	90.292	-0.235	-0.265
-498.624	-200.000	-0.008	-0.092
-497.610	-13.313	0.038	0.025
-496.595	685.972	0.112	-0.296
-495.581	-38.102	-0.154	-0.082
-494.566	203.696	-0.083	0.129
-493.551	239.663	0.124	-0.208
-492.537	155.431	0.136	-0.189
-491.522	-163.913	0.223	-0.011
-490.508	228.913	-0.069	-0.114
-489.493	-55.411	-0.501	-0.227
-488.478	38.983	-0.231	-0.208
-487.464	9.110	-0.210	-0.160
-486.449	-200.000	0.031	-0.164
-485.435	-63.771	0.400	-0.165
-484.420	-95.685	-0.117	0.031
-483.405	-200.000	-0.046	0.228
-482.391	82.722	-0.067	0.073
-481.376	625.510	0.036	-0.093
-480.362	-55.890	-0.118	0.053
-479.347	414.530	-0.063	0.135
-478.332	-50.125	0.146	-0.070
-477.318	-0.325	-0.138	-0.099
-476.303	78.941	-0.226	-0.244
-475.289	-186.732	0.187	-0.003
-474.274	-29.144	-0.226	0.131
-473.259	-67.228	0.120	-0.047
-472.245	-52.446	-0.017	0.008
-471.230	-200.000	-0.032	-0.144
-470.216	-147.227	-0.168	0.014
-469.201	-113.276	0.218	-0.043
-468.186	47.178	-0.179	0.168
-467.172	-200.000	0.014	0.155
-466.157	-200.000	-0.023	-0.171
-465.143	800.000	-0.031	-0.125
-464.128	195.992	0.019	-0.029
-463.113	705.192	-0.146	0.389
-462.099	22.684	-0.357	0.295
-461.084	-53.601	0.309	0.143
-460.070	447.852	-0.095	0.211
-459.055	374.516	0.055	-0.114
-458.040	131.592	-0.172	0.223
-457.026	102.494	-0.021	-0.025
-456.011	-37.637	0.086	0.046
-454.997	14.692	0.058	0.045
-453.982	-138.015	0.074	-0.008
-452.968	-200.000	-0.020	0.093
-451.953	-42.096	-0.149	0.077
-450.938	-52.663	0.128	-0.059
-449.924	-131.940	0.324	0.043
-448.909	276.581	0.077	-0.139
-447.895	605.004	0.058	0.147
-446.880	-200.000	0.048	-0.254
-445.865	-72.849	-0.283	0.105
-444.851	-82.024	0.243	0.080
-443.836	-89.764	-0.358	0.106
-442.822	-134.131	-0.227	-0.028
-441.807	-120.619	-0.447	0.076
-440.792	-160.225	0.288	-0.016
-439.778	359.443	0.183	0.370
-438.763	-97.882	-0.134	0.035
-437.749	-200.000	-0.049	0.309
-436.734	-82.141	0.216	-0.071
-435.719	-39.637	-0.398	-0.210
-434.705	-192.253	0.479	-0.005
-433.690	800.000	-0.043	-0.133
-432.676	-200.000	-0.025	-0.309
-431.661	-200.000	0.013	-0.096
-430.646	-200.000	-0.006	-0.375
-429.632	196.897	-0.156	0.240
-428.617	-200.000	-0.011	0.266
-427.603	-200.000	0.073	0.375
-426.588	-15.687	-0.074	-0.047
-425.573	293.181	-0.094	-0.172
-424.559	-47.807	-0.324	-0.158
-423.544	-59.241	-0.164	-0.071
-422.530	-200.000	0.029	0.340
-421.515	-55.848	0.086	0.038
-420.500	-200.000	0.000	0.130
-419.486	-103.515	-0.258	-0.061
-418.471	-73.897	-0.311	-0.114
-417.457	800.000	0.082	-0.270
-416.442	-152.426	-0.123	0.009
-415.428	384.249	0.040	0.082
-414.413	13.690	0.252	0.197
-413.398	-200.000	-0.014	-0.175
-412.384	-200.000	-0.028	0.179
-411.369	-36.846	0.208	-0.112
-410.355	330.673	0.123	0.239
-409.340	800.000	-0.018	0.060
-408.325	-64.588	-0.321	0.131
-407.311	53.532	0.026	0.025
-406.296	-129.862	0.198	0.027
-405.282	32.697	0.171	0.149
-404.267	-7.072	0.127	-0.087
-403.252	-54.629	0.098	0.044
-402.238	800.000	-0.079	-0.266
-401.223	-200.000	-0.010	0.167
-400.209	93.806	-0.197	-0.225
-399.194	-200.000	-0.035	-0.216
-398.179	390.765	0.161	0.337
-397.165	800.000	0.086	0.314
-396.150	800.000	0.039	0.168
-395.136	-74.509	-0.086	0.031
-394.121	703.342	-0.033	0.088
-393.106	19.825	0.237	-0.192
-392.092	11.181	-0.139	-0.107
-391.077	-107.870	-0.188	-0.041
-390.063	-143.184	0.202	-0.020
-389.048	76.437	-0.231	0.247
-388.033	116.125	-0.095	-0.117
-387.019	-7.043	0.399	-0.272
-386.004	-79.719	-0.288	0.098
-384.990	146.702	0.170	-0.229
-383.975	-200.000	-0.003	0.346
-382.960	-17.447	-0.157	-0.099
-381.946	-200.000	0.002	-0.103
-380.931	800.000	-0.008	-0.032
-379.917	38.940	0.036	0.032
-378.902	800.000	0.061	-0.170
-377.888	487.576	-0.211	0.485
-376.873	5.355	0.306	0.227
-375.858	331.937	-0.094	-0.182
-374.844	800.000	0.075	-0.212
-373.829	181.060	-0.160	0.236
-372.815	-133.482	-0.083	-0.011
-371.800	-200.000	0.005	0.156
-370.785	-200.000	0.038	-0.223
-369.771	800.000	0.054	0.182
-368.756	457.818	0.099	-0.222
-367.742	-200.000	-0.043	-0.253
-366.727	-200.000	-0.024	0.118
-365.712	29.916	-0.212	0.182
-364.698	-22.602	-0.456	-0.277
-363.683	-82.692	0.275	0.089
-362.669	-96.311	-0.360	0.096
-361.654	9.219	-0.199	-0.151
-360.639	-12.071	0.322	-0.212
-359.625	796.200	0.091	0.251
-358.610	169.704	0.076	0.110
-357.596	10.590	0.097	0.074
-356.581	-200.000	0.054	-0.298
-355.566	800.000	0.119	-0.360
-354.552	-162.302	-0.199	0.010
-353.537	34.667	0.279	0.245
-352.523	-200.000	0.025	-0.200
-351.508	-13.167	0.061	0.040
-350.493	800.000	0.101	-0.323
-349.479	-164.996	-0.103	-0.005
-348.464	-200.000	-0.025	0.129
-347.450	44.208	0.260	0.240
-346.435	262.787	-0.262	0.457
-345.420	489.304	-0.016	-0.036
-344.406	-29.602	-0.097	0.055
-343.391	379.271	-0.101	0.207
-342.377	-130.387	0.317	0.043
-341.362	123.950	-0.272	-0.343
-340.348	201.765	-0.105	-0.163
-339.333	-200.000	0.043	-0.502
-338.318	-200.000	0.029	0.423
-337.304	800.000	0.032	0.130
-336.289	-200.000	0.010	-0.259
-335.275	-128.270	0.336	0.048
-334.260	-82.767	0.054	-0.018
-333.245	-74.892	-0.209	-0.075
-332.231	483.750	0.101	0.230
-331.216	-110.906	0.373	0.077
-330.202	147.169	0.099	-0.133
-329.187	800.000	-0.080	0.324
-328.172	65.626	0.125	-0.127
-327.158	414.410	-0.080	0.170
-326.143	159.068	0.136	0.190
-325.129	-200.000	0.047	0.392
-324.114	3.657	0.261	0.191
-323.099	113.019	-0.079	-0.096
-322.085	-155.248	0.181	-0.012
-321.070	-41.120	-0.055	-0.029
-320.056	-15.266	0.337	-0.216
-319.041	-14.459	-0.297	-0.191
-318.026	-50.576	-0.207	-0.098
-317.012	-87.805	0.133	-0.040
-315.997	-34.239	0.255	0.141
-314.983	-32.848	-0.331	-0.185
-313.968	8.622	0.210	0.158
-312.953	234.718	0.268	0.443
-311.939	-12.506	0.164	0.107
-310.924	313.772	0.041	0.078
-309.910	88.961	-0.178	-0.199
-308.895	-71.930	0.339	-0.127
-307.880	87.182	0.141	0.156
-306.866	800.000	0.006	0.027
-305.851	362.882	-0.088	0.176
-304.837	-200.000	0.038	-0.326
-303.822	134.050	0.121	0.158
-302.807	289.784	0.136	-0.247
-301.793	-29.033	-0.153	0.088
-300.778	-82.429	-0.222	-0.072
-299.764	-68.917	-0.411	-0.159
-298.749	34.455	0.089	0.078
-297.735	185.674	-0.112	0.167
-296.720	-116.560	0.145	-0.027
-295.705	15.415	0.164	-0.129
-294.691	-7.203	0.348	-0.236
-293.676	-116.324	-0.228	-0.042
-292.662	-200.000	-0.029	-0.139
-291.647	353.513	-0.017	0.034
-290.632	14.760	-0.219	0.172
-289.618	291.183	-0.130	0.237
-288.603	-26.872	-0.526	0.308
-287.589	-200.000	0.046	0.211
-286.574	800.000	-0.009	0.030
-285.559	149.749	0.193	-0.262
-284.545	-200.000	-0.031	-0.189
-283.530	-200.000	0.087	0.565
-282.516	41.678	-0.112	-0.101
-281.501	-102.280	-0.261	0.063
-280.486	141.723	0.076	-0.101
-279.472	112.695	-0.021	-0.026
-278.457	155.299	0.100	0.138
-277.443	-200.000	0.030	-0.221
-276.428	104.022	-0.146	-0.172
-275.413	-2.313	0.253	-0.178
-274.399	-136.223	-0.136	-0.016
-273.384	-170.987	-0.231	0.008
-272.370	-139.241	-0.173	-0.019
-271.355	-200.000	0.069	-0.372
-270.340	-66.009	0.126	0.050
-269.326	-200.000	-0.004	0.269
-268.311	-151.280	-0.256	0.019
-267.297	-12.059	0.147	-0.096
-266.282	344.193	-0.141	0.276
-265.267	800.000	0.061	-0.173
-264.253	194.282	0.029	-0.043
-263.238	-68.475	-0.126	-0.049
-262.224	-88.701	-0.319	-0.095
-261.209	800.000	0.138	0.415
-260.195	-124.192	-0.224	-0.035
-259.180	800.000	-0.077	0.332
-258.165	391.042	0.161	0.334
-257.151	-153.709	-0.233	-0.016
-256.136	-200.000	-0.018	-0.096
-255.122	-123.074	-0.213	0.034
-254.107	-109.481	0.253	0.053
-253.092	-136.251	0.228	0.027
-252.078	614.657	0.149	-0.373
-251.063	53.018	-0.117	0.112
-250.049	-67.295	-0.355	0.140
-249.034	37.563	-0.182	-0.161
-248.019	-200.000	0.015	0.327
-247.005	310.557	-0.014	0.027
-245.990	149.983	-0.210	-0.285
-244.976	800.000	-0.085	-0.294
-243.961	80.923	0.069	0.074
-242.946	800.000	-0.018	-0.053
-241.932	53.116	-0.123	0.118
-240.917	30.926	-0.129	-0.111
-239.903	800.000	-0.153	-0.482
-238.888	-200.000	0.042	-0.419
-237.873	14.399	0.354	0.276
-236.859	800.000	-0.066	0.279
-235.844	-110.736	-0.224	-0.046
-234.830	92.338	-0.066	-0.074
-233.815	2.107	0.147	0.106
-232.800	-29.949	0.139	-0.079
-231.786	-66.375	0.411	-0.163
-230.771	28.228	-0.147	-0.124
-229.757	85.510	-0.210	0.231
-228.742	95.700	0.330	-0.377
-227.727	72.567	-0.019	-0.020
-226.713	37.199	0.121	-0.107
-225.698	-200.000	0.038	0.220
-224.684	-119.332	0.322	-0.056
-223.669	-200.000	0.059	-0.291
-222.655	139.723	-0.036	0.047
-221.640	-72.264	-0.161	-0.060
-220.625	-200.000	-0.034	-0.185
-219.611	54.304	0.215	0.207
-218.596	-200.000	-0.062	-0.319
-217.582	-200.000	0.020	0.122
-216.567	408.212	0.103	0.218
-215.552	800.000	0.114	0.396
-214.538	-200.000	-0.027	0.276
-213.523	-200.000	-0.018	-0.090
-212.509	8.481	-0.110	-0.083
-211.494	-160.119	0.287	-0.016
-210.479	800.000	0.013	0.037
-209.465	670.897	-0.096	0.249
-208.450	276.175	-0.076	-0.135
-207.436	-97.305	-0.338	0.088
-206.421	-148.699	-0.262	0.021
-205.406	433.527	0.146	-0.316
-204.392	145.592	-0.042	0.056
-203.377	-18.881	0.078	-0.048
-202.363	-29.565	-0.294	0.167
-201.348	-134.443	-0.103	-0.013
-200.333	-200.000	-0.022	0.127
-199.319	-200.000	0.038	-0.245
-198.304	-200.000	-0.002	0.064
-197.290	-14.898	-0.285	0.182
-196.275	-36.259	0.127	-0.068
-195.260	17.874	0.221	-0.176
-194.246	-129.730	0.425	-0.058
-193.231	239.720	-0.051	-0.085
-192.217	-121.360	-0.045	-0.008
-191.202	-131.500	0.193	-0.025
-190.187	-131.069	0.281	-0.037
-189.173	144.961	0.024	0.032
-188.158	410.727	-0.040	0.086
-187.144	-105.119	-0.092	0.021
-186.129	800.000	-0.082	0.293
-185.114	-124.293	-0.249	0.039
-184.100	-200.000	0.059	-0.273
-183.085	741.170	0.067	-0.181
-182.071	-20.007	-0.164	-0.101
-181.056	66.618	0.200	0.203
-180.042	22.321	0.172	-0.140
-179.027	800.000	-0.067	-0.246
-178.012	439.888	0.109	-0.237
-176.998	800.000	0.046	-0.129
-175.983	96.198	0.318	-0.363
-174.969	-6.178	-0.153	-0.104
-173.954	-21.286	-0.145	-0.088
-172.939	-21.250	-0.040	0.025
-171.925	-200.000	0.006	0.102
-170.910	-148.385	0.180	0.015
-169.896	-192.113	0.184	-0.002
-168.881	-124.822	0.203	0.031
-167.866	-200.000	-0.048	0.484
-166.852	368.344	-0.132	-0.267
-165.837	731.622	0.147	0.391
-164.823	-179.289	-0.525	0.012
-163.808	-103.479	-0.505	0.118
-162.793	-200.000	0.047	0.212
-161.779	800.000	-0.021	-0.071
-160.764	-9.938	-0.124	-0.082
-159.750	-9.573	0.075	0.050
-158.735	-18.269	0.101	0.063
-157.720	-200.000	-0.037	-0.172
-156.706	180.746	0.179	0.261
-155.691	-200.000	0.038	0.172
-154.677	-200.000	0.001	0.022
-153.662	150.003	0.088	0.119
-152.647	740.748	0.123	0.328
-151.633	-91.681	0.212	0.060
-150.618	-113.789	0.152	-0.030
-149.604	-67.400	-0.358	0.140
-148.589	-200.000	-0.016	-0.310
-147.574	-200.000	-0.001	0.018
-146.560	-200.000	0.011	-0.063
-145.545	-13.486	0.231	0.149
-144.531	800.000	0.056	0.194
-143.516	401.549	-0.122	-0.255
-142.502	-14.526	-0.148	0.095
-141.487	-79.710	-0.169	0.057
-140.472	66.792	0.070	-0.071
-139.458	-157.378	0.139	0.008
-138.443	-96.492	0.251	0.066
-137.429	152.894	-0.112	-0.153
-136.414	501.331	-0.146	-0.335
-135.399	-200.000	0.009	-0.107
-134.385	800.000	0.005	-0.020
-133.370	-200.000	-0.066	0.378
-132.356	86.785	0.163	0.179
-131.341	-164.909	0.136	-0.006
-130.326	800.000	-0.052	-0.151
-129.312	-66.301	0.040	-0.016
-128.297	60.257	0.207	0.204
-127.283	-200.000	0.010	0.105
-126.268	99.782	-0.228	-0.262
-125.253	26.274	0.116	0.097
-124.239	-200.000	-0.050	0.243
-123.224	-200.000	-0.008	-0.167
-122.210	-200.000	-0.036	-0.170
-121.195	-200.000	-0.007	0.106
-120.180	248.900	0.093	-0.157
-119.166	-179.293	0.109	0.002
-118.151	-200.000	0.035	-0.167
-117.137	53.899	-0.120	0.115
-116.122	800.000	-0.077	-0.311
-115.107	17.893	0.104	0.082
-114.093	-115.815	0.247	-0.046
-113.078	-10.300	0.222	-0.146
-112.064	187.272	0.173	0.257
-111.049	615.282	-0.117	0.292
-110.034	63.670	0.074	-0.074
-109.020	-178.545	-0.182	0.004
-108.005	94.807	0.238	0.269
-106.991	-200.000	0.000	-0.103
-105.976	449.023	-0.070	-0.154
-104.962	-78.624	0.136	0.046
-103.947	92.430	0.081	-0.091
-102.932	-200.000	-0.040	0.330
-101.918	-200.000	-0.048	0.209
-100.903	433.761	-0.070	0.152
-99.889	-98.339	-0.016	-0.004
-98.874	-113.859	0.304	0.059
-97.859	3.124	-0.247	0.179
-96.845	33.854	0.128	-0.111
-95.830	-53.931	-0.201	0.091
-94.816	194.341	0.069	0.104
-93.801	-86.026	-0.282	-0.087
-92.786	50.604	0.263	0.247
-91.772	430.491	0.048	0.104
-90.757	-45.109	0.443	0.219
-89.743	86.941	-0.083	0.091
-88.728	800.000	-0.077	0.336
-87.713	30.786	-0.281	0.239
-86.699	-60.616	-0.068	-0.029
-85.684	-80.370	-0.207	-0.069
-84.670	800.000	-0.093	0.382
-83.655	-110.647	0.293	0.060
-82.640	12.900	0.264	-0.202
-81.626	356.766	-0.159	0.315
-80.611	-154.680	-0.312	-0.021
-79.597	8.523	0.375	0.280
-78.582	667.942	-0.102	0.263
-77.567	-200.000	0.011	-0.065
-76.553	-28.761	-0.127	-0.072
-75.538	800.000	-0.100	0.331
-74.524	800.000	-0.083	-0.262
-73.509	-200.000	-0.001	-0.152
-72.494	-200.000	0.067	-0.374
-71.480	119.982	0.024	0.030
-70.465	298.093	-0.122	-0.223
-69.451	-52.960	-0.181	-0.083
-68.436	-200.000	0.034	-0.400
-67.422	-106.596	0.121	-0.027
-66.407	-200.000	0.027	-0.180
-65.392	353.127	-0.070	0.137
-64.378	8.715	0.131	-0.098
-63.363	800.000	0.073	-0.225
-62.349	15.920	0.092	-0.072
-61.334	35.724	-0.921	-0.804
-60.319	400.343	0.133	0.277
-59.305	-200.000	-0.215	-1.070
-58.290	-200.000	0.154	0.948
-57.276	800.000	0.519	1.468
-56.261	-200.000	86.840	496.411
-55.246	473.606	1373.250	3073.131
-54.232	148.915	2582.539	3466.193
-53.217	112.626	2197.558	2640.573
-52.203	48.977	1653.814	1541.163
-51.188	41.666	1387.752	1247.727
-50.173	38.238	1344.434	1187.936
-49.159	56.904	1388.309	1342.345
-48.144	61.610	1407.971	1390.380
-47.130	42.011	1364.119	1228.401
-46.115	38.281	1347.031	1190.306
-45.100	38.046	1341.871	1184.274
-44.086	37.994	1339.478	1181.800
-43.071	37.863	1337.285	1179.023
-42.057	37.904	1334.646	1176.897
-41.042	37.885	1333.433	1175.669
-40.027	37.975	1331.991	1174.894
-39.013	38.004	1330.023	1173.284
-37.998	38.005	1327.851	1171.329
-36.984	38.131	1326.292	1170.661
-35.969	38.053	1324.184	1168.286
-34.954	38.107	1322.426	1167.010
-33.940	38.212	1320.898	1166.246
-32.925	38.282	1319.458	1165.342
-31.911	38.289	1318.473	1164.469
-30.896	38.154	1317.100	1162.408
-29.881	38.243	1315.399	1161.389
-28.867	38.243	1313.933	1160.052
-27.852	38.268	1312.840	1159.188
-26.838	38.312	1311.016	1157.789
-25.823	38.162	1310.004	1155.965
-24.809	38.206	1308.424	1154.785
-23.794	38.266	1306.840	1153.695
-22.779	38.284	1305.320	1152.410
-21.765	38.211	1304.099	1150.857
-20.750	38.181	1303.273	1149.908
-19.736	38.191	1301.511	1148.365
-18.721	37.997	1300.806	1146.558
-17.706	38.099	1299.213	1145.706
-16.692	38.158	1297.603	1144.591
-15.677	38.129	1296.928	1143.775
-14.663	38.106	1295.830	1142.629
-13.648	38.068	1294.569	1141.248
-12.633	38.064	1293.953	1140.638
-11.619	38.115	1292.925	1139.987
-10.604	38.133	1291.716	1138.979
-9.590	38.137	1290.807	1138.154
-8.575	38.063	1290.136	1137.086
-7.560	38.021	1289.418	1136.161
-6.546	38.082	1287.854	1135.097
-5.531	38.054	1287.298	1134.398
-4.517	38.029	1286.769	1133.741
-3.502	38.038	1285.580	1132.703
-2.487	38.035	1284.547	1131.729
-1.473	38.117	1280.469	1128.565
-0.458	36.032	1263.938	1102.041
0.556	31.978	1242.672	1053.302
1.571	27.135	1245.737	1028.475
2.586	25.686	1260.459	1032.237
3.600	24.693	1248.702	1016.871
4.615	18.095	1174.768	921.149
5.629	7.728	1095.018	806.213
6.644	2.990	1072.768	766.180
7.659	2.533	1070.364	762.119
8.673	2.362	1068.732	760.045
9.688	2.257	1067.442	758.538
10.702	2.757	1065.861	759.824
11.717	8.855	1074.808	796.515
12.731	19.036	1089.547	858.417
13.746	24.576	1096.919	891.891
14.761	25.756	1098.390	898.908
15.775	26.043	1097.779	899.759
16.790	25.814	1096.891	897.811
17.804	25.638	1096.313	896.379
18.819	25.727	1096.158	896.616
19.834	25.883	1095.891	897.095
20.848	26.004	1095.066	896.945
21.863	25.988	1094.787	896.554
22.877	25.885	1093.889	895.227
23.892	25.891	1093.368	894.750
24.907	25.885	1092.473	893.914
25.921	25.750	1091.755	892.576
26.936	25.878	1090.016	891.709
27.950	25.789	1088.724	890.135
28.965	25.724	1086.605	888.003
29.980	25.790	1085.242	887.134
30.994	25.971	1084.743	887.539
32.009	25.840	1083.648	885.919
33.023	25.787	1082.141	884.352
34.038	25.777	1081.851	883.987
35.053	25.957	1080.614	883.778
36.067	25.966	1080.134	883.353
37.082	26.045	1079.218	882.909
38.096	26.030	1079.065	882.633
39.111	26.195	1078.108	882.581
40.126	25.898	1077.148	880.265
41.140	25.574	1075.198	877.013
42.155	25.432	1073.568	874.916
43.169	25.407	1073.148	874.375
44.184	25.478	1071.930	873.651
45.199	25.405	1070.695	872.211
46.213	25.526	1070.026	872.177
47.228	25.593	1069.738	872.192
48.242	25.665	1068.693	871.607
49.257	25.957	1067.311	871.815
50.271	26.018	1066.929	871.722
51.286	26.007	1065.932	870.780
52.301	26.009	1065.366	870.251
53.315	25.779	1064.829	868.625
54.330	25.857	1063.758	868.050
55.344	25.742	1063.104	866.886
56.359	25.774	1061.716	865.831
57.374	25.659	1060.999	864.614
58.388	25.693	1060.235	864.080
59.403	25.488	1059.683	862.569
60.417	25.347	1058.821	861.115
61.432	25.576	1057.775	861.284
62.447	25.468	1057.496	860.465
63.461	25.736	1056.042	860.486
64.476	25.604	1055.489	859.331
65.490	25.478	1054.723	858.028
66.505	25.503	1054.048	857.523
67.520	25.582	1053.525	857.396
68.534	25.373	1051.917	855.021
69.549	25.143	1050.960	853.071
70.563	25.072	1050.168	852.017
71.578	25.058	1049.179	851.071
72.593	24.940	1048.684	850.033
73.607	25.172	1047.510	850.106
74.622	25.415	1047.282	851.000
75.636	25.281	1047.056	850.105
76.651	25.438	1045.588	849.582
77.666	25.216	1045.107	848.065
78.680	25.225	1044.727	847.726
79.695	25.359	1043.685	847.436
80.709	25.477	1043.297	847.600
81.724	25.394	1042.583	846.556
82.739	25.538	1041.693	846.439
83.753	25.765	1041.317	847.123
84.768	26.232	1040.088	848.244
85.782	26.181	1039.410	847.377
86.797	26.135	1038.200	846.101
87.812	25.907	1037.388	844.295
88.826	26.021	1036.702	844.196
89.841	26.276	1035.447	844.290
90.855	26.184	1034.683	843.164
91.870	26.211	1033.696	842.411
92.884	26.164	1031.958	840.700
93.899	25.887	1031.749	839.164
94.914	26.077	1031.197	839.528
95.928	25.961	1029.618	837.628
96.943	25.718	1028.550	835.557
97.957	25.442	1027.583	833.417
98.972	25.457	1026.113	832.223
99.987	25.681	1025.240	832.475
101.001	25.968	1024.693	833.286
102.016	25.948	1023.864	832.447
103.030	25.783	1023.257	831.117
104.045	25.631	1022.122	829.419
105.060	25.455	1020.855	827.508
106.074	25.561	1020.539	827.666
107.089	25.955	1020.201	829.133
108.103	25.800	1018.976	827.352
109.118	25.588	1017.405	825.030
110.133	25.626	1016.507	824.402
111.147	25.354	1015.039	821.897
112.162	25.266	1013.972	820.554
113.176	25.425	1014.528	821.659
114.191	25.358	1013.363	820.339
115.206	25.194	1012.017	818.426
116.220	25.205	1011.057	817.630
117.235	25.195	1010.762	817.270
118.249	25.147	1009.755	816.167
119.264	25.234	1008.830	815.742
120.279	25.196	1008.007	814.834
121.293	25.213	1006.793	813.855
122.308	25.328	1006.545	814.106
123.322	25.154	1005.427	812.339
124.337	25.024	1004.287	810.761
125.352	24.566	1002.439	807.130
126.366	24.430	1001.549	805.726
127.381	25.299	1001.243	809.327
128.395	25.676	1001.305	811.006
129.410	25.835	1000.124	810.693
130.424	25.767	999.262	809.619
131.439	25.731	998.402	808.687
132.454	25.744	997.505	807.949
133.468	25.665	996.757	806.914
134.483	25.969	995.810	807.439
135.497	26.077	994.841	807.064
136.512	26.055	994.696	806.779
137.527	26.200	993.361	806.271
138.541	26.071	992.986	805.319
139.556	26.054	992.206	804.542
140.570	26.281	991.240	804.699
141.585	26.192	990.692	803.786
142.600	26.117	989.125	802.107
143.614	26.194	988.916	802.210
144.629	26.375	988.296	802.439
145.643	26.123	986.596	799.874
146.658	26.001	985.121	798.066
147.673	25.865	984.170	796.621
148.687	25.895	982.859	795.623
149.702	25.771	982.008	794.318
150.716	25.565	981.402	792.851
151.731	26.013	980.388	793.931
152.746	26.306	979.814	794.685
153.760	26.215	979.384	793.866
154.775	26.254	978.750	793.454
155.789	26.266	977.772	792.644
156.804	26.132	976.942	791.312
157.819	26.177	976.320	790.938
158.833	26.274	975.656	790.752
159.848	26.331	974.853	790.284
160.862	26.113	973.347	788.040
161.877	25.904	972.732	786.559
162.892	26.082	971.683	786.417
163.906	26.150	970.272	785.504
164.921	26.275	969.132	785.055
165.935	26.207	968.557	784.222
166.950	26.179	967.413	783.106
167.964	26.026	967.216	782.215
168.979	26.012	965.431	780.638
169.994	25.837	964.781	779.287
171.008	26.219	964.147	780.358
172.023	26.231	963.441	779.770
173.037	25.967	962.499	777.797
174.052	25.903	961.267	776.458
175.067	25.854	960.569	775.617
176.081	25.966	960.228	775.754
177.096	25.896	959.629	774.902
178.110	25.615	958.515	772.726
179.125	25.441	957.715	771.264
180.140	25.468	957.406	771.062
181.154	25.685	957.345	771.879
182.169	26.075	957.125	773.302
183.183	26.208	956.476	773.278
184.198	26.072	955.625	771.943
185.213	25.973	954.761	770.751
186.227	26.118	954.225	770.871
187.242	26.117	954.023	770.635
188.256	26.109	953.349	769.989
189.271	26.184	952.488	769.543
190.286	25.824	951.126	766.843
191.300	25.223	949.930	763.257
192.315	24.521	947.952	758.619
193.329	24.391	947.976	758.018
194.344	25.296	948.247	762.011
195.359	26.033	948.031	764.897
196.373	26.133	947.420	764.758
197.388	25.881	947.147	763.402
198.402	26.086	946.194	763.437
199.417	26.116	945.655	763.059
200.432	25.848	944.849	761.211
201.446	25.662	943.998	759.671
202.461	25.744	943.235	759.337
203.475	24.833	941.274	753.853
204.490	24.120	940.314	750.019
205.504	24.903	940.900	753.715
206.519	25.633	940.655	756.526
207.534	25.760	940.011	756.476
208.548	26.114	939.777	757.705
209.563	25.888	938.669	755.798
210.577	25.798	938.440	755.169
211.592	26.239	938.024	756.614
212.607	26.272	937.157	755.984
213.621	26.334	936.236	755.436
214.636	26.217	936.238	754.880
215.650	26.114	935.157	753.513
216.665	26.359	934.224	753.717
217.680	26.211	933.774	752.670
218.694	25.809	932.537	749.934
219.709	25.741	931.919	749.086
220.723	25.860	931.827	749.440
221.738	25.977	931.180	749.342
222.753	26.059	930.337	748.937
223.767	26.023	929.977	748.430
224.782	26.359	929.753	749.579
225.796	26.376	929.031	748.999
226.811	25.694	927.465	744.850
227.826	25.099	925.844	741.023
228.840	25.198	925.817	741.344
229.855	25.258	924.969	740.848
230.869	24.993	923.886	738.824
231.884	25.387	923.774	740.293
232.899	26.169	923.870	743.527
233.913	25.889	923.442	741.963
234.928	25.970	922.642	741.586
235.942	25.886	921.864	740.552
236.957	25.440	921.408	738.286
237.972	25.683	920.533	738.518
238.986	25.767	920.239	738.562
240.001	25.805	918.997	737.655
241.015	25.764	918.973	737.403
242.030	25.887	918.584	737.527
243.045	26.010	918.015	737.509
244.059	26.151	917.519	737.622
245.074	25.874	916.796	735.844
246.088	25.653	915.186	733.587
247.103	25.799	915.654	734.493
248.117	26.442	915.408	736.848
249.132	26.714	914.983	737.550
250.147	26.721	914.565	737.174
251.161	26.840	914.502	737.546
252.176	26.895	913.274	736.712
253.190	26.947	912.818	736.491
254.205	27.039	912.518	736.555
255.220	27.070	911.547	735.834
256.234	26.959	911.019	734.891
257.249	26.826	910.190	733.618
258.263	26.899	909.575	733.353
259.278	26.922	908.802	732.760
260.293	27.109	908.230	732.989
261.307	26.962	907.409	731.665
262.322	26.714	906.516	729.883
263.336	25.959	904.971	725.538
264.351	25.032	903.053	720.215
265.366	25.124	902.775	720.298
266.380	26.044	903.488	724.500
267.395	26.549	903.364	726.360
268.409	26.408	902.637	725.149
269.424	26.748	901.812	725.783
270.439	26.855	901.003	725.494
271.453	26.832	900.877	725.238
272.468	26.969	900.547	725.457
273.482	26.961	900.130	725.022
274.497	26.541	898.955	722.338
275.512	26.239	897.491	719.893
276.526	26.507	898.122	721.403
277.541	26.804	897.331	721.889
278.555	26.595	896.435	720.273
279.570	26.426	895.932	719.131
280.585	26.754	894.954	719.587
281.599	26.557	894.353	718.257
282.614	26.014	893.150	715.075
283.628	25.890	892.840	714.272
284.643	26.426	892.550	716.102
285.657	26.034	891.130	713.346
286.672	25.717	890.531	711.551
287.687	26.225	890.514	713.485
288.701	26.355	890.164	713.653
289.716	26.045	888.716	711.206
290.730	25.863	888.503	710.255
291.745	25.638	887.598	708.586
292.760	26.032	887.569	710.050
293.774	27.017	887.868	714.100
294.789	27.230	887.468	714.556
295.803	27.250	886.936	714.140
296.818	27.361	886.302	714.004
297.833	26.891	885.247	711.246
298.847	26.641	884.612	709.693
299.862	26.975	884.603	710.934
300.876	27.248	884.232	711.639
301.891	27.174	883.321	710.554
302.906	26.765	882.288	708.065
303.920	26.982	881.869	708.510
304.935	27.365	881.401	709.569
305.949	27.335	881.129	709.168
306.964	27.007	880.282	707.148
307.979	27.027	879.855	706.821
308.993	27.502	879.764	708.529
310.008	27.294	879.476	707.427
311.022	27.109	878.048	705.499
312.037	26.896	877.767	704.386
313.052	26.828	876.247	702.838
314.066	25.838	874.925	697.881
315.081	25.599	874.099	696.239
316.095	26.335	874.833	699.611
317.110	26.836	874.816	701.474
318.125	25.967	872.964	696.572
319.139	24.956	871.273	691.258
320.154	24.923	870.916	690.786
321.168	25.900	871.407	694.883
322.183	26.758	871.523	698.221
323.197	26.913	871.134	698.447
324.212	26.999	870.740	698.399
325.227	26.977	870.445	698.017
326.241	26.875	869.682	696.949
327.256	26.818	868.735	695.913
328.270	26.616	868.333	694.752
329.285	26.493	867.451	693.514
330.300	26.421	866.628	692.518
331.314	26.577	866.534	692.980
332.329	27.013	866.406	694.485
333.343	27.088	866.018	694.399
334.358	27.060	865.502	693.814
335.373	27.292	865.375	694.540
336.387	27.567	865.018	695.242
337.402	27.543	864.852	694.954
338.416	27.530	864.448	694.517
339.431	27.615	864.087	694.491
340.446	27.690	864.077	694.708
341.460	27.599	863.206	693.598
342.475	27.311	863.071	692.334
343.489	27.501	862.625	692.637
344.504	27.864	861.938	693.402
345.519	28.050	861.612	693.785
346.533	28.008	861.444	693.428
347.548	27.971	860.958	692.837
348.562	27.783	860.632	691.799
349.577	28.060	859.232	691.661
350.592	27.829	858.998	690.537
351.606	27.866	858.144	689.931
352.621	27.693	857.266	688.509
353.635	27.719	856.241	687.724
354.650	27.001	854.841	683.836
355.665	26.163	853.028	679.174
356.679	26.439	853.067	680.183
357.694	27.072	852.369	681.942
358.708	26.952	851.939	681.089
359.723	27.278	852.230	682.483
360.738	27.496	851.990	683.048
361.752	27.600	851.444	682.941
362.767	27.925	851.373	684.040
363.781	28.161	850.946	684.520
364.796	28.216	850.581	684.373
365.810	28.518	849.972	684.949
366.825	28.325	849.735	683.975
367.840	27.979	849.017	682.047
368.854	27.600	847.802	679.598
369.869	27.685	847.301	679.453
370.883	27.795	846.990	679.555
371.898	27.640	846.613	678.613
372.913	27.709	846.079	678.383
373.927	27.707	845.856	678.136
374.942	27.901	845.390	678.422
375.956	28.023	845.105	678.588
376.971	28.132	845.021	678.864
377.986	28.354	844.197	678.966
379.000	28.196	843.810	678.009
380.015	28.234	842.788	677.266
381.029	28.213	842.703	677.061
382.044	28.102	842.671	676.565
383.059	28.289	841.199	676.013
384.073	28.203	841.465	675.851
385.088	28.112	840.662	674.812
386.102	28.084	839.478	673.696
387.117	27.926	838.616	672.364
388.132	27.562	837.791	670.304
389.146	27.105	836.866	667.826
390.161	27.510	836.985	669.350
391.175	27.904	836.723	670.530
392.190	27.801	835.476	669.094
393.205	26.482	832.919	662.161
394.219	24.717	831.726	654.700
395.234	24.567	831.480	653.896
396.248	26.232	832.827	660.999
397.263	27.811	833.678	667.392
398.278	27.737	833.093	666.597
399.292	27.493	832.623	665.271
400.307	27.503	832.039	664.782
401.321	27.654	831.676	664.983
402.336	28.030	831.559	666.200
403.350	28.370	831.577	667.396
404.365	28.763	831.274	668.524
405.380	28.969	830.884	668.900
406.394	29.054	830.322	668.698
407.409	28.771	830.534	667.780
408.423	28.814	829.794	667.282
409.438	29.001	829.166	667.395
410.453	29.001	828.779	667.024
411.467	28.844	828.248	665.969
412.482	28.849	827.893	665.644
413.496	29.132	827.535	666.323
414.511	29.115	827.056	665.816
415.526	28.929	826.968	665.013
416.540	28.846	825.563	663.527
417.555	28.578	825.178	662.190
418.569	28.567	825.322	662.208
419.584	28.553	824.614	661.531
420.599	28.536	823.398	660.436
421.613	102.696	1278.193	1418.169
422.628	88.884	1344.456	1418.285
