DTS Sentinel unit serial number:	SN413079Multiplexer serial number:	ORYXHardware model number:	OX4-SRSoftware version number:	ORYX F/W v4.00 Oryx Data Collector v3.7.2.0data status	okinstallation	princeton_trtdifferential loss correction	single-endedforward channel	channel 1reverse channel	N/Adate	2019/09/15time	23:14:35forward acquisition time	60.00reverse acquisition time	0.00gamma	496.2192k internal	0.2332k external	0.2332temperature offset calibration	0.9966default loss term (dB/km)	0.3790temperature slope calibration	1.0000multiplexer offset coefficient	1.0000multiplexer slope coefficient	1.0000fibre end	0.00T internal ref (°C)	28.37T ext. ref 1 (°C)	9.06T ext. ref 2 (°C)	22.16length (m)	temperature (°C)	Stokes	anti-Stokes-747.200	-21.235	0.111	0.068
-746.185	457.298	-0.039	0.086
-745.171	-66.683	0.156	0.062
-744.156	354.808	0.115	0.231
-743.142	394.954	0.079	-0.166
-742.127	619.697	0.092	0.233
-741.112	-70.938	-0.113	-0.043
-740.098	494.335	-0.087	0.200
-739.083	-18.775	0.288	0.181
-738.069	-87.778	0.174	-0.053
-737.054	-200.000	0.042	0.189
-736.039	158.162	-0.190	-0.265
-735.025	29.098	0.083	0.071
-734.010	-14.894	-0.277	-0.178
-732.996	-31.417	-0.035	0.020
-731.981	549.974	0.082	0.197
-730.966	-127.484	0.267	-0.039
-729.952	256.421	-0.087	-0.150
-728.937	-144.371	0.061	0.006
-727.923	288.757	-0.174	-0.317
-726.908	-89.110	0.114	0.034
-725.894	-4.091	-0.333	-0.232
-724.879	-200.000	-0.056	-0.444
-723.864	-200.000	0.009	0.147
-722.850	-103.639	-0.165	0.039
-721.835	161.706	0.296	-0.417
-720.821	-135.702	-0.060	0.007
-719.806	245.745	0.217	0.368
-718.791	610.609	-0.117	0.294
-717.777	96.121	-0.151	-0.173
-716.762	-61.710	-0.282	-0.119
-715.748	14.159	-0.313	0.245
-714.733	-63.849	-0.160	0.066
-713.718	4.692	0.176	0.130
-712.704	46.113	-0.192	-0.179
-711.689	-200.000	-0.056	-0.329
-710.675	51.759	0.283	0.270
-709.660	-123.494	0.192	0.031
-708.645	-200.000	-0.021	0.233
-707.631	-34.908	0.150	-0.082
-706.616	32.874	-0.164	0.143
-705.602	142.210	-0.064	0.086
-704.587	-200.000	-0.005	0.145
-703.572	800.000	0.045	0.166
-702.558	-114.212	0.206	0.040
-701.543	225.048	0.170	-0.276
-700.529	149.167	-0.076	0.104
-699.514	-155.512	0.245	-0.016
-698.499	-114.150	-0.119	0.023
-697.485	-124.135	0.113	-0.018
-696.470	237.141	-0.138	-0.230
-695.456	113.509	0.168	0.205
-694.441	98.988	-0.165	0.192
-693.426	-108.038	0.397	0.086
-692.412	-54.058	0.332	-0.152
-691.397	153.542	0.068	-0.094
-690.383	207.784	0.062	-0.096
-689.368	800.000	0.020	-0.080
-688.354	757.897	-0.034	-0.092
-687.339	77.750	0.115	-0.123
-686.324	100.768	0.091	-0.106
-685.310	-193.939	0.411	0.003
-684.295	-36.458	0.184	0.100
-683.281	77.547	-0.319	-0.340
-682.266	-149.355	0.031	-0.002
-681.251	187.212	0.259	-0.388
-680.237	-147.551	0.341	0.029
-679.222	-73.074	0.094	0.035
-678.208	-86.694	-0.188	0.058
-677.193	-200.000	-0.050	0.257
-676.178	261.398	-0.303	0.526
-675.164	-200.000	-0.026	0.237
-674.149	23.789	-0.074	-0.061
-673.135	283.255	0.083	-0.150
-672.120	-104.824	-0.217	0.050
-671.105	-180.341	-0.114	0.002
-670.091	576.494	0.100	-0.244
-669.076	-200.000	0.007	-0.305
-668.062	8.256	0.207	-0.156
-667.047	-89.423	0.102	0.030
-666.032	25.550	0.133	-0.111
-665.018	-122.370	0.120	0.020
-664.003	196.262	-0.085	0.130
-662.989	-75.836	0.192	-0.068
-661.974	-147.947	-0.371	0.031
-660.959	331.579	0.036	0.069
-659.945	52.626	0.123	-0.117
-658.930	-200.000	-0.022	-0.426
-657.916	-127.857	0.173	-0.025
-656.901	-15.733	-0.249	0.159
-655.886	-13.995	0.224	-0.145
-654.872	-20.637	0.263	-0.162
-653.857	-138.047	0.228	0.025
-652.843	489.485	0.092	-0.210
-651.828	-141.483	0.390	-0.040
-650.814	-99.621	-0.058	0.015
-649.799	8.291	0.133	0.101
-648.784	-200.000	-0.026	0.231
-647.770	28.304	-0.081	-0.069
-646.755	96.956	0.166	0.190
-645.741	-123.972	-0.237	-0.037
-644.726	-84.534	0.294	0.093
-643.711	48.581	-0.103	0.097
-642.697	-78.784	0.108	0.037
-641.682	-200.000	0.031	0.336
-640.668	-200.000	-0.057	-0.313
-639.653	-200.000	0.003	-0.100
-638.638	22.376	-0.344	-0.281
-637.624	-200.000	-0.035	-0.156
-636.609	131.519	-0.065	0.084
-635.595	80.058	-0.252	0.271
-634.580	800.000	0.069	-0.282
-633.565	164.625	-0.128	0.181
-632.551	-34.426	0.263	-0.144
-631.536	101.608	0.102	-0.119
-630.522	-200.000	-0.012	0.300
-629.507	-138.630	0.252	-0.028
-628.492	-120.289	0.520	0.089
-627.478	800.000	-0.118	0.439
-626.463	140.347	0.149	0.197
-625.449	-76.352	0.158	-0.056
-624.434	81.553	0.128	-0.139
-623.419	-200.000	0.016	-0.358
-622.405	-200.000	0.034	-0.288
-621.390	-140.051	-0.348	-0.037
-620.376	-200.000	-0.030	0.418
-619.361	-200.000	-0.024	0.170
-618.346	123.154	-0.166	0.208
-617.332	-200.000	0.061	0.285
-616.317	85.360	-0.238	-0.262
-615.303	-41.259	-0.176	0.091
-614.288	283.204	0.057	-0.103
-613.273	44.727	-0.101	-0.093
-612.259	-200.000	0.045	-0.258
-611.244	-134.467	-0.244	0.030
-610.230	800.000	-0.092	0.272
-609.215	-49.430	-0.146	0.070
-608.201	121.724	-0.031	-0.039
-607.186	-117.297	0.326	-0.059
-606.171	497.413	-0.150	-0.345
-605.157	441.043	-0.053	-0.116
-604.142	193.955	-0.037	-0.056
-603.128	800.000	0.079	-0.248
-602.113	-74.612	-0.267	0.096
-601.098	-200.000	0.063	0.338
-600.084	-200.000	-0.010	0.074
-599.069	800.000	-0.080	0.329
-598.055	94.571	0.164	-0.186
-597.040	-200.000	-0.010	-0.199
-596.025	800.000	-0.097	0.299
-595.011	-58.394	-0.326	0.142
-593.996	8.627	0.180	-0.136
-592.982	-45.929	-0.100	0.049
-591.967	140.665	-0.163	-0.215
-590.952	-55.067	-0.182	0.082
-589.938	-200.000	0.005	0.048
-588.923	283.181	-0.175	0.314
-587.909	67.956	-0.092	0.094
-586.894	49.641	0.096	-0.091
-585.879	18.263	-0.248	-0.198
-584.865	-88.195	0.304	-0.091
-583.850	800.000	-0.022	-0.060
-582.836	-58.529	-0.258	-0.112
-581.821	129.657	0.122	-0.156
-580.806	-200.000	-0.064	-0.508
-579.792	41.934	0.126	-0.114
-578.777	356.146	-0.028	-0.055
-577.763	-16.039	-0.239	0.152
-576.748	117.711	-0.112	-0.138
-575.733	280.023	0.110	-0.196
-574.719	-200.000	-0.001	-0.009
-573.704	-200.000	0.039	-0.244
-572.690	-83.997	-0.104	-0.033
-571.675	-200.000	-0.013	-0.119
-570.661	72.579	-0.214	-0.223
-569.646	-28.485	-0.191	-0.110
-568.631	-91.106	-0.075	-0.022
-567.617	800.000	-0.042	0.126
-566.602	-200.000	-0.013	0.069
-565.588	-111.277	0.336	0.069
-564.573	-82.084	0.229	-0.075
-563.558	-160.567	0.180	-0.010
-562.544	-58.020	-0.213	0.093
-561.529	-200.000	-0.004	-0.020
-560.515	800.000	0.110	-0.349
-559.500	-75.252	-0.341	0.122
-558.485	-200.000	0.020	-0.428
-557.471	-98.251	0.321	-0.082
-556.456	46.784	-0.130	-0.120
-555.442	227.325	0.036	-0.058
-554.427	-96.271	-0.069	0.018
-553.412	-32.595	-0.226	-0.126
-552.398	-164.043	0.348	-0.016
-551.383	-58.122	-0.284	0.124
-550.369	800.000	0.059	0.204
-549.354	-49.321	0.302	-0.144
-548.339	-1.565	-0.059	-0.042
-547.325	137.709	0.130	0.171
-546.310	-126.333	0.385	0.057
-545.296	297.494	-0.142	-0.260
-544.281	278.347	-0.255	0.453
-543.266	-159.764	-0.153	-0.008
-542.252	800.000	0.101	-0.312
-541.237	-153.807	-0.161	0.011
-540.223	36.538	-0.170	0.150
-539.208	21.015	0.309	-0.250
-538.193	-19.998	0.230	-0.142
-537.179	550.947	-0.045	-0.107
-536.164	-157.249	0.227	0.014
-535.150	76.157	0.081	-0.086
-534.135	-128.617	-0.244	-0.034
-533.121	-85.057	0.063	0.020
-532.106	-21.853	-0.142	-0.086
-531.091	-46.810	0.258	-0.126
-530.077	120.271	-0.211	-0.261
-529.062	800.000	-0.054	0.201
-528.048	162.514	0.077	-0.108
-527.033	-9.756	-0.159	-0.106
-526.018	65.602	-0.245	0.248
-525.004	204.153	0.039	-0.060
-523.989	37.235	0.177	-0.156
-522.975	-196.954	-0.385	-0.003
-521.960	412.072	0.095	-0.202
-520.945	800.000	0.023	-0.068
-519.931	226.345	-0.138	0.223
-518.916	-200.000	0.016	0.123
-517.902	-27.595	0.180	-0.104
-516.887	-200.000	-0.063	-0.320
-515.872	-200.000	0.039	-0.208
-514.858	-116.774	-0.385	-0.070
-513.843	266.221	-0.047	-0.082
-512.829	-200.000	0.018	0.121
-511.814	-162.032	-0.105	0.005
-510.799	-105.806	-0.214	0.048
-509.785	-113.828	0.309	0.060
-508.770	-200.000	-0.015	0.138
-507.756	-46.237	0.202	-0.099
-506.741	-88.236	0.152	-0.045
-505.726	-178.913	0.266	0.006
-504.712	-33.705	-0.195	-0.107
-503.697	234.954	-0.114	0.187
-502.683	-144.808	0.392	0.036
-501.668	-150.264	-0.107	-0.008
-500.653	196.647	0.272	-0.413
-499.639	-104.682	0.140	-0.032
-498.624	96.278	0.206	-0.235
-497.610	-40.042	0.078	0.041
-496.595	27.775	-0.323	-0.271
-495.581	191.141	0.095	-0.142
-494.566	332.934	0.126	0.243
-493.551	-142.406	-0.142	-0.014
-492.537	21.532	0.140	0.113
-491.522	309.113	-0.027	-0.049
-490.508	-13.497	-0.206	0.133
-489.493	86.836	0.197	0.216
-488.478	162.865	-0.088	0.122
-487.464	93.893	-0.238	0.268
-486.449	-14.805	-0.204	0.130
-485.435	-169.821	0.043	0.002
-484.420	-120.460	0.076	0.013
-483.405	-200.000	-0.001	-0.146
-482.391	108.399	-0.045	0.053
-481.376	-37.872	0.062	-0.033
-480.362	-79.000	-0.125	-0.042
-479.347	25.234	0.248	0.205
-478.332	-200.000	-0.048	0.276
-477.318	715.700	-0.120	0.317
-476.303	-63.005	0.112	0.046
-475.289	209.944	-0.064	0.099
-474.274	219.341	-0.258	0.410
-473.259	-200.000	-0.001	0.345
-472.245	-24.295	0.193	0.115
-471.230	247.368	-0.131	-0.221
-470.216	14.009	0.094	0.073
-469.201	-200.000	0.056	0.245
-468.186	-110.555	-0.098	-0.020
-467.172	16.529	0.290	0.228
-466.157	800.000	-0.112	-0.334
-465.143	-54.447	0.093	-0.042
-464.128	381.767	0.013	-0.027
-463.113	-200.000	-0.036	-0.212
-462.099	800.000	0.098	0.294
-461.084	314.309	0.141	-0.264
-460.070	-76.442	0.241	0.084
-459.055	543.561	0.063	0.149
-458.040	-68.119	-0.195	-0.076
-457.026	-200.000	-0.019	-0.403
-456.011	800.000	0.058	0.163
-454.997	-51.780	-0.120	-0.056
-453.982	-171.956	0.271	0.009
-452.968	53.969	-0.193	-0.185
-451.953	-132.570	-0.269	-0.034
-450.938	6.374	-0.086	-0.063
-449.924	-131.938	-0.467	-0.061
-448.909	-170.051	0.145	-0.005
-447.895	-91.347	-0.172	-0.049
-446.880	-120.760	-0.381	0.064
-445.865	-89.158	0.332	0.097
-444.851	-101.822	0.200	0.048
-443.836	183.262	0.237	-0.348
-442.822	75.058	0.041	0.043
-441.807	-200.000	-0.022	0.124
-440.792	-139.090	-0.248	-0.027
-439.778	-73.964	0.279	-0.101
-438.763	-200.000	-0.051	0.387
-437.749	-21.953	-0.152	-0.092
-436.734	34.383	-0.169	-0.147
-435.719	-200.000	0.006	0.234
-434.705	-5.228	0.127	-0.087
-433.690	389.834	0.222	0.457
-432.676	203.224	0.008	0.012
-431.661	800.000	0.022	-0.090
-430.646	-29.936	0.195	0.110
-429.632	-98.148	0.151	0.039
-428.617	-36.914	-0.445	-0.237
-427.603	-42.402	-0.114	-0.058
-426.588	-200.000	0.051	0.304
-425.573	-200.000	0.054	0.263
-424.559	-200.000	0.057	-0.276
-423.544	-200.000	-0.053	-0.426
-422.530	347.099	0.125	-0.245
-421.515	23.537	-0.092	0.075
-420.500	540.265	-0.068	0.162
-419.486	428.932	-0.147	-0.316
-418.471	-73.417	0.237	-0.086
-417.457	-63.225	-0.138	0.057
-416.442	-69.401	0.194	-0.074
-415.428	295.270	-0.106	0.192
-414.413	800.000	-0.053	-0.209
-413.398	362.714	0.176	-0.351
-412.384	35.015	0.068	0.059
-411.369	-200.000	0.009	-0.167
-410.355	800.000	-0.043	0.121
-409.340	288.965	0.095	0.172
-408.325	-115.261	-0.069	0.013
-407.311	76.480	0.049	0.051
-406.296	639.585	0.061	0.153
-405.282	145.818	-0.131	-0.175
-404.267	-200.000	-0.036	-0.220
-403.252	-200.000	0.007	0.081
-402.238	-154.431	0.177	-0.012
-401.223	16.083	-0.037	0.029
-400.209	-82.021	-0.312	0.101
-399.194	53.858	-0.109	-0.104
-398.179	467.613	0.215	-0.479
-397.165	800.000	0.046	0.176
-396.150	58.836	0.151	0.147
-395.136	-75.471	0.227	-0.080
-394.121	-183.763	-0.058	-0.001
-393.106	-6.844	0.183	0.124
-392.092	55.700	0.207	-0.199
-391.077	-200.000	0.017	-0.156
-390.063	373.223	0.066	-0.134
-389.048	800.000	0.044	-0.123
-388.033	-90.866	0.216	-0.062
-387.019	-17.493	-0.225	0.140
-386.004	-111.398	-0.325	0.066
-384.990	246.086	0.087	0.145
-383.975	-61.220	0.225	-0.094
-382.960	-86.633	0.132	0.040
-381.946	-95.877	-0.129	-0.034
-380.931	108.826	-0.118	0.140
-379.917	-57.564	0.126	-0.055
-378.902	800.000	-0.079	-0.231
-377.888	-134.717	-0.123	-0.015
-376.873	-200.000	-0.047	0.205
-375.858	-84.032	0.196	0.062
-374.844	265.201	-0.127	0.220
-373.829	-59.306	-0.105	0.045
-372.815	327.256	-0.100	0.191
-371.800	45.074	0.129	0.117
-370.785	106.525	0.110	-0.129
-369.771	-96.782	-0.177	-0.046
-368.756	800.000	-0.029	-0.121
-367.742	682.819	-0.105	0.270
-366.727	-78.298	0.281	-0.096
-365.712	-110.962	-0.128	-0.026
-364.698	-64.772	0.161	0.065
-363.683	-68.702	-0.144	0.055
-362.669	-46.818	0.072	0.035
-361.654	-104.984	0.183	0.041
-360.639	63.875	0.311	-0.310
-359.625	-59.866	0.252	0.107
-358.610	552.164	-0.052	-0.124
-357.596	-186.569	-0.331	0.005
-356.581	800.000	0.072	-0.237
-355.566	-94.943	-0.273	-0.073
-354.552	800.000	-0.049	0.183
-353.537	11.172	0.105	0.080
-352.523	14.928	-0.083	0.064
-351.508	-200.000	-0.004	0.072
-350.493	800.000	-0.064	-0.207
-349.479	-143.888	0.214	0.020
-348.464	-50.369	-0.383	-0.179
-347.450	-200.000	-0.003	-0.276
-346.435	471.006	-0.150	-0.333
-345.420	709.139	0.059	-0.154
-344.406	51.180	0.141	-0.132
-343.391	121.440	0.065	0.080
-342.377	414.142	0.050	0.105
-341.362	284.496	-0.120	-0.215
-340.348	800.000	0.046	0.162
-339.333	800.000	-0.127	-0.427
-338.318	648.961	0.102	0.258
-337.304	-8.587	0.039	0.026
-336.289	-200.000	-0.025	-0.122
-335.275	20.137	0.320	0.255
-334.260	-200.000	-0.011	0.172
-333.245	-4.154	-0.114	0.078
-332.231	-200.000	0.016	-0.243
-331.216	-121.846	-0.066	0.011
-330.202	-200.000	0.009	0.118
-329.187	150.681	0.102	-0.138
-328.172	800.000	0.017	0.072
-327.158	-78.279	0.159	0.054
-326.143	-200.000	0.005	0.026
-325.129	-171.296	0.297	0.010
-324.114	-29.096	-0.306	0.174
-323.099	-29.338	0.023	0.013
-322.085	-99.865	0.236	0.059
-321.070	161.063	0.092	0.127
-320.056	-77.110	-0.334	-0.115
-319.041	-12.050	-0.059	0.038
-318.026	780.982	0.034	-0.091
-317.012	91.556	-0.065	-0.072
-315.997	793.335	0.055	0.149
-314.983	228.611	-0.127	0.204
-313.968	261.394	0.165	-0.282
-312.953	74.368	-0.135	0.140
-311.939	-200.000	-0.012	0.097
-310.924	274.510	-0.106	0.185
-309.910	-47.211	0.269	-0.130
-308.895	369.009	0.099	0.197
-307.880	-65.016	0.269	0.107
-306.866	-102.309	0.339	0.081
-305.851	-200.000	0.042	-0.208
-304.837	129.063	-0.006	-0.008
-303.822	-200.000	-0.028	-0.309
-302.807	-80.168	-0.168	0.056
-301.793	40.155	-0.162	0.144
-300.778	-147.081	0.236	0.020
-299.764	-200.000	-0.023	-0.150
-298.749	-91.624	0.033	0.009
-297.735	-109.471	-0.274	0.057
-296.720	-157.054	0.412	-0.025
-295.705	-200.000	0.020	0.365
-294.691	180.246	-0.115	-0.167
-293.676	162.791	-0.090	0.124
-292.662	-86.912	-0.133	0.040
-291.647	-5.498	0.207	0.140
-290.632	45.596	-0.220	0.201
-289.618	-200.000	0.033	-0.192
-288.603	216.941	-0.033	0.052
-287.589	46.825	-0.118	-0.109
-286.574	-153.689	-0.215	0.015
-285.559	355.288	0.048	-0.095
-284.545	-29.557	-0.223	0.126
-283.530	95.912	-0.240	-0.271
-282.516	184.999	0.160	0.235
-281.501	-17.843	-0.126	0.078
-280.486	-200.000	0.047	0.206
-279.472	-200.000	0.032	0.300
-278.457	206.079	0.032	0.049
-277.443	-191.705	-0.184	0.002
-276.428	-200.000	0.015	0.074
-275.413	24.553	0.249	-0.203
-274.399	-150.817	0.181	0.014
-273.384	-200.000	-0.008	-0.231
-272.370	-8.035	0.181	-0.121
-271.355	94.972	0.210	-0.236
-270.340	-80.252	0.386	0.128
-269.326	-200.000	0.043	-0.256
-268.311	-155.754	0.177	0.011
-267.297	-14.772	-0.243	0.154
-266.282	800.000	0.019	-0.054
-265.267	65.761	-0.213	-0.213
-264.253	-188.050	-0.192	0.002
-263.238	-200.000	0.050	0.319
-262.224	-35.504	0.174	-0.093
-261.209	14.203	-0.313	0.240
-260.195	-150.416	0.332	-0.025
-259.180	-3.067	-0.327	-0.225
-258.165	800.000	0.088	-0.280
-257.151	110.578	-0.068	0.081
-256.136	268.960	0.043	-0.074
-255.122	-91.232	0.175	0.050
-254.107	-135.723	0.165	-0.019
-253.092	-200.000	0.099	0.479
-252.078	-149.415	-0.203	0.016
-251.063	-200.000	-0.007	0.034
-250.049	490.656	-0.143	0.324
-249.034	800.000	-0.092	-0.307
-248.019	-95.509	0.107	0.028
-247.005	22.583	0.177	-0.143
-245.990	-9.307	0.132	-0.087
-244.976	-55.250	0.086	0.038
-243.961	-135.995	-0.133	-0.015
-242.946	-33.904	0.134	0.073
-241.932	218.036	-0.194	0.305
-240.917	-194.372	-0.072	-0.001
-239.903	-135.850	0.052	-0.006
-238.888	-102.112	-0.100	-0.024
-237.873	-88.448	-0.149	-0.044
-236.859	105.107	0.069	-0.080
-235.844	-200.000	-0.009	0.041
-234.830	89.168	0.093	-0.102
-233.815	800.000	-0.068	0.276
-232.800	18.988	-0.130	-0.103
-231.786	-200.000	-0.032	0.173
-230.771	800.000	-0.054	0.152
-229.757	-127.242	0.170	-0.024
-228.742	800.000	-0.052	-0.186
-227.727	-87.029	0.200	-0.060
-226.713	-200.000	-0.019	0.320
-225.698	-48.750	0.429	0.203
-224.684	237.508	-0.258	0.421
-223.669	-200.000	-0.035	-0.329
-222.655	-200.000	-0.008	-0.114
-221.640	524.843	0.097	-0.224
-220.625	-106.059	0.228	-0.051
-219.611	-200.000	-0.002	0.188
-218.596	-109.042	0.321	0.067
-217.582	8.103	-0.061	-0.045
-216.567	-41.583	-0.188	-0.095
-215.552	-157.397	-0.256	0.015
-214.538	54.216	-0.127	-0.120
-213.523	-200.000	0.019	-0.131
-212.509	-200.000	-0.024	0.000
-211.494	456.305	-0.043	-0.094
-210.479	-61.227	0.226	0.094
-209.465	-61.592	-0.044	0.018
-208.450	182.266	-0.292	0.424
-207.436	-80.667	-0.195	-0.064
-206.421	-165.441	0.190	0.008
-205.406	-137.145	0.369	-0.041
-204.392	46.412	0.057	-0.052
-203.377	-42.366	-0.180	-0.090
-202.363	-28.995	0.152	0.086
-201.348	-200.000	-0.053	-0.279
-200.333	-13.045	-0.116	-0.074
-199.319	-8.922	-0.105	-0.069
-198.304	60.956	-0.112	-0.109
-197.290	-73.172	-0.343	0.124
-196.275	-133.335	0.373	-0.046
-195.260	800.000	-0.083	-0.349
-194.246	112.093	0.375	0.446
-193.231	-67.454	0.327	-0.126
-192.217	171.000	0.061	-0.085
-191.202	207.728	0.203	0.313
-190.187	800.000	-0.008	-0.023
-189.173	800.000	0.052	0.157
-188.158	743.165	0.117	-0.310
-187.144	-200.000	0.001	0.118
-186.129	10.178	0.104	0.078
-185.114	-200.000	-0.035	-0.252
-184.100	-200.000	0.020	0.317
-183.085	-115.106	-0.151	0.028
-182.071	4.554	0.261	0.189
-181.056	800.000	-0.109	-0.328
-180.042	156.757	-0.178	-0.242
-179.027	352.464	0.187	-0.365
-178.012	315.593	-0.067	0.124
-176.998	42.782	-0.278	0.249
-175.983	-62.197	-0.112	0.046
-174.969	393.923	0.042	-0.086
-173.954	800.000	0.018	0.075
-172.939	184.835	-0.143	0.208
-171.925	-200.000	0.005	0.164
-170.910	-200.000	0.018	-0.263
-169.896	-99.574	0.083	0.021
-168.881	800.000	-0.032	0.099
-167.866	99.412	0.090	0.102
-166.852	40.365	-0.183	-0.162
-165.837	99.632	0.106	0.121
-164.823	-200.000	-0.006	0.071
-163.808	-151.588	-0.198	-0.014
-162.793	-200.000	-0.037	0.233
-161.779	-200.000	0.002	0.092
-160.764	800.000	0.080	-0.303
-159.750	71.769	-0.335	0.343
-158.735	-55.020	-0.270	-0.120
-157.720	-200.000	0.041	0.292
-156.706	800.000	0.149	0.562
-155.691	-166.751	-0.277	-0.011
-154.677	-109.251	-0.108	0.023
-153.662	110.047	0.232	0.274
-152.647	120.619	-0.163	0.199
-151.633	-124.592	-0.157	0.024
-150.618	716.931	0.014	-0.036
-149.604	213.682	0.234	-0.364
-148.589	-103.979	-0.101	-0.023
-147.574	132.479	-0.109	0.138
-146.560	211.845	0.060	-0.094
-145.545	-44.952	0.385	0.188
-144.531	-200.000	-0.046	-0.368
-143.516	-129.928	-0.309	-0.042
-142.502	-200.000	-0.007	-0.158
-141.487	399.417	-0.035	-0.072
-140.472	800.000	0.034	0.092
-139.458	355.159	0.022	0.043
-138.443	800.000	-0.082	0.352
-137.429	-34.884	-0.360	0.193
-136.414	417.999	-0.081	0.169
-135.399	-200.000	0.001	-0.259
-134.385	-25.551	-0.233	0.135
-133.370	559.391	-0.063	-0.149
-132.356	295.940	-0.056	0.101
-131.341	-76.946	0.179	-0.062
-130.326	-98.218	-0.196	0.049
-129.312	243.606	0.165	-0.271
-128.297	800.000	-0.037	0.143
-127.283	-59.452	0.191	-0.080
-126.268	-57.255	-0.181	-0.078
-125.253	-82.193	-0.214	-0.068
-124.239	54.190	0.304	0.287
-123.224	-90.529	-0.283	0.080
-122.210	-93.069	0.288	0.079
-121.195	-131.853	0.120	-0.015
-120.180	-200.000	-0.005	-0.033
-119.166	83.321	-0.180	-0.192
-118.151	3.770	0.196	0.140
-117.137	-174.170	-0.430	-0.012
-116.122	800.000	-0.104	0.439
-115.107	251.889	0.107	0.179
-114.093	241.619	0.269	0.441
-113.078	-31.363	-0.124	0.068
-112.064	554.624	0.125	0.295
-111.049	1.128	0.234	0.165
-110.034	-200.000	0.017	-0.377
-109.020	-54.339	0.122	-0.054
-108.005	427.721	-0.089	0.189
-106.991	-200.000	0.005	0.157
-105.976	595.965	0.146	0.353
-104.962	270.856	0.227	0.391
-103.947	-200.000	0.017	0.417
-102.932	800.000	0.095	0.283
-101.918	-114.255	0.200	0.038
-100.903	189.615	-0.100	0.147
-99.889	87.057	0.278	-0.301
-98.874	103.250	-0.066	0.076
-97.859	800.000	-0.075	-0.215
-96.845	315.195	0.018	-0.033
-95.830	800.000	0.056	0.206
-94.816	-200.000	0.019	-0.197
-93.801	25.221	0.184	-0.150
-92.786	29.775	-0.160	-0.134
-91.772	-88.143	-0.253	0.074
-90.757	40.872	0.248	-0.219
-89.743	20.966	-0.233	0.185
-88.728	-33.662	0.184	-0.099
-87.713	126.233	-0.084	-0.104
-86.699	-200.000	-0.020	-0.158
-85.684	-200.000	0.011	-0.087
-84.670	167.902	-0.041	0.057
-83.655	-21.767	0.161	0.096
-82.640	27.650	-0.077	0.064
-81.626	-200.000	-0.015	0.251
-80.611	-46.418	-0.226	0.109
-79.597	-193.401	-0.114	-0.001
-78.582	-200.000	-0.066	-0.303
-77.567	-200.000	0.024	0.290
-76.553	-42.294	-0.039	0.019
-75.538	84.153	0.272	0.292
-74.524	21.109	0.014	0.011
-73.509	117.211	-0.134	0.162
-72.494	-127.342	-0.058	-0.008
-71.480	392.334	-0.097	-0.198
-70.465	-11.082	-0.074	-0.048
-69.451	-34.650	-0.361	0.193
-68.436	-200.000	-0.025	0.162
-67.422	-200.000	0.012	-0.205
-66.407	-44.643	-0.093	-0.046
-65.392	169.970	-0.077	-0.108
-64.378	112.152	0.156	-0.185
-63.363	-68.997	-0.214	0.081
-62.349	-84.123	-0.204	-0.063
-61.334	6.032	-1.235	-0.897
-60.319	2.076	0.702	0.497
-59.305	-200.000	0.036	-1.328
-58.290	281.710	0.679	1.191
-57.276	800.000	0.491	1.453
-56.261	-200.000	110.850	642.864
-55.246	490.913	1484.476	3327.199
-54.232	151.380	2643.148	3523.947
-53.217	107.253	2135.304	2485.792
-52.203	39.692	1594.950	1400.847
-51.188	31.605	1344.474	1132.134
-50.173	28.792	1306.129	1083.243
-49.159	55.924	1361.007	1292.498
-48.144	55.656	1376.804	1305.843
-47.130	32.000	1332.370	1124.128
-46.115	28.551	1315.047	1089.035
-45.100	28.329	1309.874	1083.400
-44.086	28.281	1307.804	1081.359
-43.071	28.151	1305.617	1078.739
-42.057	28.150	1303.664	1077.076
-41.042	28.292	1301.522	1076.098
-40.027	28.396	1300.095	1075.487
-39.013	28.307	1298.326	1073.463
-37.998	28.352	1296.041	1071.790
-36.984	28.367	1294.699	1070.727
-35.969	28.334	1293.001	1069.087
-34.954	28.277	1291.415	1067.404
-33.940	28.307	1290.358	1066.663
-32.925	28.471	1288.579	1066.100
-31.911	28.417	1287.698	1065.018
-30.896	28.555	1285.318	1063.807
-29.881	28.456	1284.855	1062.809
-28.867	28.631	1282.795	1062.075
-27.852	28.458	1281.820	1060.225
-26.838	28.579	1280.219	1059.556
-25.823	28.371	1279.442	1057.670
-24.809	28.504	1277.615	1056.885
-23.794	28.408	1276.329	1055.225
-22.779	28.456	1274.974	1054.338
-21.765	28.542	1273.477	1053.556
-20.750	28.373	1272.794	1051.979
-19.736	28.387	1271.194	1050.694
-18.721	28.431	1269.663	1049.641
-17.706	28.310	1269.005	1048.360
-16.692	28.238	1268.274	1047.304
-15.677	28.411	1266.868	1047.089
-14.663	28.283	1266.077	1045.661
-13.648	28.356	1264.567	1044.791
-12.633	28.406	1263.665	1044.287
-11.619	28.298	1262.996	1043.080
-10.604	28.294	1262.011	1042.202
-9.590	28.312	1260.811	1041.273
-8.575	28.266	1259.789	1040.126
-7.560	28.193	1259.368	1039.322
-6.546	28.308	1258.304	1039.052
-5.531	28.324	1257.338	1038.307
-4.517	28.364	1256.571	1037.857
-3.502	28.401	1255.711	1037.319
-2.487	28.315	1254.859	1036.087
-1.473	28.255	1250.651	1032.231
-0.458	26.642	1235.506	1010.700
0.556	21.370	1218.884	972.744
1.571	17.689	1224.609	956.611
2.586	16.871	1239.433	963.457
3.600	16.805	1228.932	954.840
4.615	14.827	1162.538	892.619
5.629	10.953	1095.044	821.195
6.644	9.276	1077.635	799.734
7.659	9.079	1075.104	796.807
8.673	8.927	1073.868	795.067
9.688	8.957	1072.556	794.174
10.702	9.170	1070.810	793.860
11.717	11.549	1073.349	807.448
12.731	15.447	1078.092	830.259
13.746	17.504	1080.146	841.953
14.761	17.402	1079.705	841.030
15.775	16.361	1078.150	834.604
16.790	15.283	1075.774	827.374
17.804	14.649	1074.416	823.127
18.819	14.170	1073.170	819.743
19.834	13.909	1072.143	817.602
20.848	13.682	1071.396	815.839
21.863	13.515	1070.041	813.917
22.877	13.398	1069.608	812.943
23.892	13.299	1068.818	811.782
24.907	13.095	1068.327	810.336
25.921	13.346	1067.037	810.518
26.936	13.491	1065.823	810.231
27.950	13.471	1064.443	809.016
28.965	13.423	1063.470	807.969
29.980	13.608	1061.232	807.098
30.994	13.668	1059.813	806.241
32.009	13.657	1059.145	805.605
33.023	13.619	1057.971	804.459
34.038	13.514	1056.731	802.937
35.053	13.417	1056.341	802.097
36.067	13.408	1055.360	801.236
37.082	13.497	1054.288	800.784
38.096	13.607	1053.534	800.672
39.111	13.581	1053.046	800.106
40.126	13.504	1051.308	798.340
41.140	13.297	1050.205	796.435
42.155	13.392	1049.131	796.006
43.169	13.173	1048.001	794.029
44.184	13.220	1046.750	793.235
45.199	13.259	1045.804	792.637
46.213	13.214	1045.225	791.909
47.228	13.461	1043.406	791.646
48.242	13.370	1042.423	790.393
49.257	13.460	1041.808	790.286
50.271	13.450	1041.025	789.575
51.286	13.501	1040.309	789.204
52.301	13.478	1039.222	788.203
53.315	13.426	1038.158	787.078
54.330	13.347	1037.275	785.964
55.344	13.295	1036.747	785.245
56.359	13.404	1035.451	784.710
57.374	13.351	1034.624	783.766
58.388	13.416	1033.201	782.925
59.403	13.198	1032.985	781.663
60.417	13.241	1032.116	781.136
61.432	13.264	1031.020	780.347
62.447	13.142	1030.676	779.444
63.461	13.238	1029.337	778.812
64.476	13.061	1028.661	777.401
65.490	13.252	1027.774	777.560
66.505	13.193	1027.303	776.857
67.520	13.212	1026.815	776.508
68.534	13.285	1025.831	776.038
69.549	13.314	1024.522	775.115
70.563	13.233	1024.476	774.631
71.578	13.132	1023.709	773.510
72.593	13.197	1022.326	772.699
73.607	13.164	1022.164	772.358
74.622	13.171	1021.351	771.705
75.636	13.209	1020.734	771.349
76.651	13.124	1020.133	770.429
77.666	13.193	1019.257	770.023
78.680	13.223	1018.513	769.532
79.695	13.221	1018.476	769.424
80.709	13.319	1017.579	769.135
81.724	13.322	1017.143	768.751
82.739	13.348	1016.014	767.953
83.753	13.505	1015.335	768.100
84.768	13.592	1014.432	767.749
85.782	13.602	1013.307	766.876
86.797	13.418	1012.464	765.320
87.812	13.409	1012.065	764.911
88.826	13.541	1010.710	764.426
89.841	13.477	1009.699	763.300
90.855	13.514	1008.970	762.853
91.870	13.521	1008.283	762.297
92.884	13.611	1007.172	761.802
93.899	13.494	1006.370	760.592
94.914	13.638	1005.410	760.462
95.928	13.594	1004.883	759.792
96.943	13.528	1004.138	758.861
97.957	13.571	1003.166	758.257
98.972	13.561	1002.378	757.548
99.987	13.686	1001.403	757.311
101.001	13.581	1000.803	756.316
102.016	13.595	999.845	755.586
103.030	13.529	999.276	754.787
104.045	13.549	997.956	753.817
105.060	13.562	996.940	753.039
106.074	13.352	996.382	751.600
107.089	13.381	994.990	750.613
108.103	13.369	994.310	749.981
109.118	13.346	993.479	749.181
110.133	13.325	992.903	748.586
111.147	13.426	991.471	747.896
112.162	13.345	990.873	747.015
113.176	13.418	990.022	746.638
114.191	13.425	989.634	746.311
115.206	13.375	988.904	745.470
116.220	13.386	987.597	744.467
117.235	13.294	986.566	743.207
118.249	13.355	985.967	742.966
119.264	13.372	984.936	742.201
120.279	13.387	984.256	741.687
121.293	13.291	983.377	740.534
122.308	13.195	982.588	739.442
123.322	13.337	981.078	738.877
124.337	13.314	980.564	738.319
125.352	13.192	979.720	737.075
126.366	13.301	978.258	736.396
127.381	13.445	977.190	736.165
128.395	13.250	976.851	734.979
129.410	13.500	975.617	735.095
130.424	13.492	974.740	734.334
131.439	13.422	974.141	733.508
132.454	13.455	973.386	733.019
133.468	13.425	972.441	732.112
134.483	13.441	971.608	731.489
135.497	13.449	971.055	731.042
136.512	13.566	969.885	730.614
137.527	13.389	969.483	729.467
138.541	13.513	968.559	729.251
139.556	13.387	967.684	727.975
140.570	13.491	967.011	727.861
141.585	13.670	966.019	727.835
142.600	13.552	965.288	726.705
143.614	13.646	964.401	726.386
144.629	13.777	963.738	726.394
145.643	13.826	962.388	725.529
146.658	13.621	961.777	724.105
147.673	13.621	960.765	723.282
148.687	13.533	960.351	722.522
149.702	13.487	959.378	721.522
150.716	13.437	958.390	720.499
151.731	13.570	957.314	720.203
152.746	13.530	957.237	719.909
153.760	13.710	955.789	719.537
154.775	13.661	955.454	719.008
155.789	13.745	954.939	718.925
156.804	13.738	954.361	718.393
157.819	13.752	953.686	717.883
158.833	13.720	953.342	717.423
159.848	13.890	952.320	717.324
160.862	13.748	951.123	715.744
161.877	13.719	950.149	714.825
162.892	13.689	948.927	713.713
163.906	13.531	948.395	712.570
164.921	13.594	947.484	712.091
165.935	13.747	946.515	711.958
166.950	13.715	945.541	711.026
167.964	13.867	944.570	710.884
168.979	13.717	943.904	709.677
169.994	13.796	942.983	709.261
171.008	13.841	942.449	708.989
172.023	13.868	941.397	708.247
173.037	13.870	940.914	707.834
174.052	13.905	940.014	707.242
175.067	13.837	939.558	706.545
176.081	13.769	939.112	705.859
177.096	13.685	938.446	704.936
178.110	13.845	938.028	705.243
179.125	13.696	937.353	704.041
180.140	13.800	937.246	704.336
181.154	13.886	936.143	703.813
182.169	13.870	935.770	703.401
183.183	13.901	935.288	703.107
184.198	13.987	934.200	702.592
185.213	14.049	933.426	702.210
186.227	14.043	932.715	701.588
187.242	13.961	932.731	701.192
188.256	14.103	932.037	701.207
189.271	14.060	930.803	700.035
190.286	14.094	929.596	699.208
191.300	13.767	929.786	697.911
192.315	13.789	928.720	697.145
193.329	13.832	927.885	696.636
194.344	13.975	927.304	696.736
195.359	13.866	927.002	695.991
196.373	13.930	927.089	696.263
197.388	14.169	925.926	696.328
198.402	14.138	925.562	695.865
199.417	14.201	924.913	695.580
200.432	14.258	924.592	695.513
201.446	14.338	923.977	695.322
202.461	14.414	923.161	694.966
203.475	14.341	922.494	694.098
204.490	14.272	921.935	693.327
205.504	14.208	921.212	692.456
206.519	14.110	920.744	691.634
207.534	14.113	920.136	691.128
208.548	14.163	919.124	690.514
209.563	14.181	918.510	690.067
210.577	14.193	918.147	689.784
211.592	14.346	917.044	689.529
212.607	14.356	916.278	688.933
213.621	14.402	915.684	688.616
214.636	14.371	915.212	688.071
215.650	14.406	914.211	687.403
216.665	14.484	913.989	687.495
217.680	14.486	913.214	686.862
218.694	14.609	912.037	686.420
219.709	14.496	911.411	685.423
220.723	14.478	911.038	685.011
221.738	14.509	910.089	684.361
222.753	14.427	909.698	683.672
223.767	14.662	908.767	683.873
224.782	14.464	908.865	683.076
225.796	14.594	908.278	683.107
226.811	14.649	907.310	682.542
227.826	14.544	906.787	681.659
228.840	14.633	905.867	681.272
229.855	14.526	904.867	680.021
230.869	14.688	904.293	680.193
231.884	14.501	903.555	678.813
232.899	14.535	902.743	678.284
233.913	14.657	902.046	678.194
234.928	14.635	901.334	677.511
235.942	14.548	901.303	677.074
236.957	14.604	900.457	676.607
237.972	14.438	899.586	675.217
238.986	14.637	899.071	675.578
240.001	14.510	898.678	674.707
241.015	14.740	897.829	674.940
242.030	14.747	897.359	674.558
243.045	14.628	897.124	673.840
244.059	14.741	895.884	673.304
245.074	14.723	895.316	672.745
246.088	14.775	895.069	672.710
247.103	14.758	894.143	671.885
248.117	14.894	893.794	672.113
249.132	14.979	893.432	672.121
250.147	15.097	892.516	671.847
251.161	15.060	891.834	671.123
252.176	15.036	891.330	670.590
253.190	15.058	890.821	670.234
254.205	15.150	889.877	669.833
255.220	15.288	888.955	669.630
256.234	15.125	888.760	668.776
257.249	15.177	887.793	668.194
258.263	15.126	887.272	667.539
259.278	15.219	886.346	667.155
260.293	15.307	886.014	667.196
261.307	15.190	885.778	666.494
262.322	15.397	884.676	666.429
263.336	15.348	884.117	665.754
264.351	15.395	882.978	665.023
265.366	15.404	882.698	664.790
266.380	15.411	881.921	664.174
267.395	15.249	881.773	663.360
268.409	15.384	880.368	662.779
269.424	15.193	879.928	661.636
270.439	15.336	878.833	661.319
271.453	15.337	878.379	660.924
272.468	15.334	877.843	660.450
273.482	15.281	877.355	659.812
274.497	15.252	877.202	659.528
275.512	15.330	876.093	658.941
276.526	15.432	875.718	658.999
277.541	15.365	875.157	658.258
278.555	15.496	874.635	658.321
279.570	15.575	873.964	658.068
280.585	15.545	873.297	657.389
281.599	15.469	872.357	656.327
282.614	15.439	871.803	655.733
283.628	15.403	871.282	655.144
284.643	15.470	870.746	654.942
285.657	15.535	870.393	654.874
286.672	15.571	869.853	654.549
287.687	15.511	868.869	653.517
288.701	15.529	868.292	653.098
289.716	15.579	868.039	653.043
290.730	15.699	867.040	652.698
291.745	15.632	866.685	652.114
292.760	15.557	865.927	651.194
293.774	15.686	865.450	651.278
294.789	15.769	864.589	650.892
295.803	15.713	864.110	650.258
296.818	15.572	863.525	649.218
297.833	15.624	862.789	648.808
298.847	15.547	862.157	647.979
299.862	15.578	861.939	647.874
300.876	15.841	861.295	648.345
301.891	15.785	860.421	647.418
302.906	15.765	860.399	647.267
303.920	15.857	859.571	646.940
304.935	15.937	858.869	646.660
305.949	15.946	858.223	646.151
306.964	15.875	857.759	645.472
307.979	15.875	857.148	644.957
308.993	15.974	856.508	644.797
310.008	15.957	856.084	644.353
311.022	15.927	855.250	643.556
312.037	15.827	854.822	642.796
313.052	15.891	854.089	642.429
314.066	15.808	853.745	641.798
315.081	15.858	853.391	641.666
316.095	15.814	852.707	640.928
317.110	15.910	852.029	640.726
318.125	15.781	851.789	639.999
319.139	15.843	851.174	639.717
320.154	15.870	850.566	639.304
321.168	16.027	849.637	639.146
322.183	16.071	849.163	638.898
323.197	16.085	848.708	638.555
324.212	15.928	848.205	637.525
325.227	16.136	847.320	637.587
326.241	15.888	847.340	636.609
327.256	15.968	846.589	636.290
328.270	16.050	846.016	636.113
329.285	15.920	845.652	635.293
330.300	15.984	844.794	634.835
331.314	16.063	844.527	634.875
332.329	16.137	844.081	634.761
333.343	16.223	843.598	634.666
334.358	16.313	842.702	634.275
335.373	16.155	842.767	633.673
336.387	16.300	842.339	633.839
337.402	16.244	842.445	633.654
338.416	16.314	841.807	633.380
339.431	16.468	841.294	633.514
340.446	16.435	840.710	632.895
341.460	16.308	840.668	632.333
342.475	16.314	840.219	631.960
343.489	16.436	839.824	632.065
344.504	16.522	838.984	631.697
345.519	16.461	838.720	631.215
346.533	16.530	838.017	630.889
347.548	16.449	837.501	630.141
348.562	16.274	837.397	629.356
349.577	16.426	836.287	629.031
350.592	16.351	835.802	628.330
351.606	16.303	835.382	627.783
352.621	16.347	834.322	627.092
353.635	16.342	834.058	626.822
354.650	16.375	833.181	626.226
355.665	16.340	832.803	625.761
356.679	16.532	831.943	625.766
357.694	16.495	831.593	625.310
358.708	16.630	830.281	624.769
359.723	16.697	829.571	624.425
360.738	16.502	829.446	623.560
361.752	16.663	828.532	623.409
362.767	16.670	828.282	623.190
363.781	16.659	828.202	623.034
364.796	16.839	827.397	623.035
365.810	16.740	827.405	622.622
366.825	16.839	827.132	622.728
367.840	16.819	826.412	622.057
368.854	16.812	825.909	621.597
369.869	16.834	825.512	621.325
370.883	16.820	825.337	621.085
371.898	16.894	824.803	620.899
372.913	17.034	823.993	620.748
373.927	16.994	823.364	620.071
374.942	16.827	823.312	619.369
375.956	17.088	822.622	619.746
376.971	17.006	822.424	619.242
377.986	17.041	822.003	618.999
379.000	17.017	821.552	618.516
380.015	17.146	820.637	618.244
381.029	17.108	820.385	617.860
382.044	17.087	819.919	617.377
383.059	17.305	818.923	617.366
384.073	17.048	818.458	616.030
385.088	17.095	817.949	615.760
386.102	17.068	817.411	615.204
387.117	16.906	817.001	614.254
388.132	16.841	816.434	613.537
389.146	17.123	815.664	613.924
390.161	17.113	815.131	613.433
391.175	17.265	814.653	613.568
392.190	17.057	814.504	612.651
393.205	17.091	813.767	612.165
394.219	17.033	813.678	611.835
395.234	17.038	813.222	611.455
396.248	17.169	812.458	611.299
397.263	17.046	812.103	610.535
398.278	17.108	811.494	610.244
399.292	17.199	811.107	610.227
400.307	17.082	810.827	609.544
401.321	17.160	810.300	609.371
402.336	17.201	809.741	609.047
403.350	17.331	809.282	609.110
404.365	17.193	809.221	608.516
405.380	17.359	808.461	608.485
406.394	17.285	807.756	607.638
407.409	17.393	807.569	607.827
408.423	17.502	807.468	608.088
409.438	17.418	807.360	607.651
410.453	17.342	806.758	606.875
411.467	17.492	806.116	606.873
412.482	17.375	805.885	606.230
413.496	17.520	805.405	606.331
414.511	17.633	804.917	606.312
415.526	17.561	804.335	605.562
416.540	17.633	803.884	605.427
417.555	17.702	803.160	605.070
418.569	17.454	803.336	604.272
419.584	17.502	802.862	604.029
420.599	17.666	802.242	604.093
421.613	110.974	1295.265	1476.128
422.628	95.607	1367.092	1476.198
