DTS Sentinel unit serial number:	SN413079Multiplexer serial number:	ORYXHardware model number:	OX4-SRSoftware version number:	ORYX F/W v4.00 Oryx Data Collector v3.7.2.0data status	okinstallation	princeton_trtdifferential loss correction	single-endedforward channel	channel 1reverse channel	N/Adate	2019/09/12time	18:49:34forward acquisition time	15.00reverse acquisition time	0.00gamma	496.2192k internal	0.2320k external	0.2320temperature offset calibration	1.0100default loss term (dB/km)	0.3790temperature slope calibration	1.0000multiplexer offset coefficient	1.0000multiplexer slope coefficient	1.0000fibre end	0.00T internal ref (°C)	32.94T ext. ref 1 (°C)	2.99T ext. ref 2 (°C)	27.39length (m)	temperature (°C)	Stokes	anti-Stokes-747.200	405.259	0.336	0.717
-746.185	-200.000	-0.024	0.479
-745.171	-98.538	-0.186	0.048
-744.156	42.588	-0.788	0.726
-743.142	-200.000	0.074	-0.715
-742.127	-58.797	-1.009	-0.442
-741.112	31.847	0.674	-0.587
-740.098	-81.357	0.441	0.147
-739.083	173.601	-0.159	-0.233
-738.069	-28.265	-0.594	0.347
-737.054	-184.697	0.651	0.011
-736.039	7.368	0.391	-0.295
-735.025	-145.445	0.996	-0.091
-734.010	800.000	-0.238	-0.725
-732.996	-115.037	-0.388	0.074
-731.981	347.494	0.170	-0.338
-730.966	214.033	0.056	-0.089
-729.952	284.818	0.491	-0.894
-728.937	-66.788	0.769	-0.308
-727.923	611.188	0.168	0.424
-726.908	-22.686	0.618	0.378
-725.894	800.000	-0.036	-0.156
-724.879	-75.173	-0.616	-0.223
-723.864	-200.000	-0.026	-0.744
-722.850	52.061	-0.444	-0.428
-721.835	-200.000	-0.075	-0.538
-720.821	144.631	-0.293	-0.396
-719.806	66.568	0.634	-0.651
-718.791	90.234	-0.494	0.559
-717.777	78.737	-0.330	-0.357
-716.762	93.340	-0.281	0.322
-715.748	-31.974	0.385	0.218
-714.733	-200.000	-0.066	-1.014
-713.718	-18.273	0.395	0.250
-712.704	-121.893	-0.705	0.117
-711.689	49.493	-0.128	0.121
-710.675	800.000	0.139	-0.460
-709.660	800.000	0.202	0.721
-708.645	-200.000	0.001	0.034
-707.631	336.680	0.227	-0.445
-706.616	45.166	0.762	0.709
-705.602	45.097	0.304	0.283
-704.587	376.886	-0.381	0.785
-703.572	-130.574	-0.708	-0.097
-702.558	311.958	-0.366	0.693
-701.543	251.663	-0.124	-0.213
-700.529	-91.481	0.537	-0.155
-699.514	-200.000	0.050	0.523
-698.499	79.496	0.507	0.549
-697.485	145.039	0.203	0.275
-696.470	-200.000	-0.038	-0.382
-695.456	3.365	-0.448	-0.329
-694.441	-93.633	0.249	-0.069
-693.426	636.411	0.159	-0.408
-692.412	-200.000	0.065	0.364
-691.397	0.707	-0.116	0.084
-690.383	-55.525	-0.133	-0.060
-689.368	-183.633	0.119	0.002
-688.354	63.018	0.434	0.438
-687.339	-164.788	-0.804	0.036
-686.324	800.000	-0.119	0.376
-685.310	119.088	0.381	0.476
-684.295	52.002	0.549	-0.528
-683.281	-110.259	-0.814	-0.171
-682.266	36.701	-0.430	-0.384
-681.251	35.838	0.172	-0.152
-680.237	-86.807	0.567	-0.175
-679.222	93.674	0.339	0.388
-678.208	-200.000	0.070	-0.720
-677.193	47.319	-0.596	0.560
-676.178	381.842	-0.163	0.337
-675.164	33.158	-0.155	0.135
-674.149	306.742	-0.100	-0.188
-673.135	800.000	-0.300	-0.932
-672.120	291.042	0.174	0.319
-671.105	177.878	-0.524	0.770
-670.091	-77.847	0.774	-0.270
-669.076	294.991	-0.502	-0.926
-668.062	-96.340	-0.510	-0.136
-667.047	-127.287	0.130	-0.019
-666.032	800.000	-0.332	0.929
-665.018	800.000	0.104	-0.397
-664.003	-124.408	0.191	-0.030
-662.989	800.000	0.158	-0.603
-661.974	-166.957	0.271	-0.011
-660.959	-103.369	-0.628	0.149
-659.945	-126.537	-0.758	0.113
-658.930	-126.132	1.041	0.157
-657.916	-31.503	0.225	-0.128
-656.901	-22.507	-0.135	0.082
-655.886	442.718	0.193	-0.426
-654.872	40.019	0.720	0.652
-653.857	210.350	-0.267	-0.422
-652.843	-52.565	-0.625	-0.291
-651.828	-188.926	0.544	0.007
-650.814	800.000	-0.347	1.229
-649.799	112.905	0.178	-0.218
-648.784	-103.212	-0.332	-0.079
-647.770	4.543	-0.154	-0.114
-646.755	-64.821	-0.694	0.283
-645.741	76.679	-0.192	-0.205
-644.726	800.000	0.210	-0.599
-643.711	14.380	-0.217	-0.171
-642.697	9.598	0.416	0.318
-641.682	-72.971	-0.195	-0.072
-640.668	372.521	-0.568	-1.163
-639.653	-74.505	0.502	0.182
-638.638	265.710	0.300	-0.527
-637.624	606.795	-0.234	0.587
-636.609	-200.000	0.229	1.099
-635.595	-103.147	-0.150	0.036
-634.580	-32.664	-0.893	-0.500
-633.565	21.590	-0.442	-0.362
-632.551	-149.624	-0.197	0.016
-631.536	-200.000	-0.051	-0.355
-630.522	43.419	0.626	-0.576
-629.507	28.103	0.166	0.141
-628.492	-57.196	0.475	-0.210
-627.478	800.000	0.109	-0.395
-626.463	-6.315	-0.460	0.316
-625.449	262.877	0.284	0.497
-624.434	-22.531	-0.844	0.514
-623.419	6.340	0.459	-0.343
-622.405	246.298	-0.413	-0.701
-621.390	298.309	-0.742	-1.374
-620.376	-7.958	-0.423	0.287
-619.361	-130.079	0.814	0.112
-618.346	-58.966	-0.647	0.281
-617.332	191.042	-0.032	0.049
-616.317	96.815	0.467	-0.538
-615.303	306.785	-0.087	-0.163
-614.288	25.305	-0.252	-0.210
-613.273	450.304	-0.388	0.863
-612.259	649.176	0.451	1.162
-611.244	319.825	0.203	-0.388
-610.230	631.236	-0.096	-0.244
-609.215	-200.000	0.006	0.027
-608.201	544.418	0.143	-0.343
-607.186	-71.152	-0.311	0.118
-606.171	-53.434	-0.564	0.260
-605.157	-108.648	-0.548	0.118
-604.142	-123.233	-0.658	-0.106
-603.128	-116.000	-0.362	0.068
-602.113	133.515	0.521	-0.678
-601.098	800.000	0.199	-0.559
-600.084	310.248	0.403	-0.758
-599.069	105.271	-0.208	0.246
-598.055	516.632	-0.146	-0.343
-597.040	-200.000	-0.045	0.320
-596.025	-27.090	0.386	0.226
-595.011	-1.266	-0.672	0.477
-593.996	308.820	0.243	0.457
-592.982	-200.000	0.164	0.817
-591.967	-19.082	0.240	0.150
-590.952	12.180	-0.430	-0.333
-589.938	-200.000	0.136	-0.823
-588.923	-62.256	-0.435	0.182
-587.909	-200.000	0.038	-0.394
-586.894	-200.000	-0.000	-0.330
-585.879	421.022	-0.233	-0.502
-584.865	-64.138	0.596	0.245
-583.850	25.770	-0.305	-0.256
-582.836	81.360	-0.428	0.465
-581.821	56.268	-0.255	-0.249
-580.806	-65.590	-0.245	-0.099
-579.792	-15.038	-0.774	-0.498
-578.777	-119.789	0.126	0.022
-577.763	-144.174	0.757	-0.071
-576.748	21.186	-0.352	0.287
-575.733	-34.009	0.367	0.203
-574.719	800.000	0.104	-0.296
-573.704	-35.452	0.514	-0.281
-572.690	-6.775	0.820	0.560
-571.675	214.592	-0.132	0.210
-570.661	-200.000	-0.110	0.612
-569.646	40.946	-0.679	0.616
-568.631	-149.109	-0.324	-0.026
-567.617	-65.886	-0.428	-0.172
-566.602	487.834	-0.145	0.333
-565.588	800.000	0.180	-0.736
-564.573	29.583	-0.878	0.750
-563.558	94.248	-0.103	-0.117
-562.544	-65.104	0.727	0.294
-561.529	-130.060	-0.382	0.052
-560.515	800.000	0.012	-0.053
-559.500	-161.968	-0.299	0.015
-558.485	-79.149	-0.420	-0.143
-557.471	14.358	-0.292	0.228
-556.456	43.119	0.085	-0.078
-555.442	800.000	0.185	-0.744
-554.427	-79.386	0.262	0.089
-553.412	800.000	-0.310	-1.009
-552.398	-200.000	-0.033	-1.049
-551.383	173.499	-0.189	0.274
-550.369	26.054	-0.486	-0.407
-549.354	22.058	-0.127	-0.104
-548.339	104.566	0.417	0.493
-547.325	-127.030	-0.867	-0.128
-546.310	65.739	-0.742	-0.754
-545.296	694.799	0.152	0.400
-544.281	-200.000	-0.023	-0.282
-543.266	-200.000	-0.063	0.432
-542.252	354.462	-0.186	-0.372
-541.237	407.470	-0.211	-0.447
-540.223	-68.515	0.581	-0.226
-539.208	143.921	-0.209	0.280
-538.193	263.495	-0.584	1.019
-537.179	101.391	0.062	-0.072
-536.164	-60.517	-0.315	-0.134
-535.150	-9.874	-0.090	-0.060
-534.135	-96.873	0.681	0.179
-533.121	-143.514	-0.931	-0.089
-532.106	90.795	0.677	-0.761
-531.091	800.000	-0.121	0.383
-530.077	64.304	0.354	-0.358
-529.062	-34.567	0.107	-0.059
-528.048	-200.000	-0.018	0.290
-527.033	-200.000	0.198	1.261
-526.018	-97.399	-0.681	-0.178
-525.004	800.000	0.061	0.212
-523.989	100.593	0.747	-0.870
-522.975	-45.608	0.531	0.264
-521.960	-61.522	-0.467	0.197
-520.945	800.000	0.217	0.695
-519.931	81.600	-0.253	-0.274
-518.916	285.189	0.329	0.595
-517.902	-200.000	0.017	0.202
-516.887	188.890	-0.180	-0.270
-515.872	-106.205	0.217	-0.049
-514.858	163.315	-0.482	-0.679
-513.843	800.000	-0.112	-0.326
-512.829	-200.000	-0.036	0.435
-511.814	205.405	0.326	0.507
-510.799	694.331	0.184	0.483
-509.785	-129.726	0.305	0.042
-508.770	-200.000	0.020	-0.119
-507.756	314.490	-0.129	0.243
-506.741	-124.985	0.582	-0.090
-505.726	29.042	0.139	-0.119
-504.712	20.378	-0.294	-0.238
-503.697	-71.024	-0.348	-0.131
-502.683	162.525	0.115	-0.162
-501.668	-15.280	0.099	0.064
-500.653	105.017	0.143	0.169
-499.639	-59.309	-0.708	0.305
-498.624	7.314	-0.704	0.527
-497.610	559.623	-0.129	0.311
-496.595	63.324	-0.523	0.525
-495.581	0.032	-0.938	0.669
-494.566	-47.931	0.111	-0.054
-493.551	9.136	-0.070	-0.053
-492.537	-53.512	-0.179	-0.082
-491.522	39.486	0.365	-0.328
-490.508	800.000	-0.211	0.637
-489.493	239.913	0.459	0.766
-488.478	-200.000	0.039	0.275
-487.464	-67.078	0.796	-0.314
-486.449	-29.949	0.366	-0.208
-485.435	43.654	0.284	0.260
-484.420	-200.000	0.016	0.367
-483.405	-200.000	0.143	0.742
-482.391	18.178	0.369	0.295
-481.376	-200.000	0.058	-0.428
-480.362	305.853	0.325	-0.605
-479.347	-160.505	0.632	-0.034
-478.332	-63.487	0.528	0.217
-477.318	-89.011	0.658	0.195
-476.303	800.000	-0.125	0.414
-475.289	800.000	0.196	-0.582
-474.274	-92.024	-0.422	0.119
-473.259	88.291	-0.695	0.772
-472.245	-170.045	-0.823	0.029
-471.230	-118.841	-0.219	0.038
-470.216	800.000	-0.123	0.356
-469.201	800.000	0.161	-0.512
-468.186	414.736	0.350	0.746
-467.172	-200.000	-0.091	0.549
-466.157	40.537	0.410	-0.369
-465.143	-200.000	-0.198	-1.094
-464.128	-78.204	1.040	-0.358
-463.113	-65.103	0.908	-0.366
-462.099	-148.679	-0.439	0.036
-461.084	-118.169	-0.538	0.096
-460.070	584.220	0.235	-0.577
-459.055	-158.128	0.388	-0.023
-458.040	-200.000	-0.070	-0.348
-457.026	-81.599	-0.102	0.034
-456.011	137.595	-0.049	-0.065
-454.997	342.095	-0.152	0.297
-453.982	-118.755	0.526	0.093
-452.968	-88.943	-0.445	0.132
-451.953	380.072	-0.272	0.558
-450.938	36.350	-0.359	0.317
-449.924	-200.000	-0.127	-0.893
-448.909	240.591	0.187	-0.311
-447.895	-200.000	0.022	0.212
-446.880	-200.000	0.068	0.688
-445.865	-200.000	-0.077	0.400
-444.851	35.612	-0.429	0.376
-443.836	-115.772	0.899	0.168
-442.822	-200.000	0.042	0.364
-441.807	-200.000	-0.007	0.320
-440.792	-153.310	0.344	-0.024
-439.778	771.429	0.111	-0.301
-438.763	225.975	-0.266	0.432
-437.749	-93.893	0.531	-0.146
-436.734	29.851	0.544	0.463
-435.719	-131.586	0.631	0.083
-434.705	-200.000	0.021	0.412
-433.690	-149.363	0.431	0.034
-432.676	165.028	0.644	-0.909
-431.661	-22.532	-0.384	0.232
-430.646	-200.000	-0.060	-0.302
-429.632	-69.530	-0.902	0.345
-428.617	-181.795	0.685	-0.013
-427.603	126.229	0.500	0.632
-426.588	-200.000	-0.029	0.362
-425.573	101.524	-0.601	-0.700
-424.559	-114.399	0.348	0.067
-423.544	186.102	-0.028	-0.041
-422.530	65.411	-0.219	-0.221
-421.515	6.488	0.315	-0.234
-420.500	-159.684	-0.937	0.052
-419.486	-115.596	-0.755	0.142
-418.471	64.565	0.545	-0.549
-417.457	-174.261	0.563	0.016
-416.442	-12.781	0.328	-0.214
-415.428	800.000	-0.181	-0.649
-414.413	183.665	-0.095	0.140
-413.398	-188.466	-0.833	-0.010
-412.384	-200.000	0.020	-0.538
-411.369	19.274	0.392	0.314
-410.355	198.049	0.556	0.849
-409.340	-47.709	0.434	-0.210
-408.325	-200.000	0.180	0.950
-407.311	56.768	0.135	-0.131
-406.296	-105.964	0.731	0.164
-405.282	268.856	0.356	0.623
-404.267	-200.000	0.158	0.746
-403.252	-200.000	-0.052	-0.254
-402.238	619.625	-0.189	0.475
-401.223	-3.804	-0.650	0.450
-400.209	395.636	-0.029	0.061
-399.194	800.000	0.268	0.891
-398.179	509.522	-0.292	0.677
-397.165	-59.752	-0.324	-0.138
-396.150	175.287	-0.222	0.320
-395.136	-68.465	0.094	0.036
-394.121	610.928	-0.129	0.322
-393.106	25.766	-0.135	-0.112
-392.092	-62.497	-0.088	-0.036
-391.077	134.573	-0.444	-0.574
-390.063	-133.040	-0.570	-0.072
-389.048	300.248	0.311	-0.572
-388.033	105.569	0.157	-0.185
-387.019	-51.530	-0.587	0.273
-386.004	-106.396	0.182	0.041
-384.990	40.020	-0.626	-0.561
-383.975	-122.863	-0.584	-0.094
-382.960	-200.000	0.055	-0.531
-381.946	-160.167	-0.498	-0.027
-380.931	800.000	-0.163	0.598
-379.917	43.133	0.534	-0.485
-378.902	448.822	0.271	0.595
-377.888	800.000	0.117	-0.379
-376.873	-76.767	-0.408	0.142
-375.858	-100.705	0.615	0.151
-374.844	138.121	-0.224	-0.293
-373.829	298.873	0.556	-1.019
-372.815	59.948	-0.285	0.280
-371.800	-200.000	-0.071	0.389
-370.785	-179.507	0.044	-0.001
-369.771	478.612	-0.220	-0.497
-368.756	800.000	0.222	-0.615
-367.742	375.922	0.374	-0.760
-366.727	-102.074	0.585	0.140
-365.712	22.021	-0.811	0.659
-364.698	123.292	0.281	0.351
-363.683	107.897	-0.244	0.290
-362.669	-200.000	0.009	-0.468
-361.654	0.209	-0.791	-0.562
-360.639	-87.075	0.724	0.219
-359.625	-200.000	0.022	-0.759
-358.610	-24.228	-0.027	0.016
-357.596	-24.746	0.798	-0.473
-356.581	-87.703	0.321	-0.096
-355.566	183.380	-0.264	-0.389
-354.552	800.000	-0.162	-0.500
-353.537	-74.179	-1.520	0.548
-352.523	-48.967	-0.304	-0.145
-351.508	800.000	0.192	-0.555
-350.493	-164.073	-0.675	-0.031
-349.479	-172.198	0.610	-0.020
-348.464	186.021	0.545	-0.807
-347.450	84.578	0.280	0.305
-346.435	297.509	0.120	-0.220
-345.420	-43.088	0.330	0.166
-344.406	264.421	-0.373	-0.646
-343.391	291.549	0.147	0.267
-342.377	251.093	0.562	0.952
-341.362	-163.712	-0.855	0.040
-340.348	-66.051	-0.639	-0.254
-339.333	-18.353	-0.266	-0.166
-338.318	-141.273	1.098	-0.111
-337.304	122.319	0.112	-0.139
-336.289	44.807	0.680	-0.622
-335.275	-67.238	0.292	0.115
-334.260	-43.179	0.661	-0.333
-333.245	-41.693	0.401	-0.205
-332.231	-200.000	-0.007	0.533
-331.216	49.985	0.243	-0.229
-330.202	13.365	0.561	-0.432
-329.187	-200.000	-0.073	-0.343
-328.172	-200.000	0.067	0.767
-327.158	-200.000	0.006	0.630
-326.143	151.773	-0.313	-0.424
-325.129	-200.000	-0.139	0.672
-324.114	484.427	0.259	0.586
-323.099	-9.600	-0.410	0.272
-322.085	-149.868	-0.865	-0.067
-321.070	-200.000	0.096	-0.515
-320.056	102.689	-0.543	0.632
-319.041	328.357	-0.220	0.421
-318.026	-71.509	0.455	-0.169
-317.012	-126.373	0.353	0.052
-315.997	-101.389	-0.455	0.110
-314.983	-200.000	0.110	-0.913
-313.968	-178.721	-0.738	-0.017
-312.953	-200.000	-0.064	0.319
-311.939	-89.510	0.490	-0.143
-310.924	-40.613	0.536	-0.276
-309.910	-142.265	-0.408	-0.040
-308.895	-200.000	-0.092	0.543
-307.880	121.222	0.233	-0.289
-306.866	39.919	-0.679	-0.607
-305.851	265.451	-0.132	0.229
-304.837	-200.000	0.023	0.541
-303.822	32.877	-0.183	-0.157
-302.807	800.000	-0.230	0.736
-301.793	267.205	-0.622	1.081
-300.778	8.414	0.138	-0.103
-299.764	-55.889	-0.641	0.284
-298.749	-137.693	0.525	0.059
-297.735	2.634	-0.391	0.282
-296.720	181.719	-0.250	0.365
-295.705	417.578	-0.294	0.625
-294.691	-13.101	-0.718	-0.464
-293.676	-79.471	1.122	0.377
-292.662	233.367	-0.264	0.431
-291.647	-200.000	-0.052	0.485
-290.632	449.312	0.344	0.753
-289.618	-79.282	0.444	0.149
-288.603	42.306	-0.534	-0.482
-287.589	11.139	0.609	-0.463
-286.574	653.623	0.104	-0.266
-285.559	63.294	-0.268	-0.267
-284.545	185.448	-0.626	-0.923
-283.530	-156.031	0.989	-0.062
-282.516	800.000	0.168	-0.582
-281.501	-89.848	0.447	0.130
-280.486	54.255	-0.088	-0.084
-279.472	-109.546	-0.377	0.079
-278.457	800.000	0.163	0.479
-277.443	-200.000	-0.046	-0.308
-276.428	94.926	-0.313	-0.353
-275.413	800.000	0.225	0.827
-274.399	-200.000	0.025	-0.433
-273.384	-200.000	0.023	-0.460
-272.370	222.165	0.677	-1.081
-271.355	800.000	0.171	-0.645
-270.340	800.000	0.340	-1.088
-269.326	73.093	-0.322	-0.334
-268.311	800.000	0.167	0.661
-267.297	163.808	-0.474	0.662
-266.282	-79.208	0.699	0.235
-265.267	85.457	-0.675	-0.736
-264.253	-63.096	0.460	0.189
-263.238	-200.000	-0.064	0.433
-262.224	307.665	-0.443	0.819
-261.209	-37.597	-0.632	-0.335
-260.195	436.839	-0.122	-0.263
-259.180	80.379	0.259	0.277
-258.165	171.090	0.419	-0.596
-257.151	-146.626	-0.724	0.062
-256.136	294.172	0.326	-0.592
-255.122	-55.036	0.239	-0.107
-254.107	-122.823	-0.722	-0.116
-253.092	-97.551	0.052	0.013
-252.078	121.200	-0.360	-0.444
-251.063	-72.132	1.154	0.425
-250.049	40.774	0.332	0.297
-249.034	493.284	0.177	0.403
-248.019	512.680	0.050	-0.116
-247.005	-18.141	-0.639	0.397
-245.990	24.939	-0.341	-0.281
-244.976	240.727	0.308	-0.510
-243.961	70.950	0.321	0.330
-242.946	5.617	0.372	0.273
-241.932	800.000	0.180	0.547
-240.917	58.108	0.483	-0.469
-239.903	61.194	-0.562	-0.554
-238.888	580.439	0.079	-0.191
-237.873	-116.123	-0.614	0.113
-236.859	80.279	0.352	-0.375
-235.844	68.352	-0.090	0.091
-234.830	-200.000	0.005	0.119
-233.815	-200.000	-0.104	-0.518
-232.800	800.000	0.426	1.175
-231.786	365.002	-0.348	-0.695
-230.771	800.000	-0.169	0.532
-229.757	-136.018	0.724	0.084
-228.742	38.945	-0.685	0.607
-227.727	5.279	0.702	-0.513
-226.713	311.794	0.201	-0.374
-225.698	-200.000	-0.045	-0.887
-224.684	155.027	-0.340	-0.463
-223.669	-200.000	0.129	1.305
-222.655	-200.000	-0.090	0.615
-221.640	-39.893	-0.179	-0.093
-220.625	77.819	0.315	0.332
-219.611	-200.000	-0.028	0.180
-218.596	-200.000	0.058	-0.912
-217.582	-4.264	-0.434	0.298
-216.567	-97.855	-0.545	-0.140
-215.552	8.915	0.448	-0.335
-214.538	800.000	0.212	-0.657
-213.523	153.757	-0.385	0.522
-212.509	-102.186	-0.473	-0.113
-211.494	-70.229	0.374	0.141
-210.479	-35.613	0.330	-0.178
-209.465	312.307	-0.178	-0.330
-208.450	-46.494	0.368	0.179
-207.436	-200.000	0.043	-0.740
-206.421	99.245	0.821	-0.940
-205.406	89.275	0.220	-0.243
-204.392	-200.000	-0.041	0.434
-203.377	-200.000	-0.051	-0.563
-202.363	29.219	-0.580	-0.487
-201.348	-200.000	-0.021	-0.522
-200.333	-96.111	0.882	-0.232
-199.319	800.000	0.291	0.967
-198.304	107.282	-0.307	0.361
-197.290	264.607	0.338	0.583
-196.275	-79.869	0.568	0.189
-195.260	-93.215	-0.469	0.129
-194.246	-121.915	-0.362	-0.059
-193.231	-6.593	-0.514	0.346
-192.217	-94.061	0.505	0.137
-191.202	36.756	-0.072	-0.063
-190.187	585.362	0.289	0.704
-189.173	-69.121	0.180	0.068
-188.158	-97.247	0.147	0.038
-187.144	115.163	-0.048	0.058
-186.129	82.486	-0.637	-0.684
-185.114	-128.913	-0.801	-0.111
-184.100	-0.521	-0.860	0.604
-183.085	-75.939	0.169	0.059
-182.071	-47.831	-0.538	-0.258
-181.056	-140.061	0.216	-0.023
-180.042	85.487	0.078	-0.085
-179.027	-46.446	0.623	0.303
-178.012	-200.000	0.037	0.274
-176.998	-142.139	0.371	-0.036
-175.983	-6.032	0.238	-0.161
-174.969	88.790	0.342	-0.376
-173.954	-67.323	0.679	0.264
-172.939	332.894	0.269	0.515
-171.925	-85.504	0.544	-0.167
-170.910	-91.336	-0.386	0.109
-169.896	232.192	-0.221	0.359
-168.881	598.748	-0.181	-0.443
-167.866	-200.000	-0.026	-0.304
-166.852	-200.000	0.064	0.839
-165.837	800.000	0.128	-0.480
-164.823	-190.403	0.353	-0.004
-163.808	-34.760	0.262	0.141
-162.793	-88.009	-0.026	0.008
-161.779	-112.395	0.753	-0.149
-160.764	-118.387	0.300	-0.053
-159.750	800.000	0.114	-0.312
-158.735	-30.878	-0.473	0.264
-157.720	800.000	0.133	0.489
-156.706	-99.432	-0.528	0.131
-155.691	177.883	-0.143	0.206
-154.677	-111.967	0.574	0.114
-153.662	-95.733	0.571	-0.151
-152.647	-7.288	0.642	-0.430
-151.633	-200.000	0.266	-0.001
-150.618	-56.826	0.509	0.222
-149.604	65.980	0.257	-0.258
-148.589	-189.425	0.817	0.009
-147.574	54.524	-0.499	-0.475
-146.560	238.443	0.277	-0.455
-145.545	-113.265	-0.408	0.079
-144.531	-200.000	0.077	-0.677
-143.516	800.000	0.143	0.424
-142.502	800.000	0.237	0.886
-141.487	-114.564	0.190	0.036
-140.472	-194.548	-0.556	-0.004
-139.458	321.200	0.210	-0.394
-138.443	-130.905	0.279	0.037
-137.429	313.997	0.162	0.302
-136.414	157.498	-0.431	-0.590
-135.399	421.863	-0.164	0.349
-134.385	-200.000	0.021	-0.424
-133.370	117.930	-0.433	-0.527
-132.356	12.470	0.515	-0.392
-131.341	-80.764	0.543	-0.178
-130.326	-114.675	-0.940	-0.178
-129.312	-200.000	0.072	-0.318
-128.297	800.000	0.141	0.528
-127.283	158.937	0.405	-0.555
-126.268	-35.133	0.242	-0.130
-125.253	-161.076	-0.555	-0.029
-124.239	289.594	0.109	0.196
-123.224	-7.322	0.227	-0.151
-122.210	-200.000	-0.025	-0.139
-121.195	-4.891	0.169	0.115
-120.180	263.572	-0.068	-0.116
-119.166	-200.000	-0.071	-0.455
-118.151	800.000	0.225	0.625
-117.137	-118.220	-0.248	0.044
-116.122	-189.839	-0.730	-0.008
-115.107	333.501	0.371	0.707
-114.093	28.828	-0.975	0.815
-113.078	561.626	0.054	-0.129
-112.064	-47.615	-0.554	0.265
-111.049	-198.417	-0.722	0.004
-110.034	203.317	-0.528	-0.805
-109.020	-111.164	1.344	-0.272
-108.005	-200.000	0.048	0.621
-106.991	-42.543	-0.486	0.244
-105.976	340.591	-0.176	-0.339
-104.962	-54.170	0.477	-0.214
-103.947	-10.995	0.361	0.235
-102.932	-200.000	0.032	-0.420
-101.918	-79.911	-0.257	0.085
-100.903	-152.511	0.405	0.029
-99.889	75.283	-0.530	0.552
-98.874	87.660	-0.369	0.403
-97.859	268.742	-0.390	-0.674
-96.845	60.701	0.572	-0.559
-95.830	-76.029	0.674	-0.235
-94.816	292.914	0.438	0.787
-93.801	783.985	-0.224	0.604
-92.786	469.076	-0.336	-0.743
-91.772	70.493	0.419	-0.427
-90.757	140.262	-0.553	-0.719
-89.743	522.496	0.441	-1.020
-88.728	-56.413	-0.461	-0.202
-87.713	800.000	-0.179	-0.489
-86.699	-200.000	0.049	-0.859
-85.684	522.474	-0.267	0.617
-84.670	800.000	-0.232	-0.764
-83.655	604.251	-0.373	0.915
-82.640	352.900	0.172	0.337
-81.626	-200.000	-0.003	-0.366
-80.611	-54.048	-0.674	0.302
-79.597	249.581	-0.081	0.135
-78.582	-120.266	0.529	-0.089
-77.567	-51.919	-0.483	-0.221
-76.553	800.000	0.118	0.438
-75.538	-10.638	0.453	0.295
-74.524	293.516	0.354	-0.637
-73.509	11.254	0.185	-0.140
-72.494	5.737	-0.363	0.264
-71.480	-200.000	-0.044	0.445
-70.465	-148.524	-0.640	0.052
-69.451	800.000	-0.164	0.452
-68.436	-200.000	-0.069	0.485
-67.422	-41.415	-0.308	0.156
-66.407	202.781	0.447	-0.680
-65.392	34.415	0.405	0.348
-64.378	402.206	-0.339	0.702
-63.363	40.816	0.127	0.113
-62.349	-58.830	-0.275	-0.117
-61.334	384.197	-1.070	-2.170
-60.319	-59.646	0.838	0.354
-59.305	800.000	-0.245	-1.041
-58.290	103.186	0.356	0.411
-57.276	61.117	1.178	1.152
-56.261	-200.000	95.197	579.561
-55.246	666.797	1358.488	3456.290
-54.232	202.845	2525.092	3840.087
-53.217	119.349	2125.895	2589.860
-52.203	44.768	1595.095	1444.436
-51.188	36.592	1335.075	1160.131
-50.173	33.056	1294.945	1104.591
-49.159	56.410	1344.858	1286.716
-48.144	57.359	1360.941	1307.696
-47.130	36.645	1319.634	1146.846
-46.115	33.248	1300.889	1110.609
-45.100	33.032	1295.891	1105.040
-44.086	33.022	1292.904	1102.387
-43.071	32.817	1291.664	1100.092
-42.057	32.774	1289.705	1098.129
-41.042	32.611	1288.356	1095.990
-40.027	32.711	1287.684	1095.955
-39.013	32.848	1284.259	1093.793
-37.998	32.698	1282.626	1091.488
-36.984	32.852	1280.253	1090.317
-35.969	32.982	1278.624	1089.639
-34.954	33.072	1276.374	1088.196
-33.940	32.826	1276.825	1087.118
-32.925	33.116	1273.939	1086.285
-31.911	33.185	1272.157	1085.117
-30.896	32.968	1272.294	1083.946
-29.881	32.926	1270.521	1082.152
-28.867	32.946	1268.772	1080.732
-27.852	33.007	1267.902	1080.299
-26.838	32.911	1266.264	1078.309
-25.823	33.115	1263.778	1077.316
-24.809	33.019	1263.636	1076.603
-23.794	33.035	1262.410	1075.606
-22.779	33.001	1260.385	1073.646
-21.765	33.072	1258.551	1072.446
-20.750	33.238	1257.256	1072.240
-19.736	32.895	1256.938	1069.985
-18.721	33.024	1255.404	1069.364
-17.706	32.756	1254.761	1067.255
-16.692	32.891	1253.643	1067.028
-15.677	32.871	1252.682	1066.056
-14.663	32.878	1251.679	1065.195
-13.648	32.990	1250.519	1064.801
-12.633	32.715	1249.354	1062.217
-11.619	32.681	1249.467	1062.079
-10.604	32.871	1247.967	1061.833
-9.590	32.965	1246.367	1060.954
-8.575	32.920	1246.005	1060.353
-7.560	32.907	1244.411	1058.879
-6.546	33.172	1243.589	1059.626
-5.531	32.750	1243.648	1057.265
-4.517	32.781	1243.530	1057.297
-3.502	32.905	1242.319	1056.923
-2.487	32.927	1241.107	1055.973
-1.473	32.793	1236.966	1051.661
-0.458	31.299	1222.320	1030.927
0.556	28.704	1203.831	992.799
1.571	24.685	1207.967	974.268
2.586	23.439	1223.437	979.775
3.600	22.954	1212.597	968.350
4.615	17.067	1141.172	880.774
5.629	7.642	1065.685	776.566
6.644	3.356	1045.472	741.186
7.659	3.056	1042.213	737.373
8.673	2.822	1041.269	735.519
9.688	2.728	1039.819	733.977
10.702	3.143	1036.985	733.894
11.717	9.248	1046.737	770.056
12.731	18.850	1060.861	826.795
13.746	23.913	1065.143	854.455
14.761	24.542	1067.108	858.983
15.775	24.404	1066.615	857.845
16.790	24.252	1065.196	855.898
17.804	24.015	1064.719	854.302
18.819	24.002	1065.214	854.561
19.834	24.271	1064.435	855.152
20.848	24.231	1063.827	854.394
21.863	24.484	1063.299	855.105
22.877	24.302	1062.309	853.365
23.892	24.355	1061.397	852.807
24.907	23.910	1061.216	850.461
25.921	24.265	1058.763	850.111
26.936	24.199	1058.401	849.429
27.950	23.951	1057.178	847.193
28.965	24.111	1055.445	846.489
29.980	24.161	1053.374	844.991
30.994	24.023	1052.999	843.961
32.009	23.997	1052.191	843.117
33.023	24.079	1050.857	842.363
34.038	24.025	1051.133	842.255
35.053	23.995	1050.067	841.183
36.067	23.671	1048.964	838.692
37.082	24.070	1047.064	838.983
38.096	24.187	1047.337	839.677
39.111	24.379	1046.959	840.206
40.126	24.338	1045.001	838.366
41.140	24.002	1043.347	835.391
42.155	23.908	1042.802	834.439
43.169	23.843	1041.316	832.869
44.184	23.692	1041.752	832.437
45.199	23.725	1039.169	830.453
46.213	24.040	1038.595	831.392
47.228	24.073	1039.235	831.984
48.242	24.217	1038.961	832.368
49.257	23.958	1038.209	830.481
50.271	24.300	1036.446	830.592
51.286	24.433	1035.110	830.065
52.301	24.210	1035.264	829.078
53.315	24.159	1033.316	827.205
54.330	24.076	1032.817	826.348
55.344	24.102	1031.791	825.574
56.359	24.469	1030.729	826.352
57.374	24.366	1029.921	825.157
58.388	23.845	1029.079	821.998
59.403	23.968	1028.363	821.923
60.417	24.100	1027.346	821.647
61.432	23.906	1027.299	820.642
62.447	24.132	1026.492	820.966
63.461	24.001	1025.322	819.353
64.476	23.813	1024.745	817.953
65.490	23.881	1023.485	817.188
66.505	23.630	1023.483	815.963
67.520	23.933	1022.371	816.392
68.534	23.856	1021.289	815.106
69.549	23.310	1020.695	812.055
70.563	23.703	1019.398	812.751
71.578	23.284	1019.080	810.510
72.593	22.795	1019.224	808.314
73.607	23.329	1017.292	809.149
74.622	23.809	1016.325	810.499
75.636	23.208	1016.746	808.020
76.651	23.187	1016.544	807.690
77.666	23.602	1015.028	808.307
78.680	23.678	1014.148	807.879
79.695	23.646	1012.732	806.533
80.709	23.486	1013.353	806.232
81.724	23.942	1012.339	807.423
82.739	24.016	1011.282	806.845
83.753	24.304	1010.966	807.824
84.768	24.377	1010.482	807.697
85.782	24.525	1009.990	807.904
86.797	24.682	1008.641	807.460
87.812	24.087	1008.002	804.191
88.826	24.517	1007.701	805.820
89.841	24.598	1006.499	805.152
90.855	24.588	1005.244	804.033
91.870	24.670	1004.629	803.838
92.884	24.214	1004.748	801.811
93.899	24.678	1002.401	801.951
94.914	24.665	1001.891	801.415
95.928	24.513	1000.755	799.752
96.943	23.882	1001.434	797.396
97.957	23.971	999.216	795.958
98.972	24.304	998.198	796.565
99.987	24.315	997.655	796.112
101.001	24.631	996.106	796.209
102.016	24.089	995.814	793.494
103.030	24.540	995.456	795.145
104.045	24.162	995.535	793.453
105.060	24.307	993.533	792.434
106.074	24.435	992.233	791.895
107.089	24.328	991.228	790.549
108.103	23.976	990.534	788.366
109.118	24.076	988.855	787.403
110.133	23.953	988.323	786.364
111.147	23.870	986.018	784.093
112.162	23.731	986.507	783.803
113.176	23.722	985.721	783.067
114.191	23.980	983.930	782.713
115.206	23.454	984.823	781.035
116.220	23.498	983.624	780.211
117.235	23.520	982.312	779.195
118.249	23.363	981.453	777.758
119.264	23.279	980.701	776.724
120.279	23.569	980.203	777.530
121.293	23.593	979.294	776.845
122.308	23.281	979.712	775.745
123.322	23.494	977.206	774.620
124.337	23.404	976.108	773.290
125.352	23.118	975.897	771.806
126.366	23.547	974.904	772.822
127.381	23.650	974.783	773.105
128.395	23.703	974.883	773.346
129.410	24.212	972.729	773.779
130.424	24.024	972.718	772.888
131.439	24.056	971.845	772.265
132.454	24.207	969.907	771.309
133.468	24.257	968.730	770.522
134.483	24.014	968.225	769.004
135.497	24.251	966.988	768.974
136.512	23.936	967.154	767.681
137.527	24.419	966.556	769.219
138.541	24.090	965.881	767.197
139.556	24.033	965.165	766.313
140.570	24.062	966.046	767.070
141.585	24.534	963.712	767.179
142.600	24.472	962.855	766.162
143.614	24.671	960.344	764.950
144.629	24.913	960.408	765.967
145.643	24.887	959.119	764.761
146.658	24.710	957.865	762.935
147.673	24.518	957.014	761.373
148.687	24.119	956.943	759.548
149.702	24.193	954.890	758.165
150.716	23.694	955.071	756.117
151.731	23.995	954.875	757.177
152.746	24.108	953.886	756.808
153.760	24.098	953.648	756.506
154.775	24.280	953.394	757.011
155.789	24.714	951.756	757.484
156.804	24.154	950.779	754.269
157.819	24.459	950.603	755.355
158.833	24.496	950.215	755.134
159.848	24.601	948.702	754.311
160.862	24.374	947.479	752.313
161.877	24.471	945.907	751.407
162.892	24.426	944.501	750.033
163.906	24.635	943.992	750.439
164.921	24.318	943.624	748.752
165.935	24.167	942.789	747.390
166.950	24.105	942.309	746.682
167.964	24.588	940.571	747.258
168.979	24.338	938.927	744.843
169.994	24.267	938.701	744.305
171.008	24.459	938.438	744.828
172.023	24.529	938.697	745.261
173.037	24.843	937.516	745.568
174.052	24.459	936.182	742.842
175.067	24.420	935.178	741.817
176.081	24.081	934.750	740.001
177.096	23.849	934.499	738.776
178.110	24.140	932.486	738.326
179.125	23.950	932.265	737.297
180.140	23.926	932.176	737.062
181.154	24.003	932.402	737.494
182.169	24.509	932.281	739.430
183.183	24.609	931.023	738.781
184.198	24.426	930.063	737.198
185.213	23.980	930.337	735.503
186.227	24.123	929.729	735.552
187.242	24.466	929.184	736.471
188.256	24.769	927.212	736.087
189.271	24.696	926.898	735.475
190.286	24.637	925.634	734.163
191.300	24.245	924.526	731.612
192.315	23.269	924.139	727.233
193.329	23.337	923.615	727.037
194.344	23.983	923.401	729.455
195.359	24.226	922.971	730.043
196.373	24.620	922.231	731.005
197.388	24.666	923.706	732.297
198.402	24.908	921.916	731.804
199.417	24.940	921.500	731.538
200.432	24.794	920.761	730.294
201.446	24.694	920.463	729.585
202.461	25.110	919.038	730.083
203.475	24.219	918.559	726.012
204.490	23.995	917.529	724.223
205.504	24.383	917.112	725.406
206.519	24.450	916.852	725.408
207.534	24.329	916.521	724.590
208.548	24.737	915.878	725.675
209.563	24.457	915.455	724.139
210.577	24.129	914.698	722.148
211.592	25.033	913.743	724.988
212.607	25.040	912.305	723.813
213.621	25.144	911.865	723.819
214.636	24.826	911.536	722.210
215.650	24.971	910.940	722.257
216.665	24.692	911.181	721.260
217.680	24.948	909.580	720.958
218.694	24.946	908.635	720.141
219.709	24.553	908.708	718.553
220.723	24.689	907.500	718.081
221.738	24.266	907.378	716.220
222.753	24.644	906.021	716.601
223.767	24.717	906.427	717.155
224.782	24.610	906.162	716.452
225.796	24.837	905.468	716.750
226.811	24.368	904.199	713.802
227.826	23.896	903.573	711.359
228.840	24.285	902.563	712.055
229.855	24.032	902.506	710.936
230.869	24.044	901.209	709.898
231.884	24.252	901.712	711.065
232.899	24.674	900.101	711.409
233.913	24.508	899.279	710.036
234.928	24.122	898.677	707.963
235.942	24.152	897.572	707.149
236.957	24.032	897.569	706.608
237.972	24.086	896.748	706.115
238.986	24.199	896.932	706.644
240.001	23.795	895.786	704.081
241.015	24.239	895.076	705.216
242.030	24.295	895.746	705.905
243.045	24.500	894.348	705.547
244.059	24.687	893.493	705.549
245.074	24.634	893.303	705.128
246.088	24.700	892.983	705.075
247.103	24.545	893.221	704.590
248.117	24.972	892.883	705.942
249.132	25.418	892.252	707.137
250.147	25.786	891.170	707.662
251.161	25.852	890.920	707.661
252.176	25.362	890.366	705.237
253.190	25.560	889.903	705.582
254.205	25.506	889.734	705.176
255.220	25.570	888.736	704.571
256.234	25.444	887.882	703.340
257.249	25.682	886.293	702.949
258.263	25.238	885.376	700.427
259.278	25.426	884.747	700.598
260.293	25.352	884.017	699.673
261.307	25.844	883.968	701.489
262.322	25.093	883.903	698.447
263.336	24.971	883.641	697.703
264.351	24.629	881.221	694.405
265.366	24.905	881.664	695.765
266.380	24.909	881.978	695.966
267.395	25.251	881.097	696.535
268.409	25.102	880.333	695.293
269.424	25.356	879.212	695.330
270.439	24.856	879.341	693.433
271.453	25.267	878.245	694.098
272.468	25.323	877.703	693.826
273.482	25.276	877.475	693.402
274.497	25.312	876.008	692.319
275.512	25.001	875.928	690.996
276.526	25.164	875.881	691.526
277.541	25.146	875.811	691.338
278.555	25.907	873.767	692.591
279.570	25.349	874.285	690.793
280.585	25.547	872.255	689.891
281.599	25.438	871.700	688.972
282.614	24.907	871.715	686.887
283.628	24.751	870.159	684.999
284.643	25.059	870.320	686.248
285.657	24.889	870.282	685.504
286.672	25.207	869.056	685.695
287.687	25.441	868.344	685.965
288.701	25.614	867.663	686.029
289.716	25.102	867.949	684.239
290.730	25.353	866.777	684.212
291.745	25.125	866.283	682.891
292.760	25.167	865.340	682.250
293.774	25.852	865.083	684.588
294.789	25.434	865.897	683.582
295.803	25.265	864.288	681.611
296.818	25.474	863.257	681.530
297.833	25.061	862.645	679.422
298.847	25.310	861.803	679.639
299.862	25.697	861.696	680.960
300.876	25.622	861.777	680.681
301.891	25.812	861.129	680.825
302.906	25.461	860.666	679.072
303.920	25.832	859.716	679.663
304.935	26.034	860.036	680.621
305.949	25.787	859.342	679.080
306.964	25.508	857.847	676.785
307.979	25.470	857.411	676.238
308.993	25.400	856.788	675.426
310.008	25.813	856.534	676.717
311.022	25.575	856.104	675.423
312.037	25.420	855.242	674.104
313.052	25.031	854.198	671.763
314.066	24.674	854.144	670.320
315.081	24.823	853.345	670.192
316.095	25.091	851.933	670.026
317.110	24.895	852.731	669.862
318.125	24.983	850.922	668.709
319.139	24.090	850.100	664.673
320.154	24.131	850.647	665.195
321.168	24.959	848.944	666.891
322.183	25.441	848.276	668.100
323.197	25.216	848.767	667.589
324.212	25.016	848.461	666.544
325.227	25.264	847.043	666.295
326.241	24.846	847.198	664.805
327.256	24.919	846.341	664.342
328.270	25.115	845.378	664.256
329.285	24.593	844.863	661.858
330.300	24.606	844.080	661.234
331.314	24.837	844.119	662.061
332.329	25.153	843.910	663.005
333.343	25.470	843.712	663.965
334.358	25.511	842.708	663.266
335.373	25.139	843.409	662.387
336.387	25.699	842.277	663.503
337.402	25.876	842.244	664.070
338.416	26.255	841.726	664.998
339.431	25.923	842.669	664.461
340.446	26.129	841.425	664.181
341.460	26.196	840.714	663.806
342.475	25.897	841.418	663.204
343.489	25.968	840.626	662.781
344.504	26.323	840.260	663.736
345.519	26.422	840.134	663.941
346.533	26.240	838.235	661.715
347.548	25.858	837.703	659.840
348.562	26.107	837.394	660.450
349.577	25.748	837.554	659.204
350.592	25.673	836.949	658.395
351.606	25.530	835.790	656.903
352.621	25.525	835.142	656.317
353.635	25.621	834.168	655.841
354.650	25.344	833.482	654.235
355.665	25.379	831.549	652.787
356.679	25.587	832.101	653.921
357.694	26.068	830.384	654.258
358.708	25.615	830.582	652.710
359.723	25.528	830.162	652.010
360.738	25.667	828.788	651.374
361.752	25.708	829.084	651.700
362.767	26.046	828.297	652.245
363.781	26.066	827.911	651.955
364.796	26.095	827.761	651.886
365.810	26.228	827.997	652.492
366.825	26.043	826.493	650.583
367.840	26.077	826.342	650.530
368.854	25.831	826.320	649.565
369.869	25.804	825.524	648.788
370.883	25.917	825.498	649.116
371.898	25.726	825.251	648.176
372.913	26.137	824.521	649.024
373.927	25.543	824.204	646.583
374.942	25.740	822.949	646.246
375.956	26.244	822.208	647.417
376.971	26.077	822.959	647.350
377.986	26.608	821.320	647.903
379.000	26.383	821.517	647.197
380.015	26.482	820.822	646.945
381.029	26.191	820.617	645.688
382.044	26.004	819.225	643.867
383.059	26.477	819.370	645.613
384.073	26.533	818.411	645.000
385.088	26.315	817.683	643.591
386.102	25.985	816.814	641.677
387.117	25.676	815.996	639.878
388.132	25.843	814.113	638.937
389.146	25.451	815.519	638.591
390.161	26.273	815.682	641.583
391.175	26.444	814.595	641.277
392.190	26.138	813.636	639.382
393.205	25.812	812.326	637.144
394.219	24.791	811.890	633.133
395.234	24.631	811.662	632.335
396.248	25.358	811.787	634.947
397.263	25.920	811.468	636.628
398.278	25.544	810.121	634.188
399.292	25.145	810.217	632.798
400.307	25.105	810.496	632.820
401.321	25.343	809.817	633.073
402.336	25.790	809.187	634.100
403.350	26.292	808.639	635.379
404.365	26.299	808.396	635.158
405.380	26.615	808.689	636.441
406.394	26.591	808.713	636.318
407.409	26.590	808.042	635.731
408.423	26.596	808.182	635.807
409.438	26.444	807.767	634.888
410.453	26.470	807.081	634.386
411.467	25.971	807.540	632.940
412.482	25.869	805.517	630.942
413.496	26.489	804.865	632.542
414.511	26.467	804.659	632.248
415.526	26.346	804.207	631.413
416.540	26.471	803.766	631.447
417.555	26.157	804.055	630.524
418.569	26.298	803.680	630.666
419.584	26.494	802.425	630.307
420.599	26.546	802.021	630.116
421.613	159.943	1371.173	1793.790
422.628	138.859	1454.113	1793.807
