DTS Sentinel unit serial number:	SN413079Multiplexer serial number:	ORYXHardware model number:	OX4-SRSoftware version number:	ORYX F/W v4.00 Oryx Data Collector v3.7.2.0data status	okinstallation	princeton_trtdifferential loss correction	single-endedforward channel	channel 1reverse channel	N/Adate	2019/09/19time	08:14:35forward acquisition time	60.00reverse acquisition time	0.00gamma	496.2192k internal	0.2342k external	0.2342temperature offset calibration	1.0003default loss term (dB/km)	0.3790temperature slope calibration	1.0000multiplexer offset coefficient	1.0000multiplexer slope coefficient	1.0000fibre end	0.00T internal ref (°C)	20.20T ext. ref 1 (°C)	0.56T ext. ref 2 (°C)	15.83length (m)	temperature (°C)	Stokes	anti-Stokes-747.200	800.000	-0.025	-0.088
-746.185	-200.000	0.001	0.072
-745.171	-126.677	0.092	-0.014
-744.156	325.739	-0.224	0.429
-743.142	58.316	-0.060	0.059
-742.127	-105.545	0.144	-0.033
-741.112	-56.146	0.293	0.131
-740.098	-86.474	-0.097	-0.030
-739.083	-13.844	0.399	-0.258
-738.069	-200.000	-0.050	0.432
-737.054	211.072	0.135	-0.212
-736.039	241.476	-0.157	-0.262
-735.025	-136.059	0.082	0.010
-734.010	-196.667	-0.115	0.001
-732.996	-107.077	-0.109	0.024
-731.981	-26.945	0.178	0.104
-730.966	-200.000	0.006	0.299
-729.952	-55.707	0.193	-0.087
-728.937	-100.090	-0.157	-0.039
-727.923	54.782	0.008	-0.008
-726.908	656.758	0.056	-0.145
-725.894	0.317	-0.129	0.092
-724.879	-123.854	0.057	0.009
-723.864	-200.000	0.001	-0.205
-722.850	-200.000	-0.001	-0.169
-721.835	90.005	0.339	0.380
-720.821	51.962	-0.181	-0.173
-719.806	152.426	0.009	0.012
-718.791	73.552	0.227	0.238
-717.777	-100.589	-0.106	-0.026
-716.762	104.494	-0.208	-0.245
-715.748	346.710	0.021	-0.042
-714.733	-200.000	-0.012	-0.198
-713.718	-89.076	-0.301	-0.089
-712.704	132.560	-0.166	-0.214
-711.689	-200.000	-0.040	-0.229
-710.675	-47.058	0.113	-0.055
-709.660	-200.000	0.090	0.448
-708.645	398.496	0.099	0.208
-707.631	127.972	-0.069	-0.087
-706.616	-75.606	-0.234	-0.083
-705.602	-80.566	0.442	0.147
-704.587	356.141	-0.065	-0.129
-703.572	146.095	-0.090	-0.120
-702.558	577.912	0.108	0.264
-701.543	800.000	0.095	0.308
-700.529	26.298	0.187	-0.156
-699.514	-32.254	-0.291	0.162
-698.499	-200.000	0.045	-0.400
-697.485	-134.725	0.387	-0.047
-696.470	-95.902	-0.367	0.098
-695.456	120.943	-0.131	-0.163
-694.441	-200.000	-0.037	-0.245
-693.426	-6.240	-0.121	-0.083
-692.412	-137.527	-0.073	0.008
-691.397	262.622	0.096	-0.167
-690.383	5.090	0.069	-0.050
-689.368	-101.201	-0.299	-0.073
-688.354	-105.111	0.331	-0.076
-687.339	-84.790	-0.077	-0.024
-686.324	208.565	-0.033	0.052
-685.310	-112.053	-0.119	-0.024
-684.295	23.913	0.213	-0.175
-683.281	-31.159	-0.164	-0.093
-682.266	416.973	-0.071	0.151
-681.251	85.663	-0.171	0.187
-680.237	310.808	-0.225	-0.422
-679.222	-124.003	-0.277	0.044
-678.208	-89.561	0.169	-0.049
-677.193	-9.074	0.183	0.122
-676.178	-120.791	-0.172	-0.029
-675.164	70.419	-0.436	0.450
-674.149	-167.462	-0.227	0.009
-673.135	13.528	-0.227	0.176
-672.120	-46.550	-0.081	0.040
-671.105	-58.631	-0.323	0.140
-670.091	-50.505	-0.085	0.040
-669.076	-118.873	-0.505	0.089
-668.062	-15.922	-0.277	0.176
-667.047	75.608	-0.146	0.154
-666.032	-136.448	-0.077	-0.009
-665.018	-200.000	0.023	0.174
-664.003	201.616	0.130	-0.200
-662.989	383.647	0.023	-0.047
-661.974	-45.638	0.261	-0.129
-660.959	28.877	0.177	-0.150
-659.945	297.995	0.091	-0.168
-658.930	-200.000	0.009	-0.114
-657.916	529.511	0.071	-0.167
-656.901	-54.262	-0.100	-0.045
-655.886	-11.401	0.306	-0.201
-654.872	143.205	-0.230	0.305
-653.857	-150.380	0.284	0.022
-652.843	-200.000	-0.037	-0.177
-651.828	-104.492	0.164	0.038
-650.814	800.000	0.054	0.185
-649.799	-200.000	-0.035	-0.230
-648.784	800.000	-0.040	0.155
-647.770	-136.857	-0.159	0.018
-646.755	-145.164	-0.287	0.026
-645.741	-200.000	0.027	0.160
-644.726	65.759	0.122	-0.124
-643.711	-200.000	-0.065	0.303
-642.697	-107.642	0.174	-0.038
-641.682	-116.286	-0.270	-0.050
-640.668	-41.709	0.188	-0.096
-639.653	-135.250	-0.600	0.072
-638.638	98.534	0.154	-0.178
-637.624	800.000	-0.073	0.227
-636.609	-200.000	-0.051	-0.603
-635.595	-57.015	-0.175	0.077
-634.580	-85.866	0.152	-0.047
-633.565	-71.144	-0.149	-0.056
-632.551	-200.000	0.036	0.286
-631.536	-200.000	0.067	-0.336
-630.522	115.079	-0.017	0.021
-629.507	244.326	0.082	0.137
-628.492	223.289	-0.086	-0.139
-627.478	-200.000	-0.045	0.286
-626.463	-200.000	0.007	0.259
-625.449	-31.903	-0.077	-0.043
-624.434	-12.182	0.153	0.100
-623.419	-90.113	-0.232	-0.067
-622.405	141.672	-0.027	0.035
-621.390	-72.723	0.146	-0.053
-620.376	-125.725	0.365	-0.055
-619.361	-117.943	-0.209	-0.037
-618.346	-200.000	-0.015	-0.297
-617.332	206.076	-0.165	0.255
-616.317	14.617	-0.042	0.033
-615.303	-22.711	-0.222	-0.134
-614.288	-118.548	0.160	0.028
-613.273	-200.000	-0.031	-0.380
-612.259	162.166	0.048	-0.068
-611.244	127.700	-0.021	0.027
-610.230	10.886	0.086	-0.065
-609.215	-200.000	-0.019	-0.214
-608.201	-97.140	-0.104	0.027
-607.186	-73.803	0.174	0.063
-606.171	-59.983	-0.067	-0.028
-605.157	-82.605	-0.146	0.047
-604.142	230.643	-0.068	0.111
-603.128	44.145	0.096	0.087
-602.113	226.331	0.119	-0.192
-601.098	54.334	-0.208	-0.200
-600.084	-63.065	-0.187	0.077
-599.069	-200.000	-0.074	-0.439
-598.055	110.326	0.078	0.094
-597.040	149.938	0.070	0.094
-596.025	149.450	0.174	0.234
-595.011	-184.224	-0.100	0.002
-593.996	26.464	-0.223	-0.186
-592.982	28.134	0.224	-0.188
-591.967	67.295	0.146	0.149
-590.952	-55.961	-0.325	-0.144
-589.938	-200.000	0.006	0.185
-588.923	-135.611	-0.087	0.010
-587.909	-77.730	-0.177	-0.061
-586.894	-45.473	-0.224	0.111
-585.879	-34.322	0.162	0.088
-584.865	800.000	0.112	-0.344
-583.850	-132.338	0.192	-0.025
-582.836	296.501	-0.166	-0.303
-581.821	-22.555	-0.204	-0.123
-580.806	-13.568	0.293	-0.189
-579.792	-16.724	-0.227	-0.143
-578.777	-11.904	-0.261	0.171
-577.763	-63.608	-0.242	-0.099
-576.748	-13.116	0.314	-0.203
-575.733	121.500	-0.200	-0.247
-574.719	-200.000	0.025	0.208
-573.704	-2.115	-0.100	-0.070
-572.690	-100.189	0.323	-0.080
-571.675	222.106	-0.108	-0.173
-570.661	-128.428	0.115	0.016
-569.646	-69.334	0.259	-0.099
-568.631	-200.000	-0.085	-0.399
-567.617	800.000	0.053	-0.185
-566.602	-33.002	-0.245	-0.135
-565.588	-200.000	-0.010	0.105
-564.573	265.469	0.167	-0.289
-563.558	531.377	-0.059	-0.138
-562.544	173.138	0.222	0.319
-561.529	800.000	0.014	0.052
-560.515	-200.000	-0.023	-0.173
-559.500	-138.575	-0.163	-0.018
-558.485	92.837	0.255	0.287
-557.471	516.309	-0.094	-0.219
-556.456	-31.066	-0.124	-0.069
-555.442	-74.771	0.470	0.168
-554.427	147.815	0.188	-0.252
-553.412	40.894	-0.104	0.094
-552.398	-73.786	-0.392	0.142
-551.383	548.451	-0.092	0.219
-550.369	800.000	0.002	-0.007
-549.354	-98.463	0.197	0.050
-548.339	454.394	0.099	-0.219
-547.325	-53.511	0.181	-0.082
-546.310	-87.260	0.039	-0.012
-545.296	77.435	-0.053	-0.056
-544.281	-134.086	-0.231	-0.028
-543.266	-200.000	-0.006	0.171
-542.252	115.304	-0.161	-0.195
-541.237	144.917	0.165	0.219
-540.223	-177.673	-0.062	0.001
-539.208	407.150	0.130	0.272
-538.193	316.080	-0.071	0.133
-537.179	0.447	0.242	0.172
-536.164	-200.000	-0.004	-0.203
-535.150	-156.294	0.221	-0.014
-534.135	213.562	0.113	-0.178
-533.121	627.505	-0.038	0.096
-532.106	-127.016	0.220	-0.032
-531.091	800.000	-0.082	-0.247
-530.077	-149.222	-0.294	-0.023
-529.062	-95.392	0.276	-0.074
-528.048	270.700	0.109	0.190
-527.033	-200.000	-0.060	-0.313
-526.018	800.000	-0.107	0.337
-525.004	21.893	0.100	0.081
-523.989	-3.337	0.115	-0.080
-522.975	-101.235	-0.381	-0.093
-521.960	-118.429	0.338	0.060
-520.945	314.043	0.067	-0.126
-519.931	-10.681	0.349	-0.229
-518.916	-95.957	0.339	0.090
-517.902	17.418	0.033	0.026
-516.887	453.497	0.031	0.067
-515.872	-76.856	0.477	-0.166
-514.858	101.177	0.070	0.081
-513.843	-60.318	-0.355	-0.150
-512.829	-133.957	0.071	0.009
-511.814	-55.497	-0.266	0.118
-510.799	-163.250	-0.200	0.010
-509.785	25.911	0.250	-0.207
-508.770	-40.802	-0.018	-0.009
-507.756	-105.608	-0.317	0.071
-506.741	-99.047	0.024	0.006
-505.726	-19.588	-0.244	-0.150
-504.712	800.000	-0.040	-0.117
-503.697	-53.539	0.303	-0.138
-502.683	-58.278	-0.349	-0.151
-501.668	800.000	-0.073	0.303
-500.653	-73.486	0.297	-0.108
-499.639	175.589	-0.130	-0.186
-498.624	-62.385	0.087	0.036
-497.610	800.000	0.115	-0.477
-496.595	-200.000	-0.006	0.051
-495.581	-38.263	-0.248	-0.130
-494.566	94.952	-0.057	0.065
-493.551	-65.725	-0.212	0.084
-492.537	21.206	0.136	-0.110
-491.522	154.032	0.159	0.216
-490.508	-84.533	-0.150	-0.047
-489.493	-200.000	0.076	0.354
-488.478	516.463	0.013	0.031
-487.464	49.833	-0.156	0.145
-486.449	-3.830	-0.075	0.052
-485.435	-167.135	-0.229	0.009
-484.420	81.690	0.027	0.029
-483.405	-200.000	-0.023	-0.214
-482.391	-200.000	0.005	-0.176
-481.376	-200.000	-0.030	0.167
-480.362	800.000	0.059	0.244
-479.347	-51.965	-0.482	0.222
-478.332	208.562	-0.086	-0.134
-477.318	87.508	-0.079	0.087
-476.303	-19.551	0.060	0.037
-475.289	-200.000	-0.056	0.370
-474.274	35.017	-0.278	0.241
-473.259	800.000	0.086	-0.258
-472.245	663.228	-0.018	0.046
-471.230	-113.473	0.199	-0.039
-470.216	-32.351	-0.265	0.146
-469.201	-69.446	-0.095	-0.036
-468.186	800.000	-0.058	-0.192
-467.172	-200.000	-0.053	0.237
-466.157	606.744	0.072	0.179
-465.143	-29.174	0.337	-0.191
-464.128	37.632	-0.282	0.248
-463.113	-200.000	-0.015	-0.200
-462.099	800.000	0.044	-0.187
-461.084	110.819	0.087	-0.103
-460.070	338.761	0.023	0.045
-459.055	-200.000	0.008	0.125
-458.040	-128.530	-0.088	0.012
-457.026	24.616	-0.134	0.110
-456.011	-32.174	-0.435	0.241
-454.997	-60.382	-0.152	0.064
-453.982	25.253	-0.053	0.044
-452.968	-200.000	0.031	0.217
-451.953	-180.400	-0.230	-0.005
-450.938	733.360	0.083	-0.219
-449.924	-200.000	-0.026	0.131
-448.909	-4.369	-0.256	0.175
-447.895	-78.705	-0.148	-0.050
-446.880	-200.000	-0.006	-0.123
-445.865	-200.000	0.025	-0.382
-444.851	-28.417	0.158	0.090
-443.836	-87.224	-0.129	-0.039
-442.822	29.849	-0.100	0.084
-441.807	-200.000	0.012	0.077
-440.792	64.662	0.077	-0.077
-439.778	-5.916	0.192	-0.130
-438.763	-200.000	0.040	0.205
-437.749	131.900	0.041	0.052
-436.734	353.831	-0.114	-0.224
-435.719	-123.345	-0.311	-0.049
-434.705	65.269	0.231	-0.231
-433.690	200.881	0.039	-0.059
-432.676	-4.220	-0.295	0.202
-431.661	9.238	-0.119	0.089
-430.646	108.438	-0.251	-0.297
-429.632	-76.197	-0.143	0.050
-428.617	-138.105	-0.091	0.010
-427.603	1.063	-0.152	0.108
-426.588	-134.277	-0.345	-0.042
-425.573	34.935	0.308	-0.266
-424.559	-79.075	0.140	-0.047
-423.544	-61.680	-0.264	-0.109
-422.530	-200.000	-0.038	0.202
-421.515	-135.234	0.111	-0.013
-420.500	-200.000	0.012	0.163
-419.486	17.650	0.197	-0.155
-418.471	-200.000	-0.034	-0.244
-417.457	491.695	0.036	-0.081
-416.442	41.831	0.119	-0.107
-415.428	-143.168	0.144	0.014
-414.413	-200.000	0.068	0.429
-413.398	-200.000	0.044	-0.211
-412.384	-76.639	0.270	0.094
-411.369	73.454	-0.279	0.289
-410.355	-10.238	0.237	0.156
-409.340	800.000	-0.073	0.216
-408.325	-27.686	0.076	-0.043
-407.311	-189.040	-0.261	-0.003
-406.296	-200.000	-0.000	0.217
-405.282	297.549	0.077	-0.140
-404.267	-51.829	0.177	-0.081
-403.252	800.000	-0.063	0.272
-402.238	-75.831	-0.146	0.051
-401.223	-200.000	0.051	-0.261
-400.209	61.949	-0.132	-0.130
-399.194	29.657	-0.158	0.133
-398.179	800.000	0.038	0.118
-397.165	261.496	-0.093	0.160
-396.150	-200.000	0.013	0.235
-395.136	800.000	-0.092	-0.291
-394.121	20.001	-0.148	-0.118
-393.106	137.442	0.185	0.239
-392.092	-200.000	-0.031	0.210
-391.077	-200.000	0.037	0.173
-390.063	-9.919	-0.077	-0.050
-389.048	446.483	-0.067	0.145
-388.033	-77.756	-0.306	-0.104
-387.019	98.322	0.098	0.112
-386.004	-200.000	0.017	-0.183
-384.990	122.401	-0.224	0.276
-383.975	140.094	-0.218	-0.284
-382.960	370.548	-0.168	-0.336
-381.946	-110.507	0.287	0.059
-380.931	-102.096	-0.285	-0.068
-379.917	34.747	0.067	0.058
-378.902	-89.374	-0.314	0.091
-377.888	-31.368	0.254	0.141
-376.873	-149.656	-0.135	-0.011
-375.858	186.843	0.090	0.132
-374.844	-146.642	-0.063	0.005
-373.829	800.000	0.097	0.312
-372.815	-94.884	0.213	-0.057
-371.800	244.348	0.177	0.293
-370.785	2.881	-0.175	0.126
-369.771	-9.843	0.275	-0.181
-368.756	258.044	-0.051	0.087
-367.742	234.457	0.162	0.264
-366.727	132.458	0.243	0.310
-365.712	124.906	0.150	0.187
-364.698	220.759	-0.179	0.284
-363.683	-200.000	0.014	-0.079
-362.669	-200.000	0.102	-0.456
-361.654	644.704	0.118	-0.298
-360.639	-67.131	-0.242	-0.094
-359.625	103.556	0.124	0.144
-358.610	144.030	-0.148	-0.195
-357.596	-200.000	0.020	0.094
-356.581	314.220	0.128	-0.237
-355.566	-61.882	-0.060	0.025
-354.552	13.400	0.285	0.218
-353.537	-115.270	0.448	-0.084
-352.523	205.724	-0.036	0.055
-351.508	-185.784	-0.261	-0.004
-350.493	800.000	0.050	-0.203
-349.479	800.000	-0.051	0.192
-348.464	-200.000	-0.072	-0.326
-347.450	-200.000	-0.011	-0.129
-346.435	-200.000	-0.016	-0.176
-345.420	755.833	0.106	-0.283
-344.406	-200.000	-0.007	0.210
-343.391	332.695	-0.054	-0.103
-342.377	339.799	0.187	0.360
-341.362	800.000	-0.049	0.137
-340.348	-98.067	-0.261	0.066
-339.333	253.922	0.121	-0.203
-338.318	678.329	-0.078	0.200
-337.304	-124.176	-0.294	-0.045
-336.289	-200.000	0.001	-0.284
-335.275	260.971	0.124	-0.211
-334.260	-200.000	0.030	-0.477
-333.245	-200.000	-0.030	-0.380
-332.231	217.009	-0.109	-0.171
-331.216	117.048	0.298	0.360
-330.202	-49.980	-0.152	-0.071
-329.187	-13.518	0.179	0.114
-328.172	-6.640	0.187	-0.126
-327.158	184.599	-0.171	-0.250
-326.143	215.666	-0.080	-0.125
-325.129	-200.000	-0.017	0.210
-324.114	308.642	-0.183	-0.336
-323.099	423.744	0.080	-0.169
-322.085	-105.674	-0.114	0.025
-321.070	273.387	-0.159	0.277
-320.056	177.357	-0.155	0.222
-319.041	308.907	0.151	-0.278
-318.026	-200.000	-0.014	0.068
-317.012	-10.669	-0.190	0.124
-315.997	800.000	0.045	0.149
-314.983	800.000	-0.076	0.216
-313.968	119.728	0.171	0.208
-312.953	-66.386	-0.214	-0.084
-311.939	482.128	0.121	-0.270
-310.924	-117.443	-0.137	-0.024
-309.910	-36.867	0.269	0.142
-308.895	-58.098	0.102	-0.044
-307.880	800.000	0.050	-0.136
-306.866	208.955	0.095	0.146
-305.851	-85.183	-0.081	-0.025
-304.837	261.403	0.147	0.251
-303.822	152.206	-0.200	-0.269
-302.807	388.068	-0.196	0.399
-301.793	-200.000	0.047	0.360
-300.778	666.657	-0.135	0.343
-299.764	9.247	-0.049	-0.037
-298.749	-168.053	0.197	-0.008
-297.735	-47.447	-0.106	-0.051
-296.720	362.567	0.095	0.188
-295.705	319.489	-0.093	0.174
-294.691	305.584	0.066	0.120
-293.676	-200.000	0.011	0.395
-292.662	-131.523	0.427	0.055
-291.647	45.182	-0.137	-0.124
-290.632	-77.466	0.179	0.061
-289.618	-16.212	-0.277	0.173
-288.603	-200.000	-0.050	0.244
-287.589	800.000	-0.086	-0.265
-286.574	147.025	0.252	-0.334
-285.559	800.000	-0.083	0.329
-284.545	-153.822	0.106	0.007
-283.530	-101.798	-0.198	-0.047
-282.516	306.071	-0.108	-0.198
-281.501	-47.064	-0.144	-0.069
-280.486	-64.211	-0.192	-0.077
-279.472	59.422	0.119	0.115
-278.457	-175.822	-0.141	-0.004
-277.443	26.202	0.179	-0.147
-276.428	-44.790	0.236	-0.116
-275.413	2.329	-0.041	0.029
-274.399	39.211	-0.404	0.355
-273.384	-93.479	0.439	0.120
-272.370	-122.347	-0.169	0.027
-271.355	-12.969	-0.452	0.289
-270.340	800.000	-0.024	0.087
-269.326	641.198	0.076	0.191
-268.311	-200.000	-0.042	0.295
-267.297	162.776	0.182	0.251
-266.282	-200.000	0.067	0.297
-265.267	31.287	0.103	0.087
-264.253	-102.903	0.084	-0.020
-263.238	-126.540	-0.106	-0.015
-262.224	-200.000	-0.011	0.277
-261.209	27.628	-0.201	0.166
-260.195	800.000	0.032	0.113
-259.180	-130.094	-0.230	0.031
-258.165	-58.756	0.468	-0.199
-257.151	67.298	-0.147	-0.148
-256.136	800.000	0.049	0.198
-255.122	112.180	0.059	-0.070
-254.107	-200.000	0.086	-0.380
-253.092	202.873	0.068	-0.104
-252.078	800.000	-0.067	-0.191
-251.063	745.853	-0.064	0.168
-250.049	14.766	-0.230	-0.177
-249.034	178.438	0.036	-0.051
-248.019	-200.000	-0.013	0.077
-247.005	153.454	0.167	0.225
-245.990	-200.000	-0.119	-0.530
-244.976	-200.000	-0.048	0.363
-243.961	-133.522	0.046	-0.006
-242.946	800.000	0.123	-0.352
-241.932	30.188	-0.301	-0.252
-240.917	-200.000	-0.007	0.134
-239.903	-200.000	0.018	0.168
-238.888	-135.058	0.011	-0.001
-237.873	36.332	0.088	0.076
-236.859	-77.575	0.333	-0.113
-235.844	-200.000	0.018	0.193
-234.830	307.723	0.206	0.377
-233.815	-108.454	-0.237	0.050
-232.800	-24.751	-0.371	-0.216
-231.786	132.140	0.122	-0.154
-230.771	63.099	0.193	0.190
-229.757	-200.000	-0.043	-0.329
-228.742	-14.361	0.146	0.093
-227.727	14.306	-0.125	-0.096
-226.713	-74.123	0.206	-0.073
-225.698	76.781	0.086	-0.090
-224.684	222.420	0.129	0.204
-223.669	50.447	0.202	-0.187
-222.655	55.485	0.174	0.165
-221.640	31.256	-0.208	0.175
-220.625	539.590	0.103	-0.241
-219.611	227.196	0.192	0.307
-218.596	675.127	0.149	0.379
-217.582	-20.291	0.230	0.139
-216.567	498.075	0.085	-0.192
-215.552	21.865	-0.039	0.032
-214.538	-200.000	-0.027	-0.117
-213.523	-33.072	0.139	0.075
-212.509	-99.936	0.545	-0.134
-211.494	-200.000	-0.043	-0.253
-210.479	471.604	-0.028	0.061
-209.465	-88.293	0.170	-0.050
-208.450	81.428	0.295	-0.313
-207.436	29.136	0.118	-0.098
-206.421	-111.102	0.153	-0.031
-205.406	81.436	0.084	0.090
-204.392	-40.383	-0.117	-0.060
-203.377	-200.000	0.042	0.236
-202.363	37.823	0.160	-0.140
-201.348	-200.000	0.020	-0.088
-200.333	-200.000	-0.018	-0.141
-199.319	10.608	0.178	-0.133
-198.304	628.116	0.072	0.179
-197.290	-176.577	-0.229	-0.006
-196.275	-99.205	-0.080	0.020
-195.260	-1.803	-0.078	0.054
-194.246	-128.966	0.206	-0.028
-193.231	800.000	-0.036	0.125
-192.217	51.148	-0.333	0.310
-191.202	-200.000	0.309	-0.001
-190.187	800.000	-0.109	-0.334
-189.173	-33.177	0.154	0.084
-188.158	-20.137	-0.304	0.183
-187.144	-99.152	-0.391	-0.097
-186.129	27.503	0.358	-0.295
-185.114	96.036	-0.130	0.146
-184.100	-98.652	0.013	0.003
-183.085	-131.541	-0.054	-0.007
-182.071	-200.000	0.018	0.266
-181.056	-110.178	0.188	0.038
-180.042	288.779	0.170	-0.301
-179.027	-10.360	0.190	0.124
-178.012	143.911	-0.141	0.184
-176.998	-4.286	-0.027	-0.019
-175.983	-84.652	0.233	-0.072
-174.969	-200.000	-0.043	0.203
-173.954	-44.185	0.229	0.112
-172.939	701.647	-0.005	-0.014
-171.925	-29.695	0.166	-0.093
-170.910	-200.000	0.048	-0.355
-169.896	-96.931	0.096	-0.025
-168.881	800.000	-0.032	0.118
-167.866	152.416	-0.131	0.175
-166.852	-200.000	-0.021	-0.181
-165.837	12.619	-0.040	-0.031
-164.823	316.651	-0.112	0.208
-163.808	1.394	0.182	-0.128
-162.793	-6.243	-0.133	0.089
-161.779	-53.802	0.065	-0.029
-160.764	-30.301	-0.076	-0.042
-159.750	51.952	-0.128	0.119
-158.735	-132.786	0.508	-0.064
-157.720	391.657	-0.156	-0.317
-156.706	326.915	0.013	-0.024
-155.691	-29.707	0.150	0.084
-154.677	79.351	0.192	-0.202
-153.662	-123.395	0.426	-0.067
-152.647	30.731	0.330	0.277
-151.633	-40.862	-0.142	-0.072
-150.618	-200.000	-0.032	-0.182
-149.604	-76.769	-0.208	-0.071
-148.589	400.224	-0.059	0.120
-147.574	-66.262	-0.068	0.026
-146.560	-23.049	0.225	-0.132
-145.545	-36.080	0.111	-0.059
-144.531	-200.000	-0.053	0.282
-143.516	-200.000	-0.007	-0.172
-142.502	-77.501	0.287	-0.097
-141.487	-135.204	0.192	-0.023
-140.472	-120.542	-0.441	-0.073
-139.458	-200.000	0.019	-0.229
-138.443	87.996	-0.135	0.146
-137.429	800.000	-0.096	0.338
-136.414	-138.800	-0.397	-0.042
-135.399	-29.812	0.193	-0.108
-134.385	4.314	-0.019	-0.014
-133.370	176.004	-0.190	-0.270
-132.356	-156.690	0.312	-0.019
-131.341	339.556	0.069	0.131
-130.326	68.603	0.054	-0.054
-129.312	-111.242	-0.248	0.050
-128.297	-95.059	-0.205	0.054
-127.283	57.850	0.167	0.160
-126.268	33.002	-0.237	0.201
-125.253	77.020	0.174	-0.181
-124.239	-167.167	-0.209	-0.008
-123.224	-135.877	-0.212	-0.024
-122.210	223.876	0.144	0.227
-121.195	800.000	0.007	-0.020
-120.180	150.447	-0.132	0.175
-119.166	-16.169	-0.229	0.142
-118.151	-48.576	0.239	0.112
-117.137	800.000	-0.055	0.168
-116.122	398.107	0.038	-0.077
-115.107	-142.894	-0.203	-0.019
-114.093	376.476	0.071	0.142
-113.078	800.000	0.067	-0.200
-112.064	-200.000	0.056	-0.264
-111.049	-83.593	-0.217	0.068
-110.034	800.000	-0.029	-0.101
-109.020	-140.105	0.020	-0.002
-108.005	120.718	0.108	-0.131
-106.991	-132.744	-0.283	0.035
-105.976	253.058	-0.105	0.174
-104.962	350.226	0.097	0.188
-103.947	-113.110	-0.337	-0.065
-102.932	515.598	-0.081	-0.185
-101.918	41.919	0.212	0.188
-100.903	287.643	-0.096	0.170
-99.889	-26.546	0.204	-0.117
-98.874	34.319	0.330	0.281
-97.859	-200.000	-0.005	0.132
-96.845	-64.780	0.115	0.046
-95.830	-37.519	0.302	-0.157
-94.816	-200.000	-0.014	-0.095
-93.801	-90.332	-0.245	0.070
-92.786	-132.807	0.053	-0.007
-91.772	-96.713	-0.328	-0.084
-90.757	-85.694	0.125	-0.038
-89.743	335.548	0.211	0.399
-88.728	-42.337	0.199	0.099
-87.713	-80.707	0.177	-0.057
-86.699	106.280	-0.285	-0.329
-85.684	-92.161	-0.186	0.051
-84.670	-62.894	-0.112	-0.045
-83.655	-127.411	0.160	0.023
-82.640	797.103	-0.071	0.192
-81.626	118.726	0.048	-0.058
-80.611	108.185	0.091	-0.106
-79.597	-111.450	0.318	-0.063
-78.582	800.000	-0.153	-0.575
-77.567	43.513	0.238	0.212
-76.553	341.416	-0.095	0.181
-75.538	1.765	0.199	-0.140
-74.524	267.194	0.102	-0.173
-73.509	236.271	0.089	0.144
-72.494	66.150	-0.224	-0.222
-71.480	-72.572	0.148	0.053
-70.465	-77.680	0.171	0.058
-69.451	289.881	0.101	-0.179
-68.436	-125.590	0.372	-0.055
-67.422	-3.894	0.113	-0.076
-66.407	-68.867	0.174	0.065
-65.392	-184.666	-0.151	-0.002
-64.378	-32.551	-0.245	0.133
-63.363	210.902	0.143	0.219
-62.349	-141.836	0.044	0.004
-61.334	129.108	-0.934	-1.162
-60.319	173.130	0.563	0.791
-59.305	-200.000	-0.249	-1.605
-58.290	316.886	0.927	1.708
-57.276	618.668	0.730	1.788
-56.261	-200.000	134.074	669.736
-55.246	330.002	1675.042	3143.367
-54.232	132.912	2809.795	3536.759
-53.217	86.135	2181.346	2341.757
-52.203	31.545	1609.771	1349.267
-51.188	23.438	1357.474	1088.218
-50.173	21.255	1321.571	1046.334
-49.159	49.016	1395.311	1277.350
-48.144	45.072	1404.678	1261.555
-47.130	23.608	1351.256	1084.100
-46.115	20.350	1332.769	1049.562
-45.100	20.164	1327.454	1044.216
-44.086	20.272	1324.303	1042.342
-43.071	20.147	1322.120	1039.835
-42.057	19.964	1320.288	1037.254
-41.042	20.051	1318.919	1036.660
-40.027	20.012	1317.444	1035.225
-39.013	20.079	1315.418	1033.993
-37.998	20.136	1313.621	1032.882
-36.984	20.143	1312.137	1031.711
-35.969	20.247	1309.737	1030.404
-34.954	20.164	1308.518	1028.909
-33.940	20.070	1307.701	1027.669
-32.925	20.224	1305.955	1027.167
-31.911	20.285	1304.175	1026.086
-30.896	20.282	1303.049	1025.146
-29.881	20.372	1301.507	1024.423
-28.867	20.294	1300.362	1023.017
-27.852	20.480	1298.884	1022.911
-26.838	20.356	1297.671	1021.188
-25.823	20.333	1296.276	1019.913
-24.809	20.306	1294.863	1018.603
-23.794	20.256	1293.898	1017.510
-22.779	20.271	1292.584	1016.522
-21.765	20.267	1291.183	1015.355
-20.750	20.245	1290.198	1014.413
-19.736	20.065	1289.077	1012.440
-18.721	20.258	1287.617	1012.380
-17.706	20.163	1286.194	1010.664
-16.692	20.178	1285.363	1010.064
-15.677	20.128	1284.024	1008.681
-14.663	20.123	1282.813	1007.660
-13.648	20.067	1281.941	1006.610
-12.633	20.159	1281.111	1006.452
-11.619	20.220	1279.913	1005.821
-10.604	20.197	1279.008	1004.940
-9.590	20.097	1278.259	1003.730
-8.575	20.167	1277.384	1003.406
-7.560	20.160	1276.094	1002.314
-6.546	20.204	1275.264	1001.878
-5.531	20.120	1274.734	1000.940
-4.517	20.192	1273.820	1000.596
-3.502	20.024	1273.464	999.305
-2.487	20.177	1272.290	999.226
-1.473	20.072	1268.344	995.488
-0.458	18.893	1253.889	977.399
0.556	14.815	1238.914	943.879
1.571	11.587	1247.901	932.252
2.586	11.041	1263.908	940.970
3.600	11.116	1251.107	931.789
4.615	8.255	1178.935	862.515
5.629	2.904	1108.667	783.782
6.644	0.720	1092.243	761.110
7.659	0.478	1090.278	758.461
8.673	0.497	1089.487	757.936
9.688	0.546	1087.953	757.046
10.702	0.670	1085.781	756.089
11.717	3.878	1089.043	774.376
12.731	10.149	1097.250	811.698
13.746	15.178	1104.212	842.111
14.761	16.916	1106.426	852.475
15.775	16.339	1104.839	848.276
16.790	15.438	1102.507	841.895
17.804	14.576	1101.490	836.720
18.819	14.415	1099.769	834.534
19.834	14.157	1098.729	832.379
20.848	13.919	1097.870	830.466
21.863	13.656	1096.887	828.333
22.877	13.516	1096.297	827.115
23.892	13.383	1095.532	825.803
24.907	13.660	1094.175	826.090
25.921	13.464	1094.472	825.263
26.936	13.532	1093.192	824.561
27.950	13.543	1092.466	823.995
28.965	13.651	1090.481	822.960
29.980	13.668	1089.607	822.314
30.994	13.735	1088.215	821.525
32.009	13.722	1087.735	821.024
33.023	13.659	1086.283	819.545
34.038	13.534	1085.666	818.386
35.053	13.611	1084.753	818.006
36.067	13.681	1083.572	817.388
37.082	13.569	1082.951	816.299
38.096	13.605	1082.480	816.047
39.111	13.604	1081.467	815.207
40.126	13.579	1079.805	813.756
41.140	13.516	1079.089	812.838
42.155	13.437	1077.660	811.303
43.169	13.413	1076.717	810.401
44.184	13.469	1075.660	809.811
45.199	13.472	1075.003	809.257
46.213	13.507	1073.287	808.067
47.228	13.600	1072.121	807.568
48.242	13.623	1070.979	806.748
49.257	13.583	1070.377	806.030
50.271	13.617	1069.312	805.321
51.286	13.509	1068.698	804.262
52.301	13.507	1067.509	803.288
53.315	13.552	1066.236	802.480
54.330	13.489	1065.214	801.332
55.344	13.536	1064.185	800.716
56.359	13.459	1063.813	799.993
57.374	13.614	1062.103	799.382
58.388	13.395	1061.865	798.078
59.403	13.446	1061.028	797.622
60.417	13.445	1060.231	796.947
61.432	13.405	1059.380	796.047
62.447	13.330	1058.821	795.194
63.461	13.501	1057.375	794.858
64.476	13.283	1056.804	793.312
65.490	13.372	1055.704	792.845
66.505	13.522	1054.806	792.816
67.520	13.506	1054.489	792.433
68.534	13.412	1053.646	791.280
69.549	13.514	1052.508	790.842
70.563	13.460	1051.783	789.971
71.578	13.363	1051.708	789.381
72.593	13.459	1050.403	788.790
73.607	13.522	1049.830	788.590
74.622	13.448	1049.134	787.645
75.636	13.298	1048.635	786.486
76.651	13.377	1047.939	786.272
77.666	13.341	1047.108	785.408
78.680	13.432	1046.762	785.512
79.695	13.361	1045.820	784.395
80.709	13.373	1045.083	783.831
81.724	13.434	1044.714	783.772
82.739	13.499	1043.180	782.860
83.753	13.522	1043.024	782.785
84.768	13.644	1042.026	782.539
85.782	13.695	1040.803	781.796
86.797	13.673	1040.041	781.047
87.812	13.565	1039.324	779.933
88.826	13.470	1038.231	778.595
89.841	13.565	1037.237	778.231
90.855	13.506	1036.223	777.121
91.870	13.540	1035.693	776.816
92.884	13.629	1034.606	776.351
93.899	13.732	1033.478	775.914
94.914	13.778	1032.779	775.537
95.928	13.646	1031.902	774.191
96.943	13.712	1030.709	773.538
97.957	13.750	1029.858	773.008
98.972	13.594	1029.234	771.743
99.987	13.588	1028.400	771.021
101.001	13.819	1027.071	771.033
102.016	13.677	1026.519	769.887
103.030	13.782	1025.615	769.631
104.045	13.660	1024.848	768.420
105.060	13.715	1023.893	767.892
106.074	13.645	1023.233	767.007
107.089	13.601	1022.228	765.981
108.103	13.518	1021.581	765.043
109.118	13.561	1020.360	764.261
110.133	13.452	1019.836	763.298
111.147	13.527	1018.630	762.673
112.162	13.597	1017.737	762.259
113.176	13.636	1017.106	761.899
114.191	13.666	1016.436	761.466
115.206	13.570	1015.501	760.257
116.220	13.553	1014.309	759.219
117.235	13.551	1014.043	758.945
118.249	13.600	1012.916	758.260
119.264	13.765	1011.432	757.835
120.279	13.720	1011.051	757.275
121.293	13.557	1010.118	755.767
122.308	13.476	1009.354	754.758
123.322	13.511	1008.334	754.091
124.337	13.538	1007.543	753.555
125.352	13.582	1006.227	752.704
126.366	13.518	1005.411	751.737
127.381	13.491	1004.200	750.644
128.395	13.437	1003.085	749.496
129.410	13.645	1001.879	749.472
130.424	13.633	1001.244	748.876
131.439	13.633	1000.506	748.258
132.454	13.628	999.770	747.620
133.468	13.612	998.994	746.900
134.483	13.568	998.343	746.149
135.497	13.612	997.091	745.344
136.512	13.668	996.161	744.833
137.527	13.613	995.628	744.125
138.541	13.615	994.770	743.423
139.556	13.658	994.161	743.095
140.570	13.617	993.299	742.204
141.585	13.708	992.617	742.035
142.600	13.841	991.949	742.064
143.614	13.836	990.589	740.959
144.629	13.831	990.430	740.752
145.643	13.646	989.404	739.093
146.658	13.708	988.005	738.262
147.673	13.706	987.365	737.709
148.687	13.746	986.258	736.994
149.702	13.683	985.208	735.866
150.716	13.790	984.923	736.061
151.731	13.735	984.389	735.352
152.746	13.692	983.120	734.150
153.760	13.868	982.766	734.600
154.775	13.852	981.967	733.866
155.789	13.765	981.824	733.310
156.804	13.884	981.065	733.204
157.819	13.947	979.990	732.614
158.833	13.978	979.128	732.040
159.848	13.927	978.663	731.404
160.862	14.068	977.606	731.168
161.877	14.007	976.677	730.139
162.892	13.795	975.940	728.593
163.906	13.962	974.495	728.183
164.921	13.981	973.562	727.506
165.935	13.896	972.951	726.613
166.950	13.986	972.124	726.324
167.964	13.901	971.522	725.440
168.979	13.948	970.026	724.464
169.994	13.971	969.227	723.903
171.008	14.020	968.886	723.798
172.023	14.034	967.776	722.963
173.037	14.084	966.912	722.472
174.052	14.120	966.166	722.006
175.067	13.980	965.872	721.116
176.081	14.004	965.394	720.800
177.096	13.990	964.678	720.141
178.110	14.056	964.060	719.899
179.125	14.117	963.523	719.701
180.140	14.073	962.813	718.915
181.154	14.067	962.580	718.653
182.169	14.139	962.230	718.639
183.183	14.188	961.291	718.085
184.198	14.198	960.359	717.367
185.213	14.221	959.849	717.023
186.227	14.166	958.855	715.982
187.242	14.315	958.495	716.291
188.256	14.210	957.818	715.270
189.271	14.161	957.139	714.487
190.286	14.058	956.304	713.361
191.300	14.138	955.642	713.147
192.315	14.091	954.768	712.229
193.329	14.011	954.738	711.802
194.344	14.164	953.534	711.493
195.359	14.285	952.779	711.384
196.373	14.354	952.387	711.327
197.388	14.292	951.864	710.607
198.402	14.366	951.246	710.398
199.417	14.507	950.468	710.354
200.432	14.487	949.923	709.800
201.446	14.487	949.986	709.783
202.461	14.550	948.937	709.206
203.475	14.537	948.236	708.565
204.490	14.532	947.320	707.796
205.504	14.418	947.126	707.102
206.519	14.557	945.995	706.786
207.534	14.406	945.390	705.633
208.548	14.516	944.880	705.655
209.563	14.583	943.874	705.125
210.577	14.553	943.390	704.571
211.592	14.591	942.961	704.349
212.607	14.545	941.865	703.278
213.621	14.516	941.056	702.486
214.636	14.722	940.223	702.671
215.650	14.737	939.693	702.276
216.665	14.783	938.825	701.758
217.680	14.667	938.476	700.948
218.694	14.518	938.172	700.033
219.709	14.704	937.343	700.134
220.723	14.661	936.445	699.220
221.738	14.715	935.363	698.577
222.753	14.570	935.127	697.732
223.767	14.769	934.692	698.176
224.782	14.790	933.789	697.526
225.796	14.824	933.346	697.277
226.811	14.832	932.734	696.791
227.826	14.873	931.991	696.346
228.840	14.805	931.101	695.335
229.855	14.775	929.983	694.313
230.869	14.772	929.553	693.919
231.884	14.904	928.999	693.992
232.899	14.892	927.599	692.835
233.913	14.772	927.311	692.061
234.928	14.860	926.672	691.890
235.942	14.934	926.207	691.788
236.957	14.941	925.522	691.243
237.972	14.935	924.848	690.652
238.986	14.719	924.837	689.691
240.001	14.916	923.399	689.370
241.015	14.843	922.785	688.553
242.030	14.888	922.278	688.298
243.045	15.044	921.460	688.267
244.059	15.028	920.694	687.569
245.074	15.097	920.369	687.549
246.088	15.036	919.447	686.549
247.103	14.996	919.026	686.007
248.117	15.007	918.524	685.620
249.132	15.162	917.657	685.544
250.147	15.209	916.983	685.171
251.161	15.280	916.144	684.776
252.176	15.237	915.636	684.159
253.190	15.301	914.998	683.883
254.205	15.108	915.074	683.093
255.220	15.311	913.768	682.884
256.234	15.208	913.440	682.161
257.249	15.328	912.294	681.732
258.263	15.389	911.915	681.636
259.278	15.378	911.219	681.010
260.293	15.317	910.739	680.344
261.307	15.352	909.928	679.818
262.322	15.304	909.550	679.283
263.336	15.593	908.559	679.652
264.351	15.580	907.680	678.880
265.366	15.458	907.409	678.126
266.380	15.412	906.861	677.471
267.395	15.554	906.244	677.523
268.409	15.572	905.454	676.944
269.424	15.624	903.937	675.960
270.439	15.539	903.888	675.522
271.453	15.688	903.129	675.494
272.468	15.541	902.500	674.371
273.482	15.640	901.993	674.330
274.497	15.679	901.489	674.051
275.512	15.585	900.705	673.030
276.526	15.608	900.043	672.568
277.541	15.616	899.446	672.092
278.555	15.691	898.951	671.962
279.570	15.800	898.139	671.731
280.585	15.803	897.588	671.271
281.599	15.709	896.798	670.248
282.614	15.786	895.979	669.882
283.628	15.654	895.507	668.944
284.643	15.748	894.770	668.707
285.657	15.791	894.374	668.523
286.672	15.837	893.333	667.871
287.687	15.737	892.878	667.072
288.701	15.958	892.178	667.368
289.716	15.758	892.235	666.560
290.730	15.763	891.503	665.972
291.745	15.967	890.536	666.000
292.760	15.815	890.238	665.118
293.774	16.094	889.080	665.293
294.789	15.989	888.583	664.448
295.803	15.979	887.679	663.675
296.818	15.892	887.077	662.823
297.833	15.926	886.629	662.562
298.847	15.944	886.209	662.260
299.862	15.947	885.630	661.784
300.876	16.077	884.710	661.547
301.891	16.159	884.420	661.593
302.906	16.267	883.656	661.385
303.920	16.178	883.395	660.784
304.935	16.165	882.741	660.184
305.949	16.139	881.984	659.459
306.964	16.280	881.166	659.339
307.979	16.184	880.915	658.718
308.993	16.329	880.129	658.637
310.008	16.226	879.634	657.808
311.022	16.192	879.162	657.264
312.037	16.238	878.365	656.789
313.052	16.213	877.913	656.296
314.066	16.237	877.377	655.932
315.081	16.198	876.813	655.300
316.095	16.180	876.330	654.811
317.110	16.120	875.394	653.820
318.125	16.146	875.094	653.641
319.139	16.188	874.702	653.453
320.154	16.229	874.161	653.149
321.168	16.258	873.438	652.664
322.183	16.281	872.660	652.114
323.197	16.312	872.584	652.118
324.212	16.260	871.859	651.317
325.227	16.428	870.952	651.229
326.241	16.497	870.235	650.900
327.256	16.331	870.151	650.140
328.270	16.501	869.079	649.936
329.285	16.420	868.479	649.120
330.300	16.399	868.011	648.631
331.314	16.582	867.436	648.846
332.329	16.292	867.154	647.466
333.343	16.303	867.234	647.512
334.358	16.492	866.143	647.364
335.373	16.452	866.349	647.305
336.387	16.572	865.578	647.129
337.402	16.492	865.166	646.459
338.416	16.564	864.971	646.532
339.431	16.675	864.353	646.438
340.446	16.614	863.968	645.858
341.460	16.641	863.771	645.757
342.475	16.636	863.484	645.466
343.489	16.667	862.823	645.033
344.504	16.832	862.074	645.045
345.519	16.682	861.756	644.178
346.533	16.662	861.553	643.896
347.548	16.762	861.164	643.926
348.562	16.807	860.488	643.535
349.577	16.693	859.641	642.414
350.592	16.626	859.079	641.682
351.606	16.815	858.280	641.746
352.621	16.756	857.522	640.896
353.635	16.722	857.017	640.334
354.650	16.828	856.329	640.166
355.665	16.945	855.360	639.824
356.679	16.817	855.189	639.158
357.694	16.829	854.385	638.546
358.708	16.944	853.649	638.372
359.723	16.811	853.074	637.385
360.738	16.901	852.562	637.286
361.752	16.976	851.727	636.886
362.767	16.986	851.412	636.631
363.781	17.148	850.935	636.826
364.796	16.875	850.966	635.770
365.810	17.137	850.160	636.092
366.825	17.006	849.522	635.070
367.840	17.044	849.356	635.030
368.854	17.153	848.680	634.875
369.869	17.104	848.165	634.250
370.883	17.117	848.112	634.202
371.898	17.175	847.655	634.021
372.913	17.240	846.996	633.716
373.927	17.242	846.143	633.028
374.942	17.236	846.066	632.892
375.956	17.281	845.680	632.717
376.971	17.539	844.929	633.059
377.986	17.352	844.482	631.972
379.000	17.335	844.264	631.689
380.015	17.188	844.098	630.965
381.029	17.309	843.018	630.548
382.044	17.497	842.122	630.518
383.059	17.412	841.675	629.815
384.073	17.516	841.002	629.640
385.088	17.472	840.418	628.985
386.102	17.396	840.055	628.374
387.117	17.515	839.438	628.297
388.132	17.420	838.724	627.356
389.146	17.363	838.564	626.971
390.161	17.475	837.905	626.837
391.175	17.532	837.494	626.682
392.190	17.572	836.914	626.341
393.205	17.462	836.542	625.602
394.219	17.430	836.318	625.264
395.234	17.466	835.635	624.829
396.248	17.575	835.488	625.063
397.263	17.434	835.074	624.183
398.278	17.533	834.690	624.200
399.292	17.478	834.009	623.437
400.307	17.345	833.762	622.710
401.321	17.366	833.527	622.557
402.336	17.582	832.481	622.509
403.350	17.379	832.486	621.715
404.365	17.547	831.640	621.640
405.380	17.666	831.147	621.651
406.394	17.671	830.650	621.244
407.409	17.651	829.987	620.621
408.423	17.841	829.761	621.089
409.438	17.864	829.197	620.693
410.453	17.838	828.742	620.205
411.467	17.851	828.128	619.738
412.482	17.861	827.657	619.365
413.496	17.710	828.014	619.030
414.511	17.888	827.269	619.064
415.526	17.739	827.052	618.308
416.540	17.800	826.611	618.145
417.555	17.898	826.152	618.099
418.569	17.847	825.778	617.581
419.584	17.944	824.999	617.294
420.599	18.068	823.860	616.834
421.613	114.962	1301.570	1491.050
422.628	99.816	1371.135	1491.139
