DTS Sentinel unit serial number:	SN413079Multiplexer serial number:	ORYXHardware model number:	OX4-SRSoftware version number:	ORYX F/W v4.00 Oryx Data Collector v3.7.2.0data status	okinstallation	princeton_trtdifferential loss correction	single-endedforward channel	channel 1reverse channel	N/Adate	2019/09/11time	14:00:11forward acquisition time	60.00reverse acquisition time	0.00gamma	496.2192k internal	0.2294k external	0.2294temperature offset calibration	0.9981default loss term (dB/km)	0.3790temperature slope calibration	1.0000multiplexer offset coefficient	1.0000multiplexer slope coefficient	1.0000fibre end	0.00T internal ref (°C)	41.89T ext. ref 1 (°C)	0.86T ext. ref 2 (°C)	37.50length (m)	temperature (°C)	Stokes	anti-Stokes-747.200	800.000	-0.088	-0.315
-746.185	-115.504	-0.271	-0.052
-745.171	-200.000	0.022	0.262
-744.156	-22.481	-0.100	0.062
-743.142	11.291	-0.351	-0.275
-742.127	800.000	-0.034	0.120
-741.112	159.250	-0.218	0.310
-740.098	65.941	0.081	0.084
-739.083	49.031	0.223	-0.215
-738.069	-186.531	0.193	-0.003
-737.054	-117.833	0.242	-0.044
-736.039	-75.869	-0.042	-0.015
-735.025	151.942	0.232	0.323
-734.010	39.194	-0.238	0.218
-732.996	-50.912	0.095	0.046
-731.981	-27.688	-0.106	-0.063
-730.966	800.000	-0.087	-0.264
-729.952	-146.622	0.212	-0.019
-728.937	184.187	-0.017	-0.025
-727.923	82.312	0.014	-0.015
-726.908	-11.902	-0.423	-0.283
-725.894	290.448	0.049	-0.092
-724.879	35.801	-0.238	-0.214
-723.864	-102.578	-0.484	-0.118
-722.850	674.015	0.055	0.146
-721.835	-68.342	-0.109	0.043
-720.821	45.223	-0.164	-0.154
-719.806	-200.000	0.013	-0.187
-718.791	440.393	0.219	-0.489
-717.777	-6.727	0.167	-0.116
-716.762	174.706	-0.054	0.079
-715.748	-143.761	-0.055	0.005
-714.733	-83.633	0.082	0.027
-713.718	-54.601	-0.260	-0.120
-712.704	800.000	-0.062	-0.254
-711.689	-75.436	-0.167	0.061
-710.675	143.826	0.077	-0.105
-709.660	-200.000	0.046	0.291
-708.645	162.492	0.092	-0.131
-707.631	-194.654	0.257	-0.002
-706.616	491.490	-0.131	0.307
-705.602	-70.343	0.210	0.081
-704.587	93.540	-0.139	-0.160
-703.572	-200.000	0.016	-0.139
-702.558	-200.000	-0.015	-0.273
-701.543	52.594	-0.066	0.065
-700.529	-27.975	-0.355	0.210
-699.514	-200.000	-0.064	0.332
-698.499	-115.133	-0.221	0.043
-697.485	-200.000	-0.010	-0.120
-696.470	-107.086	-0.358	0.081
-695.456	-79.921	-0.115	-0.040
-694.441	219.474	0.097	-0.158
-693.426	289.977	0.181	-0.336
-692.412	623.096	-0.103	-0.266
-691.397	-200.000	-0.007	0.099
-690.383	-200.000	-0.002	0.070
-689.368	43.383	0.050	0.047
-688.354	64.999	0.222	0.228
-687.339	436.174	-0.088	-0.196
-686.324	-200.000	0.071	-0.335
-685.310	800.000	-0.073	0.209
-684.295	208.967	-0.145	-0.231
-683.281	79.951	-0.172	0.188
-682.266	-200.000	0.050	0.389
-681.251	-56.276	0.254	0.115
-680.237	66.894	-0.183	-0.191
-679.222	-148.183	0.567	0.048
-678.208	190.706	0.063	-0.097
-677.193	-46.406	-0.123	-0.061
-676.178	11.938	-0.236	0.185
-675.164	-200.000	0.020	0.315
-674.149	53.840	-0.117	-0.115
-673.135	-18.125	-0.175	-0.112
-672.120	8.178	0.206	-0.158
-671.105	467.211	-0.093	-0.212
-670.091	-66.636	0.101	0.041
-669.076	-200.000	-0.021	-0.149
-668.062	-88.883	-0.209	0.063
-667.047	49.868	-0.155	-0.149
-666.032	118.268	-0.201	0.253
-665.018	-200.000	-0.024	0.235
-664.003	195.327	0.034	-0.053
-662.989	66.541	0.130	-0.135
-661.974	-11.495	-0.029	0.019
-660.959	-200.000	-0.036	-0.174
-659.945	800.000	0.020	-0.064
-658.930	504.920	-0.132	-0.312
-657.916	407.365	-0.068	0.146
-656.901	-73.884	-0.221	-0.082
-655.886	410.974	0.031	0.067
-654.872	-200.000	-0.049	0.262
-653.857	151.770	0.100	0.139
-652.843	37.911	-0.202	-0.183
-651.828	143.334	-0.056	0.075
-650.814	69.587	-0.134	0.141
-649.799	-200.000	-0.407	-0.002
-648.784	-23.169	-0.187	0.114
-647.770	800.000	0.131	0.398
-646.755	7.836	-0.069	-0.053
-645.741	325.275	-0.004	0.008
-644.726	-151.406	-0.041	0.003
-643.711	81.677	-0.134	0.148
-642.697	417.506	0.159	0.346
-641.682	-58.870	0.197	0.087
-640.668	-22.423	-0.111	0.069
-639.653	-6.423	0.175	0.122
-638.638	-16.279	-0.235	0.152
-637.624	-28.411	-0.208	0.122
-636.609	430.213	0.035	-0.077
-635.595	-147.151	0.200	-0.017
-634.580	84.004	-0.023	-0.026
-633.565	-200.000	-0.037	-0.237
-632.551	-40.037	0.276	-0.146
-631.536	800.000	-0.052	-0.153
-630.522	9.488	-0.179	0.138
-629.507	623.553	0.097	0.248
-628.492	-10.450	0.090	0.061
-627.478	-110.001	0.418	0.089
-626.463	-34.151	0.235	0.132
-625.449	33.600	0.088	0.078
-624.434	210.041	-0.203	-0.324
-623.419	122.588	-0.194	0.247
-622.405	-143.727	0.237	0.023
-621.390	-3.924	-0.191	0.135
-620.376	800.000	0.101	-0.339
-619.361	-200.000	0.011	0.148
-618.346	800.000	-0.071	-0.293
-617.332	-28.766	-0.061	0.036
-616.317	-200.000	-0.019	0.091
-615.303	158.845	-0.167	0.237
-614.288	-87.798	-0.413	-0.127
-613.273	13.007	0.034	-0.027
-612.259	169.086	0.111	-0.162
-611.244	79.099	-0.116	-0.126
-610.230	-98.504	-0.114	0.030
-609.215	-33.647	0.380	0.213
-608.201	-200.000	0.034	-0.276
-607.186	450.335	-0.091	-0.204
-606.171	-200.000	0.015	-0.126
-605.157	-165.286	-0.211	0.009
-604.142	-99.484	0.110	0.028
-603.128	-200.000	0.036	0.191
-602.113	-47.588	-0.108	0.054
-601.098	800.000	-0.114	0.411
-600.084	29.913	-0.107	-0.093
-599.069	-14.212	-0.178	-0.117
-598.055	-89.378	-0.290	0.087
-597.040	-102.304	-0.471	-0.115
-596.025	432.372	0.125	-0.275
-595.011	800.000	0.118	-0.468
-593.996	-122.575	0.159	0.026
-592.982	800.000	0.051	-0.166
-591.967	-200.000	-0.030	0.194
-590.952	284.541	-0.138	-0.252
-589.938	106.042	0.130	0.156
-588.923	82.293	0.130	-0.144
-587.909	129.564	-0.040	0.051
-586.894	48.819	0.153	-0.146
-585.879	-103.931	0.243	0.058
-584.865	508.624	-0.083	-0.195
-583.850	577.638	-0.142	-0.353
-582.836	-64.762	0.079	-0.033
-581.821	-71.086	-0.210	-0.080
-580.806	-200.000	0.015	0.241
-579.792	123.556	-0.145	0.185
-578.777	800.000	-0.136	-0.382
-577.763	202.482	-0.128	-0.201
-576.748	-52.306	0.071	0.034
-575.733	-200.000	-0.028	-0.225
-574.719	2.730	-0.164	0.121
-573.704	63.174	-0.329	0.335
-572.690	36.115	0.087	-0.078
-571.675	131.107	-0.164	-0.213
-570.661	100.708	-0.344	0.406
-569.646	331.017	0.121	0.237
-568.631	-200.000	0.008	0.214
-567.617	78.950	-0.176	-0.192
-566.602	-0.859	0.150	-0.108
-565.588	96.244	-0.111	0.129
-564.573	-51.610	0.108	0.051
-563.558	183.107	0.157	-0.236
-562.544	-87.311	-0.287	0.089
-561.529	295.476	0.125	-0.232
-560.515	100.197	0.088	0.104
-559.500	-200.000	0.027	0.275
-558.485	800.000	-0.111	0.342
-557.471	-152.211	0.133	-0.010
-556.456	43.124	0.162	0.150
-555.442	800.000	0.154	-0.447
-554.427	24.749	0.031	0.026
-553.412	163.978	-0.088	-0.126
-552.398	-147.938	0.199	-0.017
-551.383	-22.349	0.071	0.044
-550.369	68.181	-0.204	-0.212
-549.354	-82.942	-0.137	-0.045
-548.339	4.671	-0.158	-0.118
-547.325	-192.559	0.301	0.003
-546.310	-70.966	0.104	-0.040
-545.296	80.635	-0.190	-0.207
-544.281	-129.018	0.035	0.005
-543.266	-200.000	-0.008	-0.334
-542.252	56.815	-0.130	0.128
-541.237	800.000	0.149	0.441
-540.223	-105.663	0.212	0.049
-539.208	-98.575	-0.530	0.137
-538.193	769.246	0.102	-0.281
-537.179	800.000	0.060	-0.197
-536.164	15.863	-0.154	0.123
-535.150	-143.028	0.281	0.028
-534.135	-200.000	-0.009	-0.080
-533.121	-200.000	-0.014	-0.134
-532.106	-181.618	-0.205	-0.004
-531.091	-155.605	-0.332	-0.022
-530.077	6.031	-0.200	-0.151
-529.062	-200.000	0.012	-0.074
-528.048	59.679	-0.189	0.189
-527.033	373.877	-0.162	0.335
-526.018	44.633	-0.217	-0.202
-525.004	-199.683	0.255	-0.001
-523.989	-34.418	-0.335	-0.186
-522.975	684.541	-0.071	0.187
-521.960	800.000	-0.055	0.155
-520.945	398.851	-0.135	0.286
-519.931	124.069	0.219	0.279
-518.916	-112.524	0.125	0.025
-517.902	-200.000	0.011	0.210
-516.887	800.000	-0.086	0.254
-515.872	-200.000	0.048	0.251
-514.858	111.106	-0.120	-0.147
-513.843	-121.990	-0.083	-0.014
-512.829	658.226	-0.088	0.231
-511.814	800.000	0.055	-0.204
-510.799	-1.159	0.222	0.159
-509.785	-200.000	0.049	-0.275
-508.770	22.504	0.059	-0.049
-507.756	-184.795	0.296	-0.005
-506.741	37.265	-0.268	0.241
-505.726	293.286	-0.189	-0.350
-504.712	-145.016	-0.239	0.022
-503.697	-22.912	0.065	0.040
-502.683	171.956	0.176	-0.256
-501.668	-51.932	-0.222	0.105
-500.653	240.001	0.063	-0.106
-499.639	166.473	0.118	-0.169
-498.624	-98.278	-0.125	-0.032
-497.610	-130.144	0.336	0.046
-496.595	30.406	-0.407	0.352
-495.581	-200.000	0.037	-0.232
-494.566	-103.717	0.204	-0.049
-493.551	-200.000	-0.030	0.188
-492.537	-200.000	-0.034	-0.289
-491.522	-187.096	0.543	0.008
-490.508	-200.000	-0.035	0.233
-489.493	800.000	-0.057	-0.235
-488.478	139.965	-0.104	-0.139
-487.464	-72.350	0.412	-0.154
-486.449	-200.000	0.014	0.337
-485.435	-176.956	-0.321	-0.008
-484.420	-114.906	0.361	0.070
-483.405	99.687	0.085	0.100
-482.391	-117.016	0.227	0.042
-481.376	585.900	0.077	-0.191
-480.362	-0.794	-0.048	0.034
-479.347	800.000	0.106	0.301
-478.332	254.708	0.092	-0.160
-477.318	-200.000	0.005	-0.121
-476.303	159.332	-0.125	0.176
-475.289	-200.000	-0.002	-0.152
-474.274	800.000	-0.097	0.317
-473.259	-200.000	0.023	0.111
-472.245	60.637	0.117	-0.118
-471.230	61.301	-0.055	-0.055
-470.216	800.000	-0.064	-0.217
-469.201	-129.610	-0.119	0.017
-468.186	-24.721	0.159	-0.096
-467.172	391.693	0.060	0.126
-466.157	-200.000	-0.072	-0.484
-465.143	95.026	0.032	-0.036
-464.128	-41.645	-0.213	-0.111
-463.113	7.958	0.098	0.074
-462.099	31.599	-0.147	0.128
-461.084	264.935	0.140	-0.246
-460.070	208.100	-0.220	0.348
-459.055	-119.392	-0.119	0.021
-458.040	800.000	0.105	0.426
-457.026	-95.284	0.096	0.026
-456.011	79.472	0.119	-0.129
-454.997	-170.667	0.098	-0.003
-453.982	-160.676	0.144	0.008
-452.968	-2.259	0.263	-0.187
-451.953	-119.371	0.226	0.040
-450.938	-200.000	0.040	-0.181
-449.924	-200.000	0.002	0.232
-448.909	268.308	0.226	0.401
-447.895	-96.838	-0.281	-0.075
-446.880	-107.993	0.248	0.054
-445.865	-120.492	-0.185	0.032
-444.851	-151.692	0.152	-0.011
-443.836	98.514	0.157	-0.183
-442.822	-42.276	-0.152	-0.078
-441.807	-104.175	-0.139	-0.033
-440.792	-125.384	-0.264	-0.041
-439.778	-70.735	0.415	-0.158
-438.763	-48.443	-0.093	-0.045
-437.749	800.000	0.059	0.188
-436.734	-28.517	-0.110	0.064
-435.719	35.701	0.214	0.190
-434.705	-200.000	-0.002	-0.014
-433.690	-114.219	0.189	0.037
-432.676	-37.681	0.307	0.165
-431.661	3.926	-0.102	-0.076
-430.646	-119.678	-0.119	0.021
-429.632	358.152	-0.092	-0.186
-428.617	-200.000	0.001	0.184
-427.603	147.832	0.135	-0.183
-426.588	-52.819	0.243	0.113
-425.573	43.040	0.150	0.139
-424.559	-149.150	-0.145	0.012
-423.544	13.977	0.175	0.138
-422.530	-14.360	-0.398	-0.259
-421.515	86.155	0.152	-0.169
-420.500	-89.864	0.157	-0.046
-419.486	-118.059	-0.081	-0.015
-418.471	302.661	0.126	-0.236
-417.457	205.942	0.149	-0.234
-416.442	19.011	-0.317	-0.257
-415.428	120.904	-0.174	0.219
-414.413	-96.945	0.262	-0.069
-413.398	47.065	-0.066	0.062
-412.384	-146.076	0.513	-0.046
-411.369	-80.376	0.387	-0.130
-410.355	800.000	0.005	0.015
-409.340	-29.481	0.086	-0.049
-408.325	30.092	0.151	-0.130
-407.311	153.750	0.185	-0.256
-406.296	800.000	-0.022	-0.080
-405.282	39.776	0.258	0.233
-404.267	-200.000	-0.038	0.264
-403.252	145.910	0.057	0.077
-402.238	-70.446	0.391	-0.150
-401.223	84.013	-0.066	-0.073
-400.209	15.343	0.345	0.273
-399.194	-84.088	0.205	0.066
-398.179	-29.497	-0.070	-0.040
-397.165	-181.991	-0.061	-0.001
-396.150	115.944	-0.118	-0.145
-395.136	-94.659	0.006	-0.002
-394.121	-143.265	-0.471	0.046
-393.106	-200.000	-0.004	-0.454
-392.092	33.646	-0.222	-0.195
-391.077	-52.996	0.111	-0.052
-390.063	479.011	0.122	0.280
-389.048	662.731	-0.115	0.299
-388.033	35.040	0.196	0.173
-387.019	330.011	-0.147	-0.286
-386.004	-115.919	0.259	0.049
-384.990	574.919	-0.109	0.269
-383.975	91.238	0.151	-0.171
-382.960	-130.066	-0.182	-0.025
-381.946	-123.589	-0.225	-0.036
-380.931	346.989	-0.063	-0.125
-379.917	-200.000	-0.038	-0.258
-378.902	245.085	-0.083	-0.141
-377.888	20.623	0.265	0.216
-376.873	274.997	-0.093	-0.166
-375.858	288.651	0.242	-0.442
-374.844	-200.000	0.016	-0.213
-373.829	18.927	0.171	0.138
-372.815	-140.607	0.105	0.011
-371.800	375.047	0.291	0.598
-370.785	490.020	-0.059	-0.135
-369.771	-165.599	0.233	0.010
-368.756	770.794	0.109	0.298
-367.742	-88.765	0.011	0.003
-366.727	-200.000	-0.021	0.178
-365.712	-40.620	-0.221	0.116
-364.698	105.009	0.085	-0.101
-363.683	-65.430	0.137	-0.056
-362.669	438.831	-0.181	0.398
-361.654	800.000	-0.084	0.237
-360.639	-32.048	0.263	-0.148
-359.625	-200.000	-0.079	-0.448
-358.610	32.894	-0.175	-0.152
-357.596	8.920	-0.107	0.081
-356.581	33.111	-0.086	-0.075
-355.566	169.844	-0.142	0.204
-354.552	65.905	-0.151	-0.154
-353.537	217.951	-0.097	0.157
-352.523	-33.303	0.257	-0.143
-351.508	-200.000	0.011	0.241
-350.493	381.104	0.089	-0.185
-349.479	50.398	-0.091	0.086
-348.464	-200.000	0.008	-0.250
-347.450	-22.773	-0.256	-0.156
-346.435	387.107	0.115	0.238
-345.420	-65.947	0.171	0.069
-344.406	2.962	-0.397	-0.290
-343.391	-25.601	-0.148	0.088
-342.377	59.582	-0.106	0.105
-341.362	-200.000	-0.002	-0.206
-340.348	128.172	-0.064	-0.082
-339.333	425.215	0.079	0.171
-338.318	280.014	-0.084	-0.150
-337.304	-200.000	0.010	0.146
-336.289	-50.221	-0.308	0.147
-335.275	315.859	-0.138	0.261
-334.260	259.609	0.141	0.245
-333.245	-39.456	0.042	-0.022
-332.231	95.534	-0.178	-0.205
-331.216	-37.909	0.301	0.161
-330.202	800.000	0.048	0.134
-329.187	390.020	0.108	0.226
-328.172	-134.186	0.335	-0.042
-327.158	-105.648	0.287	-0.065
-326.143	7.840	0.335	0.253
-325.129	800.000	0.056	0.198
-324.114	138.269	0.034	-0.045
-323.099	-24.721	0.056	0.033
-322.085	-83.561	-0.284	-0.091
-321.070	-128.705	-0.131	0.019
-320.056	-86.346	0.037	-0.012
-319.041	58.147	-0.071	-0.070
-318.026	-108.242	-0.240	0.052
-317.012	-200.000	-0.018	-0.135
-315.997	-104.076	0.412	-0.097
-314.983	278.910	-0.071	-0.128
-313.968	121.741	0.014	-0.018
-312.953	-78.966	-0.030	0.010
-311.939	267.986	-0.110	-0.194
-310.924	-99.915	-0.127	0.032
-309.910	-144.450	-0.417	0.039
-308.895	-200.000	0.007	0.040
-307.880	-146.481	-0.396	0.035
-306.866	-200.000	-0.065	-0.424
-305.851	170.564	0.048	0.070
-304.837	-90.710	-0.142	-0.041
-303.822	-200.000	0.027	0.394
-302.807	136.855	0.227	-0.298
-301.793	-200.000	0.028	0.153
-300.778	185.463	-0.040	-0.060
-299.764	81.072	0.101	-0.110
-298.749	3.420	-0.197	-0.144
-297.735	-107.772	-0.100	0.022
-296.720	-200.000	-0.049	0.235
-295.705	250.927	0.129	0.221
-294.691	-21.026	-0.132	0.081
-293.676	91.337	0.422	0.476
-292.662	-44.728	0.367	-0.184
-291.647	-200.000	-0.002	-0.082
-290.632	-47.700	0.360	-0.175
-289.618	-200.000	-0.025	0.204
-288.603	-76.207	0.249	-0.088
-287.589	-52.493	-0.092	0.043
-286.574	-166.294	-0.291	-0.012
-285.559	162.177	0.165	-0.232
-284.545	-154.320	0.318	0.021
-283.530	800.000	0.090	0.268
-282.516	800.000	-0.049	-0.165
-281.501	-168.205	-0.229	0.009
-280.486	55.242	-0.151	0.146
-279.472	4.950	0.174	0.129
-278.457	-27.832	0.137	0.080
-277.443	48.331	-0.218	0.205
-276.428	205.507	-0.079	-0.123
-275.413	-31.770	-0.334	-0.188
-274.399	-67.646	0.404	-0.159
-273.384	-68.819	-0.299	-0.116
-272.370	-36.717	0.088	-0.047
-271.355	799.748	-0.040	-0.110
-270.340	-20.715	0.137	0.085
-269.326	-200.000	0.013	-0.178
-268.311	746.457	0.107	-0.290
-267.297	696.632	-0.023	-0.060
-266.282	-20.344	-0.255	-0.157
-265.267	189.753	0.045	-0.067
-264.253	-1.108	-0.205	-0.145
-263.238	101.849	-0.064	0.075
-262.224	-1.630	-0.162	-0.114
-261.209	-27.897	-0.203	0.118
-260.195	87.285	-0.213	0.236
-259.180	-200.000	-0.018	0.304
-258.165	-200.000	0.004	0.375
-257.151	-161.370	-0.275	0.014
-256.136	800.000	-0.072	-0.216
-255.122	105.153	0.042	-0.050
-254.107	-168.169	-0.247	0.010
-253.092	800.000	-0.094	-0.326
-252.078	-127.021	-0.216	0.032
-251.063	-53.670	0.280	0.128
-250.049	-200.000	0.006	-0.092
-249.034	250.802	-0.076	0.129
-248.019	800.000	0.073	-0.205
-247.005	-200.000	-0.029	0.381
-245.990	239.927	-0.144	-0.241
-244.976	641.840	0.097	0.248
-243.961	-55.231	0.052	-0.023
-242.946	-106.890	0.311	0.069
-241.932	-19.465	-0.238	-0.148
-240.917	-33.160	-0.325	0.180
-239.903	202.962	-0.112	-0.174
-238.888	3.717	0.433	0.317
-237.873	742.810	-0.094	0.254
-236.859	-200.000	-0.000	0.041
-235.844	39.848	-0.213	0.191
-234.830	-159.260	0.150	0.008
-233.815	38.138	0.119	-0.106
-232.800	-61.661	-0.225	-0.095
-231.786	-200.000	-0.033	-0.303
-230.771	139.827	0.184	-0.243
-229.757	43.820	-0.277	0.254
-228.742	-200.000	-0.022	-0.173
-227.727	91.318	-0.132	0.149
-226.713	-7.189	-0.210	-0.143
-225.698	-8.779	-0.302	0.203
-224.684	231.210	-0.141	-0.231
-223.669	-72.026	-0.246	-0.092
-222.655	2.625	0.075	0.055
-221.640	-200.000	0.042	0.237
-220.625	800.000	0.077	-0.233
-219.611	-160.515	0.286	-0.015
-218.596	-121.400	0.220	-0.037
-217.582	800.000	-0.034	0.135
-216.567	-200.000	-0.044	0.354
-215.552	388.209	-0.097	0.201
-214.538	101.983	-0.067	0.079
-213.523	800.000	-0.094	0.301
-212.509	189.212	-0.071	0.107
-211.494	-200.000	-0.005	-0.237
-210.479	-200.000	-0.020	-0.127
-209.465	-107.116	-0.144	0.032
-208.450	-12.185	0.300	0.197
-207.436	562.456	0.033	0.079
-206.421	12.378	-0.249	-0.192
-205.406	-167.116	0.309	0.013
-204.392	-200.000	-0.027	0.126
-203.377	-200.000	-0.028	0.333
-202.363	-21.341	0.220	0.134
-201.348	637.893	0.067	0.170
-200.333	581.968	-0.097	-0.238
-199.319	101.681	0.171	-0.200
-198.304	187.939	0.122	-0.182
-197.290	-81.356	-0.185	-0.061
-196.275	166.491	0.077	0.109
-195.260	-200.000	-0.048	-0.418
-194.246	234.983	0.116	0.191
-193.231	-30.793	-0.258	0.146
-192.217	-200.000	0.036	0.510
-191.202	-170.270	-0.270	-0.010
-190.187	-200.000	-0.018	0.124
-189.173	482.977	0.061	-0.138
-188.158	82.818	0.200	0.217
-187.144	-70.239	-0.370	0.140
-186.129	-200.000	-0.056	-0.311
-185.114	-200.000	-0.002	0.058
-184.100	-1.499	-0.121	-0.085
-183.085	221.409	-0.041	0.066
-182.071	177.187	0.131	-0.190
-181.056	-94.201	-0.113	-0.031
-180.042	-200.000	-0.051	-0.249
-179.027	-200.000	0.001	0.028
-178.012	-7.497	0.109	0.074
-176.998	-18.310	-0.100	-0.063
-175.983	-112.262	-0.218	0.044
-174.969	-88.260	0.297	0.089
-173.954	325.216	0.150	-0.287
-172.939	-200.000	0.013	-0.193
-171.925	-185.268	0.173	0.003
-170.910	-200.000	0.006	-0.139
-169.896	13.433	-0.066	0.051
-168.881	-44.794	0.154	-0.077
-167.866	79.022	-0.182	-0.195
-166.852	127.506	-0.066	-0.084
-165.837	-156.949	-0.157	-0.010
-164.823	46.396	0.120	-0.111
-163.808	199.699	0.197	0.301
-162.793	-62.156	-0.057	-0.024
-161.779	-19.390	-0.220	-0.136
-160.764	-125.205	-0.185	-0.028
-159.750	5.998	0.327	-0.242
-158.735	-120.481	0.280	-0.048
-157.720	-113.563	0.263	-0.051
-156.706	96.285	0.014	-0.016
-155.691	-200.000	0.018	0.105
-154.677	-107.900	0.186	0.040
-153.662	-200.000	-0.064	-0.395
-152.647	-200.000	0.020	-0.097
-151.633	-44.223	0.539	0.270
-150.618	-103.180	-0.316	0.075
-149.604	-119.655	-0.255	-0.044
-148.589	800.000	0.025	-0.099
-147.574	102.112	-0.044	0.052
-146.560	-158.645	-0.152	0.009
-145.545	-160.866	-0.025	-0.001
-144.531	233.470	-0.315	-0.518
-143.516	-200.000	0.025	-0.140
-142.502	-40.282	-0.172	0.089
-141.487	-148.595	-0.120	-0.010
-140.472	281.039	0.007	-0.013
-139.458	-11.678	-0.229	0.150
-138.443	-170.107	0.059	-0.002
-137.429	-56.221	0.360	0.160
-136.414	-155.731	-0.244	-0.016
-135.399	217.514	-0.142	-0.226
-134.385	-200.000	-0.005	-0.229
-133.370	-30.871	-0.135	0.076
-132.356	-1.637	-0.102	0.072
-131.341	-93.248	-0.369	-0.102
-130.326	56.323	-0.101	0.098
-129.312	-169.884	-0.397	-0.014
-128.297	-67.388	-0.120	-0.047
-127.283	89.359	-0.268	-0.298
-126.268	-68.929	-0.064	0.025
-125.253	-33.060	0.371	0.205
-124.239	-200.000	-0.059	0.356
-123.224	-43.183	-0.237	-0.120
-122.210	647.581	0.155	0.395
-121.195	-124.025	-0.210	-0.033
-120.180	-36.752	0.098	-0.052
-119.166	-200.000	-0.011	0.159
-118.151	-109.686	-0.358	-0.075
-117.137	-96.086	-0.163	0.043
-116.122	-93.800	-0.217	-0.060
-115.107	-200.000	-0.007	0.242
-114.093	-16.381	0.181	0.115
-113.078	522.521	0.087	0.203
-112.064	-200.000	-0.014	0.217
-111.049	-71.698	-0.180	-0.067
-110.034	-109.746	0.179	0.038
-109.020	800.000	0.141	0.403
-108.005	800.000	-0.142	0.402
-106.991	-63.847	-0.391	0.160
-105.976	-200.000	0.007	-0.073
-104.962	183.190	0.052	-0.076
-103.947	-149.508	-0.285	0.023
-102.932	-88.091	0.100	-0.030
-101.918	-65.281	0.120	0.048
-100.903	306.589	-0.091	0.170
-99.889	190.306	0.137	0.205
-98.874	-184.221	-0.127	0.002
-97.859	-16.028	-0.148	-0.094
-96.845	-121.490	-0.259	0.043
-95.830	-200.000	0.004	0.096
-94.816	164.570	0.119	0.167
-93.801	-95.116	0.136	-0.037
-92.786	14.303	-0.123	-0.096
-91.772	-92.722	0.101	0.028
-90.757	464.501	-0.083	0.184
-89.743	544.688	0.020	-0.048
-88.728	-0.326	-0.120	-0.085
-87.713	112.163	-0.074	-0.089
-86.699	-24.413	0.449	-0.267
-85.684	800.000	-0.032	0.131
-84.670	86.753	-0.052	-0.057
-83.655	142.545	-0.050	-0.067
-82.640	-196.743	-0.092	0.001
-81.626	-29.208	-0.245	0.140
-80.611	-200.000	0.021	0.134
-79.597	413.008	0.108	-0.229
-78.582	800.000	0.067	-0.233
-77.567	-63.280	-0.193	0.079
-76.553	-128.029	0.310	0.044
-75.538	106.373	0.125	0.147
-74.524	-200.000	0.035	0.235
-73.509	-125.791	0.493	0.074
-72.494	33.878	-0.103	0.089
-71.480	-85.921	-0.120	0.037
-70.465	-117.784	0.354	0.063
-69.451	83.621	0.278	-0.302
-68.436	394.371	0.050	-0.103
-67.422	798.524	-0.124	0.340
-66.407	454.724	0.065	0.143
-65.392	32.527	-0.190	0.163
-64.378	-71.980	0.297	0.110
-63.363	45.743	0.045	0.041
-62.349	35.027	0.187	0.164
-61.334	80.640	-0.710	-0.762
-60.319	-96.533	0.471	0.124
-59.305	800.000	-0.212	-0.815
-58.290	367.962	0.454	0.914
-57.276	800.000	0.394	1.259
-56.261	-200.000	75.911	525.009
-55.246	549.211	1308.024	3120.744
-54.232	146.587	2547.050	3406.356
-53.217	120.037	2229.735	2753.086
-52.203	54.409	1670.146	1601.360
-51.188	45.875	1389.797	1279.584
-50.173	42.141	1343.201	1214.064
-49.159	60.468	1378.071	1358.013
-48.144	68.027	1396.547	1422.267
-47.130	46.317	1358.583	1253.343
-46.115	42.165	1342.245	1213.156
-45.100	41.930	1337.597	1207.484
-44.086	41.729	1335.189	1204.056
-43.071	41.721	1332.988	1201.970
-42.057	41.727	1330.399	1199.624
-41.042	41.731	1328.353	1197.756
-40.027	41.829	1327.440	1197.472
-39.013	41.741	1325.376	1195.035
-37.998	41.739	1323.829	1193.584
-36.984	41.842	1321.673	1192.205
-35.969	41.933	1319.812	1191.023
-34.954	41.931	1318.257	1189.561
-33.940	41.959	1316.637	1188.221
-32.925	41.936	1315.148	1186.689
-31.911	41.990	1313.867	1185.804
-30.896	41.957	1312.228	1184.083
-29.881	42.018	1310.490	1182.832
-28.867	41.923	1309.358	1181.200
-27.852	42.003	1307.657	1180.092
-26.838	42.051	1306.310	1179.113
-25.823	41.984	1305.025	1177.513
-24.809	41.975	1303.435	1175.977
-23.794	41.878	1302.065	1174.122
-22.779	41.991	1300.488	1173.317
-21.765	42.070	1299.126	1172.507
-20.750	42.085	1298.009	1171.539
-19.736	41.959	1296.509	1169.402
-18.721	41.908	1295.474	1168.125
-17.706	41.811	1294.443	1166.584
-16.692	41.855	1292.973	1165.466
-15.677	41.851	1292.009	1164.530
-14.663	41.852	1290.991	1163.573
-13.648	41.787	1289.513	1161.813
-12.633	41.828	1288.492	1161.087
-11.619	41.821	1287.738	1160.321
-10.604	41.775	1287.255	1159.574
-9.590	41.842	1285.649	1158.470
-8.575	41.889	1284.751	1157.887
-7.560	41.884	1283.590	1156.767
-6.546	41.755	1283.056	1155.490
-5.531	41.711	1281.822	1154.080
-4.517	41.844	1281.148	1154.194
-3.502	41.880	1280.190	1153.497
-2.487	41.871	1279.199	1152.506
-1.473	41.859	1275.927	1149.443
-0.458	41.044	1261.158	1131.456
0.556	36.395	1241.587	1091.534
1.571	32.555	1245.188	1072.780
2.586	31.515	1260.260	1079.672
3.600	29.900	1248.980	1060.663
4.615	21.002	1170.596	945.975
5.629	7.463	1084.682	807.957
6.644	1.307	1059.911	758.740
7.659	0.750	1057.087	753.872
8.673	0.724	1055.710	752.692
9.688	0.661	1054.285	751.300
10.702	1.115	1053.826	753.161
11.717	8.909	1065.544	800.507
12.731	20.017	1081.407	868.347
13.746	23.498	1084.304	888.062
14.761	23.047	1084.123	885.572
15.775	22.892	1083.168	883.941
16.790	22.826	1082.556	883.033
17.804	22.761	1081.798	882.011
18.819	22.962	1080.816	882.138
19.834	22.902	1080.802	881.749
20.848	22.903	1080.577	881.490
21.863	22.787	1080.171	880.503
22.877	22.926	1079.262	880.376
23.892	22.852	1078.500	879.309
24.907	22.852	1077.971	878.797
25.921	22.830	1076.578	877.477
26.936	22.834	1075.539	876.570
27.950	22.815	1073.755	874.948
28.965	22.714	1071.545	872.566
29.980	22.844	1070.015	871.890
30.994	22.989	1069.149	871.822
32.009	22.922	1068.460	870.850
33.023	22.703	1067.200	868.669
34.038	22.869	1066.700	869.000
35.053	22.929	1065.910	868.575
36.067	23.040	1064.869	868.195
37.082	23.023	1064.392	867.648
38.096	23.171	1063.401	867.490
39.111	23.211	1062.606	866.958
40.126	23.049	1061.244	864.980
41.140	22.619	1059.878	861.690
42.155	22.339	1058.259	858.928
43.169	22.555	1057.077	858.946
44.184	22.480	1056.727	858.220
45.199	22.404	1055.437	856.726
46.213	22.621	1054.045	856.574
47.228	22.693	1053.577	856.471
48.242	22.672	1052.938	855.770
49.257	22.841	1052.353	856.043
50.271	22.905	1051.767	855.799
51.286	22.957	1050.411	854.869
52.301	22.959	1049.353	853.941
53.315	22.948	1048.331	852.986
54.330	22.774	1047.547	851.432
55.344	22.830	1046.814	851.028
56.359	22.808	1045.986	850.177
57.374	22.759	1044.795	848.895
58.388	22.656	1044.394	848.000
59.403	22.586	1043.259	846.668
60.417	22.495	1042.343	845.415
61.432	22.558	1041.947	845.319
62.447	22.635	1041.128	844.947
63.461	22.685	1040.485	844.590
64.476	22.713	1039.410	843.778
65.490	22.642	1038.261	842.432
66.505	22.784	1037.722	842.598
67.520	22.695	1037.335	841.784
68.534	22.496	1035.994	839.672
69.549	22.177	1034.914	837.202
70.563	22.294	1033.820	836.803
71.578	22.196	1033.204	835.764
72.593	21.988	1032.102	833.811
73.607	22.149	1031.861	834.304
74.622	22.461	1031.763	835.632
75.636	22.564	1030.635	835.134
76.651	22.339	1029.695	833.232
77.666	22.325	1029.049	832.570
78.680	22.301	1028.460	831.906
79.695	22.525	1027.399	832.035
80.709	22.556	1026.740	831.573
81.724	22.471	1026.290	830.730
82.739	22.515	1025.479	830.208
83.753	22.778	1024.829	830.850
84.768	23.111	1024.095	831.744
85.782	23.302	1023.003	831.685
86.797	23.148	1021.787	829.898
87.812	22.914	1021.034	828.115
88.826	23.013	1020.383	827.978
89.841	23.122	1019.515	827.711
90.855	23.182	1018.456	827.059
91.870	23.085	1017.315	825.608
92.884	23.019	1016.179	824.303
93.899	22.992	1015.501	823.557
94.914	23.057	1014.318	822.823
95.928	23.029	1013.191	821.706
96.943	22.831	1012.019	819.767
97.957	22.596	1010.868	817.670
98.972	22.390	1009.736	815.729
99.987	22.698	1008.974	816.468
101.001	22.858	1008.455	816.715
102.016	22.927	1007.301	816.029
103.030	22.735	1006.427	814.358
104.045	22.542	1005.793	812.885
105.060	22.462	1005.053	811.844
106.074	22.498	1004.237	811.280
107.089	22.992	1003.416	812.819
108.103	22.856	1002.286	811.206
109.118	22.666	1000.958	809.186
110.133	22.756	999.866	808.644
111.147	22.508	998.773	806.557
112.162	22.305	997.791	804.762
113.176	22.397	997.785	805.109
114.191	22.575	996.104	804.492
115.206	22.184	994.980	801.729
116.220	22.210	994.732	801.577
117.235	22.427	993.391	801.412
118.249	22.245	993.178	800.343
119.264	22.315	992.094	799.718
120.279	22.278	991.378	798.900
121.293	22.368	990.587	798.602
122.308	22.368	989.993	798.050
123.322	22.292	988.429	796.377
124.337	22.151	987.864	795.214
125.352	21.803	985.680	791.814
126.366	21.637	984.727	790.227
127.381	22.455	984.623	793.765
128.395	22.836	984.429	795.255
129.410	22.945	983.329	794.787
130.424	22.919	982.319	793.781
131.439	22.931	981.356	792.988
132.454	22.964	980.199	792.129
133.468	22.948	979.510	791.431
134.483	23.045	978.748	791.180
135.497	23.159	978.344	791.291
136.512	23.205	977.319	790.599
137.527	23.183	976.698	789.929
138.541	23.176	976.032	789.290
139.556	23.185	974.993	788.421
140.570	23.248	973.978	787.809
141.585	23.365	973.114	787.560
142.600	23.143	972.161	785.735
143.614	23.352	971.860	786.348
144.629	23.595	971.009	786.667
145.643	23.431	969.488	784.641
146.658	23.172	968.435	782.574
147.673	23.137	967.209	781.360
148.687	22.992	966.104	779.755
149.702	22.964	964.850	778.552
150.716	22.953	963.819	777.602
151.731	23.034	963.401	777.555
152.746	23.259	962.648	777.867
153.760	23.204	962.713	777.610
154.775	23.384	961.789	777.583
155.789	23.334	960.382	776.156
156.804	23.269	959.705	775.260
157.819	23.407	958.769	775.038
158.833	23.412	958.385	774.677
159.848	23.388	957.298	773.627
160.862	23.281	955.935	771.990
161.877	23.322	955.066	771.399
162.892	23.317	954.573	770.913
163.906	23.323	952.907	769.524
164.921	23.159	952.475	768.392
165.935	23.256	951.362	767.848
166.950	23.392	950.343	767.549
167.964	23.329	949.743	766.722
168.979	23.114	948.895	765.040
169.994	23.003	947.930	763.713
171.008	23.473	947.063	764.980
172.023	23.387	946.391	763.997
173.037	23.083	945.579	761.963
174.052	23.103	943.960	760.679
175.067	23.071	943.746	760.302
176.081	23.137	943.589	760.389
177.096	23.142	942.604	759.549
178.110	22.723	941.964	757.169
179.125	22.701	940.698	755.991
180.140	22.689	940.088	755.382
181.154	22.830	940.177	755.989
182.169	23.133	940.340	757.354
183.183	23.374	939.779	757.866
184.198	23.242	938.712	756.375
185.213	23.161	937.835	755.255
186.227	23.366	937.221	755.565
187.242	23.159	936.544	754.073
188.256	23.371	935.764	754.279
189.271	23.384	935.132	753.759
190.286	23.083	934.134	751.610
191.300	22.439	932.544	747.528
192.315	21.859	931.344	744.041
193.329	21.653	930.752	742.629
194.344	22.541	930.976	746.508
195.359	23.074	931.023	748.738
196.373	23.355	930.506	749.445
197.388	23.144	929.689	747.827
198.402	23.111	929.130	747.169
199.417	23.153	928.776	746.996
200.432	22.963	927.267	744.917
201.446	22.864	926.395	743.733
202.461	22.777	926.084	743.052
203.475	22.022	923.964	738.113
204.490	21.324	922.548	733.987
205.504	22.208	922.833	737.861
206.519	22.844	923.088	740.666
207.534	22.836	922.691	740.250
208.548	23.217	922.552	741.670
209.563	23.096	921.150	739.972
210.577	23.022	921.035	739.502
211.592	23.367	920.865	740.744
212.607	23.173	920.434	739.520
213.621	23.430	919.229	739.562
214.636	23.423	918.359	738.763
215.650	23.300	917.900	737.819
216.665	23.459	916.817	737.544
217.680	23.405	915.803	736.440
218.694	22.929	915.305	733.996
219.709	22.847	914.305	732.790
220.723	23.092	914.344	733.772
221.738	23.216	912.876	733.041
222.753	23.051	912.890	732.305
223.767	23.286	912.507	732.905
224.782	23.473	911.665	732.938
225.796	23.407	911.394	732.382
226.811	22.690	909.984	728.224
227.826	22.145	908.413	724.655
228.840	22.362	908.261	725.365
229.855	22.345	907.535	724.652
230.869	22.086	906.395	722.613
231.884	22.589	906.329	724.562
232.899	23.214	906.720	727.383
233.913	23.058	905.817	725.955
234.928	23.091	905.483	725.755
235.942	23.002	904.846	724.817
236.957	22.742	903.790	722.842
237.972	22.889	902.750	722.548
238.986	22.914	902.494	722.381
240.001	22.869	902.056	721.780
241.015	23.009	901.541	721.879
242.030	23.089	901.225	721.885
243.045	23.259	900.634	722.046
244.059	23.289	900.136	721.703
245.074	23.136	898.864	719.996
246.088	22.861	898.130	718.228
247.103	23.080	897.484	718.538
248.117	23.660	897.743	721.038
249.132	23.910	897.248	721.588
250.147	23.952	897.031	721.522
251.161	23.974	896.710	721.289
252.176	23.941	895.512	720.127
253.190	24.210	895.268	720.956
254.205	24.260	894.664	720.608
255.220	24.141	893.857	719.415
256.234	24.026	893.072	718.253
257.249	24.075	892.004	717.530
258.263	24.049	891.547	716.993
259.278	23.996	891.297	716.515
260.293	24.134	890.518	716.383
261.307	24.018	889.853	715.316
262.322	23.925	888.832	714.058
263.336	23.088	887.064	709.219
264.351	22.029	885.314	703.517
265.366	22.191	884.836	703.726
266.380	23.037	885.851	707.860
267.395	23.602	885.641	709.890
268.409	23.641	884.586	709.137
269.424	23.810	884.467	709.651
270.439	23.889	883.536	709.160
271.453	23.875	883.129	708.715
272.468	24.109	882.217	708.848
273.482	24.284	881.988	709.299
274.497	23.678	880.999	706.033
275.512	23.479	879.926	704.320
276.526	23.692	880.075	705.223
277.541	23.990	879.429	705.824
278.555	23.637	878.821	703.876
279.570	23.623	877.664	702.831
280.585	23.751	877.203	702.907
281.599	23.685	876.277	701.841
282.614	23.299	875.112	699.320
283.628	23.157	874.433	698.157
284.643	23.588	874.156	699.575
285.657	23.106	873.387	696.996
286.672	22.831	872.489	695.136
287.687	23.452	872.365	697.420
288.701	23.519	871.831	697.194
289.716	23.264	870.659	695.197
290.730	22.977	870.630	693.984
291.745	22.893	869.493	692.687
292.760	23.162	869.241	693.479
293.774	24.120	869.831	697.641
294.789	24.479	869.524	698.740
295.803	24.462	868.911	698.119
296.818	24.401	868.542	697.521
297.833	24.089	867.193	695.160
298.847	23.977	866.394	694.022
299.862	24.197	866.264	694.713
300.876	24.443	865.833	695.264
301.891	24.391	865.135	694.440
302.906	23.990	864.294	692.143
303.920	24.159	863.933	692.450
304.935	24.492	863.272	693.154
305.949	24.342	862.875	692.189
306.964	24.156	861.913	690.635
307.979	24.250	861.969	690.985
308.993	24.479	861.657	691.561
310.008	24.627	860.677	691.286
311.022	24.196	859.985	689.002
312.037	24.093	859.660	688.283
313.052	23.852	858.669	686.496
314.066	23.174	856.866	682.383
315.081	22.811	856.297	680.469
316.095	23.561	856.746	683.657
317.110	24.092	856.447	685.403
318.125	23.218	855.160	680.951
319.139	22.254	853.371	675.766
320.154	22.192	853.087	675.242
321.168	22.954	853.939	678.783
322.183	23.742	853.538	681.430
323.197	23.952	853.281	681.970
324.212	24.153	852.674	682.195
325.227	24.271	852.253	682.248
326.241	24.041	851.867	681.001
327.256	23.973	851.108	680.073
328.270	23.866	850.534	679.145
329.285	23.779	849.307	677.773
330.300	23.486	848.649	676.071
331.314	23.744	848.399	676.797
332.329	24.181	848.248	678.279
333.343	24.398	848.028	678.867
334.358	24.453	847.329	678.460
335.373	24.429	847.115	678.135
336.387	24.626	847.258	678.940
337.402	24.754	847.199	679.319
338.416	24.550	847.056	678.370
339.431	24.703	846.237	678.234
340.446	25.042	845.462	678.837
341.460	24.769	845.302	677.611
342.475	24.510	844.980	676.314
343.489	24.722	844.466	676.646
344.504	24.894	844.401	677.184
345.519	25.173	843.850	677.739
346.533	25.144	843.512	677.295
347.548	25.227	842.686	676.886
348.562	25.021	842.248	675.698
349.577	25.042	841.479	675.101
350.592	24.922	841.054	674.249
351.606	25.057	840.130	673.957
352.621	24.765	839.681	672.438
353.635	24.783	838.507	671.506
354.650	24.223	837.153	668.263
355.665	23.318	835.309	663.346
356.679	23.641	835.238	664.436
357.694	24.204	834.944	666.251
358.708	24.129	834.389	665.470
359.723	24.475	834.408	666.716
360.738	24.765	833.727	667.196
361.752	24.762	833.895	667.260
362.767	25.047	833.352	667.831
363.781	25.250	833.053	668.285
364.796	25.449	832.558	668.569
365.810	25.482	832.328	668.449
366.825	25.315	831.765	667.318
367.840	25.085	830.799	665.630
368.854	24.610	829.976	663.150
369.869	24.787	829.163	663.097
370.883	24.876	829.251	663.439
371.898	24.671	828.602	662.101
372.913	24.646	828.322	661.727
373.927	24.903	827.759	662.167
374.942	25.119	827.087	662.370
375.956	25.214	826.904	662.517
376.971	25.259	826.678	662.444
377.986	25.450	826.414	662.877
379.000	25.358	825.750	661.948
380.015	25.288	825.027	661.053
381.029	25.375	824.322	660.747
382.044	25.248	824.266	660.178
383.059	25.374	823.534	659.996
384.073	25.432	822.924	659.660
385.088	25.379	822.654	659.193
386.102	25.229	821.297	657.496
387.117	25.063	821.084	656.659
388.132	24.752	820.232	654.781
389.146	24.279	818.784	651.840
390.161	24.488	819.391	653.029
391.175	25.097	819.003	654.888
392.190	24.801	817.842	652.823
393.205	23.572	815.506	646.425
394.219	22.056	813.806	639.503
395.234	21.870	813.912	638.854
396.248	23.461	815.100	645.527
397.263	24.846	815.871	651.124
398.278	25.036	815.561	651.510
399.292	24.592	815.052	649.432
400.307	24.654	814.544	649.196
401.321	24.749	814.313	649.298
402.336	25.214	813.958	650.644
403.350	25.454	814.021	651.508
404.365	25.861	813.849	652.787
405.380	26.030	813.139	652.771
406.394	26.227	812.464	652.885
407.409	26.086	812.194	652.101
408.423	26.035	811.790	651.534
409.438	26.126	811.447	651.529
410.453	26.101	811.508	651.431
411.467	26.056	810.395	650.318
412.482	25.917	810.004	649.444
413.496	26.139	810.019	650.201
414.511	26.141	809.650	649.853
415.526	26.046	808.862	648.823
416.540	25.866	808.113	647.515
417.555	25.754	807.286	646.394
418.569	25.797	807.051	646.304
419.584	25.791	806.647	645.900
420.599	25.591	805.961	644.578
421.613	91.865	1256.293	1358.284
422.628	78.729	1321.941	1358.418
