DTS Sentinel unit serial number:	SN413079Multiplexer serial number:	ORYXHardware model number:	OX4-SRSoftware version number:	ORYX F/W v4.00 Oryx Data Collector v3.7.2.0data status	okinstallation	princeton_trtdifferential loss correction	single-endedforward channel	channel 1reverse channel	N/Adate	2019/09/16time	10:02:35forward acquisition time	60.00reverse acquisition time	0.00gamma	496.2192k internal	0.2316k external	0.2316temperature offset calibration	0.9960default loss term (dB/km)	0.3790temperature slope calibration	1.0000multiplexer offset coefficient	1.0000multiplexer slope coefficient	1.0000fibre end	0.00T internal ref (°C)	33.56T ext. ref 1 (°C)	12.39T ext. ref 2 (°C)	32.07length (m)	temperature (°C)	Stokes	anti-Stokes-747.200	478.080	0.195	0.448
-746.185	-17.901	-0.410	0.261
-745.171	320.482	-0.098	0.189
-744.156	50.857	0.183	0.176
-743.142	251.443	0.026	-0.045
-742.127	444.355	0.103	0.230
-741.112	308.571	-0.091	-0.171
-740.098	652.818	-0.095	0.246
-739.083	-148.746	0.005	-0.000
-738.069	-56.723	-0.197	0.088
-737.054	42.707	-0.228	-0.210
-736.039	66.600	-0.190	-0.196
-735.025	-9.270	0.130	-0.088
-734.010	130.061	-0.093	-0.121
-732.996	800.000	-0.084	0.295
-731.981	202.410	0.113	-0.176
-730.966	202.088	0.259	0.404
-729.952	-178.101	-0.011	0.000
-728.937	-71.982	-0.108	-0.041
-727.923	-73.810	-0.231	0.085
-726.908	744.085	0.067	0.181
-725.894	56.314	-0.169	-0.166
-724.879	124.959	0.183	0.234
-723.864	-5.726	-0.106	0.074
-722.850	800.000	0.049	0.205
-721.835	-66.485	-0.058	-0.023
-720.821	258.707	-0.090	-0.156
-719.806	-105.949	-0.307	0.070
-718.791	-200.000	0.042	0.212
-717.777	109.260	-0.121	-0.147
-716.762	19.803	0.286	-0.233
-715.748	440.574	0.130	0.288
-714.733	-124.390	0.119	-0.019
-713.718	-200.000	-0.120	0.546
-712.704	763.393	-0.126	-0.347
-711.689	73.325	-0.038	0.040
-710.675	241.918	0.059	-0.099
-709.660	504.332	0.146	-0.343
-708.645	-200.000	-0.020	0.098
-707.631	18.388	0.114	-0.092
-706.616	338.980	-0.183	-0.361
-705.602	800.000	0.106	-0.307
-704.587	-200.000	-0.029	-0.253
-703.572	150.854	-0.300	-0.413
-702.558	-99.551	0.137	0.035
-701.543	-26.358	-0.207	-0.123
-700.529	239.709	-0.120	-0.203
-699.514	-45.127	-0.098	-0.049
-698.499	-167.845	0.164	-0.007
-697.485	800.000	-0.065	0.223
-696.470	1.293	0.092	-0.067
-695.456	-58.572	-0.364	-0.159
-694.441	22.723	0.252	0.209
-693.426	-30.404	-0.187	-0.107
-692.412	-33.704	-0.234	-0.130
-691.397	236.169	-0.135	-0.225
-690.383	800.000	0.038	-0.158
-689.368	90.685	-0.295	-0.334
-688.354	64.495	0.236	-0.240
-687.339	238.298	0.207	-0.347
-686.324	280.905	0.210	-0.380
-685.310	-84.778	-0.405	0.129
-684.295	800.000	0.046	-0.167
-683.281	-125.966	0.135	0.021
-682.266	-5.167	0.135	-0.094
-681.251	-89.403	0.263	0.078
-680.237	-128.582	-0.309	-0.044
-679.222	800.000	0.045	0.174
-678.208	-72.482	0.144	0.054
-677.193	114.576	-0.170	-0.209
-676.178	-2.494	0.088	0.063
-675.164	-200.000	-0.025	0.176
-674.149	-25.459	-0.039	-0.023
-673.135	684.255	-0.146	-0.384
-672.120	-68.708	-0.190	-0.074
-671.105	724.646	-0.076	-0.204
-670.091	-130.051	-0.247	-0.034
-669.076	285.186	0.106	0.193
-668.062	-109.206	0.219	-0.047
-667.047	181.168	0.201	0.299
-666.032	1.375	-0.398	-0.289
-665.018	210.810	0.074	0.117
-664.003	68.161	-0.252	-0.261
-662.989	800.000	-0.106	0.406
-661.974	38.789	0.225	0.203
-660.959	-200.000	-0.035	-0.170
-659.945	214.193	0.037	0.060
-658.930	-69.538	0.048	-0.018
-657.916	93.304	-0.122	0.140
-656.901	-200.000	0.052	-0.272
-655.886	-115.248	-0.348	-0.066
-654.872	625.764	-0.168	-0.428
-653.857	-107.140	-0.307	0.068
-652.843	-85.101	-0.163	-0.052
-651.828	185.200	-0.097	-0.146
-650.814	800.000	-0.056	0.224
-649.799	-87.365	0.343	-0.105
-648.784	-28.854	0.163	0.095
-647.770	50.292	-0.343	-0.327
-646.755	-31.194	-0.234	0.133
-645.741	181.781	-0.165	0.246
-644.726	-84.380	0.089	-0.028
-643.711	429.664	0.149	-0.325
-642.697	650.353	-0.091	-0.236
-641.682	800.000	-0.051	-0.143
-640.668	-11.643	-0.142	-0.094
-639.653	-200.000	-0.046	-0.204
-638.638	-68.903	0.076	-0.030
-637.624	-200.000	-0.045	-0.244
-636.609	-0.025	0.152	-0.109
-635.595	-101.096	-0.278	0.069
-634.580	-79.284	0.197	0.068
-633.565	42.276	-0.278	-0.255
-632.551	-53.935	0.042	-0.019
-631.536	-200.000	-0.061	-0.390
-630.522	347.028	0.049	0.098
-629.507	358.531	-0.102	0.205
-628.492	270.280	0.131	0.232
-627.478	51.294	-0.094	0.090
-626.463	768.440	0.076	0.209
-625.449	92.668	-0.217	0.247
-624.434	-200.000	0.002	0.285
-623.419	143.366	-0.012	0.016
-622.405	-200.000	0.040	0.199
-621.390	-182.976	0.166	0.003
-620.376	-0.611	-0.024	-0.017
-619.361	-75.337	-0.150	-0.054
-618.346	-51.696	-0.097	0.046
-617.332	158.889	0.070	-0.098
-616.317	-113.207	0.197	-0.039
-615.303	562.151	0.115	-0.280
-614.288	-35.676	0.128	-0.070
-613.273	536.055	-0.068	-0.162
-612.259	-90.467	0.378	-0.110
-611.244	433.064	-0.088	0.193
-610.230	-43.405	-0.141	-0.072
-609.215	800.000	-0.062	-0.185
-608.201	-200.000	-0.023	-0.107
-607.186	-58.977	-0.164	0.071
-606.171	-88.101	-0.403	-0.122
-605.157	800.000	-0.040	-0.141
-604.142	38.706	0.200	-0.180
-603.128	27.187	0.068	0.058
-602.113	-90.317	0.178	-0.052
-601.098	234.448	0.147	0.245
-600.084	371.998	0.105	0.214
-599.069	-74.601	-0.063	0.023
-598.055	-200.000	0.045	0.228
-597.040	-130.124	-0.418	0.057
-596.025	366.826	0.031	-0.062
-595.011	138.297	0.219	-0.289
-593.996	1.127	-0.271	-0.196
-592.982	-174.651	0.253	-0.007
-591.967	-19.080	0.258	-0.162
-590.952	13.622	0.149	0.117
-589.938	278.574	0.077	0.138
-588.923	-50.615	0.183	0.087
-587.909	-83.515	-0.275	0.089
-586.894	-4.244	0.202	-0.141
-585.879	110.265	-0.107	-0.130
-584.865	-200.000	-0.003	0.020
-583.850	800.000	-0.152	0.498
-582.836	98.156	0.106	0.123
-581.821	355.556	-0.034	-0.068
-580.806	390.553	-0.121	0.252
-579.792	800.000	-0.091	-0.289
-578.777	-99.147	-0.361	-0.092
-577.763	800.000	-0.071	0.215
-576.748	-66.429	-0.171	0.068
-575.733	800.000	0.044	0.150
-574.719	715.832	0.115	-0.306
-573.704	-200.000	0.056	-0.260
-572.690	-86.234	-0.480	0.149
-571.675	-200.000	-0.050	-0.342
-570.661	95.927	-0.195	-0.224
-569.646	545.704	-0.033	0.080
-568.631	-148.261	0.202	-0.017
-567.617	19.446	0.120	-0.097
-566.602	-120.371	0.157	-0.027
-565.588	-15.353	-0.093	0.060
-564.573	-22.327	0.322	-0.196
-563.558	-200.000	-0.033	-0.253
-562.544	-168.018	0.128	-0.005
-561.529	-42.727	-0.075	-0.038
-560.515	-20.944	-0.257	-0.159
-559.500	-121.329	-0.309	0.052
-558.485	80.378	0.129	0.140
-557.471	-47.201	-0.115	-0.056
-556.456	111.454	-0.121	0.147
-555.442	87.470	-0.094	-0.105
-554.427	114.568	-0.120	0.147
-553.412	16.364	-0.041	-0.033
-552.398	534.494	0.128	0.305
-551.383	-102.623	-0.174	-0.042
-550.369	-200.000	-0.009	-0.064
-549.354	800.000	0.046	-0.180
-548.339	-192.294	-0.138	-0.001
-547.325	-74.249	0.077	0.028
-546.310	-200.000	0.053	0.346
-545.296	-30.994	0.110	-0.063
-544.281	-30.100	-0.225	-0.129
-543.266	175.808	0.038	0.055
-542.252	44.806	-0.137	-0.126
-541.237	-91.501	0.130	-0.037
-540.223	81.771	-0.081	0.088
-539.208	-52.821	-0.307	0.142
-538.193	147.127	-0.119	-0.161
-537.179	-200.000	0.012	0.257
-536.164	800.000	0.089	0.304
-535.150	800.000	-0.071	-0.201
-534.135	141.410	-0.168	0.223
-533.121	-177.433	0.029	0.001
-532.106	-200.000	0.011	0.391
-531.091	-121.138	0.174	-0.029
-530.077	-200.000	0.058	-0.407
-529.062	800.000	0.017	0.059
-528.048	-144.128	0.144	0.014
-527.033	498.924	0.076	0.176
-526.018	-200.000	-0.059	0.273
-525.004	-200.000	0.016	0.221
-523.989	41.394	0.111	-0.101
-522.975	-169.695	0.256	0.009
-521.960	-200.000	0.015	-0.421
-520.945	-200.000	-0.024	0.198
-519.931	-6.713	-0.159	-0.108
-518.916	299.089	0.084	0.156
-517.902	-200.000	-0.022	0.183
-516.887	-132.967	-0.216	0.028
-515.872	-200.000	0.056	-0.292
-514.858	-200.000	-0.008	0.046
-513.843	-200.000	0.005	0.131
-512.829	101.707	0.279	0.327
-511.814	89.209	0.287	0.321
-510.799	-10.245	0.035	0.024
-509.785	166.464	-0.012	-0.017
-508.770	-91.294	-0.169	-0.048
-507.756	-65.560	0.046	-0.019
-506.741	89.365	0.222	0.248
-505.726	-80.240	-0.303	0.102
-504.712	8.214	-0.293	-0.221
-503.697	-133.871	0.329	0.041
-502.683	-9.621	-0.048	-0.032
-501.668	149.010	0.063	0.085
-500.653	-5.744	-0.128	0.088
-499.639	12.881	0.178	-0.138
-498.624	-151.476	0.314	0.023
-497.610	123.627	-0.068	-0.086
-496.595	-200.000	0.017	-0.126
-495.581	50.565	0.260	-0.247
-494.566	425.084	0.127	-0.274
-493.551	-0.740	-0.083	0.059
-492.537	-62.762	-0.343	-0.143
-491.522	-200.000	-0.051	-0.311
-490.508	77.310	-0.243	-0.260
-489.493	160.932	0.209	0.292
-488.478	621.572	0.016	0.040
-487.464	29.158	-0.216	0.184
-486.449	49.640	-0.189	-0.179
-485.435	-138.514	-0.040	-0.004
-484.420	-200.000	-0.015	-0.301
-483.405	-73.588	0.260	0.095
-482.391	-91.117	-0.176	0.051
-481.376	22.657	-0.114	-0.093
-480.362	-137.430	-0.069	0.008
-479.347	-200.000	-0.007	0.105
-478.332	-158.324	-0.189	-0.011
-477.318	-200.000	0.045	-0.239
-476.303	2.205	-0.116	0.084
-475.289	800.000	-0.071	0.281
-474.274	800.000	0.013	-0.053
-473.259	545.436	-0.029	-0.069
-472.245	105.037	0.176	0.208
-471.230	112.565	-0.249	0.302
-470.216	-123.245	0.097	0.016
-469.201	420.079	-0.164	-0.352
-468.186	-111.596	0.138	0.028
-467.172	-200.000	-0.004	0.126
-466.157	-87.712	0.242	0.073
-465.143	-149.131	-0.270	0.022
-464.128	-112.236	-0.227	0.046
-463.113	-74.523	-0.442	0.159
-462.099	163.492	0.108	-0.152
-461.084	-163.542	-0.563	0.027
-460.070	-43.137	-0.172	0.088
-459.055	88.180	0.035	0.039
-458.040	-80.209	0.086	-0.029
-457.026	-200.000	0.040	0.227
-456.011	-108.029	-0.153	0.033
-454.997	74.203	0.212	0.223
-453.982	-200.000	0.058	-0.325
-452.968	229.731	-0.144	0.236
-451.953	-84.359	0.269	-0.085
-450.938	-24.503	-0.123	0.074
-449.924	800.000	0.110	-0.329
-448.909	707.192	-0.092	-0.243
-447.895	-47.219	-0.162	0.079
-446.880	37.168	0.320	-0.284
-445.865	141.634	0.078	0.103
-444.851	-59.561	0.087	0.038
-443.836	-200.000	-0.080	-0.444
-442.822	284.026	0.105	0.189
-441.807	-161.412	-0.358	0.019
-440.792	-200.000	-0.005	0.085
-439.778	-159.722	0.017	-0.001
-438.763	-132.079	-0.291	0.038
-437.749	-200.000	-0.044	-0.267
-436.734	516.762	-0.067	-0.156
-435.719	20.216	0.280	0.227
-434.705	800.000	0.099	0.293
-433.690	-0.119	-0.231	0.165
-432.676	-108.884	0.254	-0.054
-431.661	103.453	0.142	-0.167
-430.646	430.999	-0.096	-0.207
-429.632	800.000	0.051	-0.212
-428.617	-32.351	0.201	0.112
-427.603	-155.386	0.090	-0.006
-426.588	-138.602	0.341	-0.037
-425.573	92.887	0.117	0.132
-424.559	194.768	-0.248	-0.376
-423.544	49.444	0.241	-0.227
-422.530	-50.542	0.240	-0.113
-421.515	-200.000	-0.028	-0.206
-420.500	-89.147	-0.171	-0.050
-419.486	-80.425	0.136	-0.045
-418.471	-94.067	-0.277	-0.076
-417.457	58.830	0.062	-0.061
-416.442	154.083	0.123	-0.169
-415.428	-86.151	-0.272	0.084
-414.413	788.182	-0.121	0.332
-413.398	-73.679	0.070	-0.025
-412.384	396.092	-0.027	0.057
-411.369	-100.988	0.213	0.052
-410.355	345.075	-0.090	0.176
-409.340	328.373	-0.007	0.013
-408.325	232.737	-0.087	-0.142
-407.311	-92.062	-0.326	0.092
-406.296	526.315	-0.135	-0.318
-405.282	-200.000	0.059	0.323
-404.267	588.729	-0.087	0.213
-403.252	800.000	0.114	0.416
-402.238	-67.582	0.427	-0.167
-401.223	-200.000	0.061	-0.517
-400.209	-70.174	0.352	-0.134
-399.194	800.000	0.042	0.173
-398.179	-26.116	0.180	-0.106
-397.165	-124.749	-0.343	-0.053
-396.150	216.215	-0.161	0.256
-395.136	-141.014	0.294	0.030
-394.121	-88.335	-0.034	0.010
-393.106	395.820	-0.045	-0.093
-392.092	5.200	0.372	-0.274
-391.077	121.875	0.150	0.187
-390.063	-193.288	-0.099	-0.001
-389.048	-41.221	0.471	0.243
-388.033	-98.177	0.117	0.030
-387.019	47.128	-0.025	0.024
-386.004	800.000	-0.130	-0.443
-384.990	-40.738	0.208	0.108
-383.975	33.297	-0.176	-0.153
-382.960	359.597	0.020	-0.040
-381.946	20.526	-0.221	0.178
-380.931	394.112	0.034	0.070
-379.917	123.329	0.072	0.090
-378.902	-200.000	0.063	0.453
-377.888	-117.762	-0.201	0.036
-376.873	263.370	0.078	0.136
-375.858	-200.000	0.092	0.429
-374.844	-84.819	0.120	0.038
-373.829	258.599	-0.102	0.175
-372.815	800.000	-0.037	-0.137
-371.800	800.000	0.081	-0.300
-370.785	5.056	-0.185	-0.136
-369.771	-100.246	0.066	-0.016
-368.756	-107.574	0.388	-0.085
-367.742	-18.215	-0.265	0.166
-366.727	474.756	0.020	0.045
-365.712	800.000	0.141	-0.427
-364.698	-83.613	-0.064	0.020
-363.683	-127.768	-0.051	0.007
-362.669	-15.661	0.124	0.079
-361.654	-188.759	-0.281	0.003
-360.639	39.956	0.128	0.115
-359.625	-200.000	-0.009	-0.269
-358.610	694.705	-0.052	-0.136
-357.596	459.302	-0.107	-0.237
-356.581	46.537	0.094	-0.087
-355.566	34.216	-0.172	-0.149
-354.552	-200.000	-0.001	0.329
-353.537	-98.649	0.540	-0.137
-352.523	-12.045	-0.111	0.072
-351.508	8.392	0.104	0.078
-350.493	-200.000	0.052	-0.375
-349.479	-200.000	-0.026	-0.288
-348.464	82.299	-0.155	-0.167
-347.450	32.434	0.179	-0.155
-346.435	-27.061	-0.256	0.149
-345.420	-118.825	-0.050	0.009
-344.406	800.000	-0.089	0.334
-343.391	-37.902	-0.211	-0.112
-342.377	-156.206	-0.157	-0.010
-341.362	186.748	0.029	0.043
-340.348	579.904	-0.072	-0.177
-339.333	90.090	-0.123	-0.137
-338.318	553.666	-0.038	0.091
-337.304	800.000	-0.074	0.275
-336.289	-26.854	0.104	0.061
-335.275	-107.011	-0.220	-0.049
-334.260	-109.751	0.080	-0.017
-333.245	-200.000	-0.027	0.228
-332.231	343.650	0.070	0.137
-331.216	-79.675	0.261	0.088
-330.202	-188.657	0.214	0.003
-329.187	-153.699	-0.125	-0.009
-328.172	-151.850	-0.286	0.021
-327.158	25.976	0.075	0.062
-326.143	-200.000	-0.070	-0.312
-325.129	362.903	-0.098	0.196
-324.114	-103.297	0.206	-0.048
-323.099	-121.036	0.238	0.040
-322.085	800.000	-0.016	0.058
-321.070	39.031	-0.117	0.104
-320.056	-60.179	-0.181	0.077
-319.041	84.499	-0.145	0.158
-318.026	-138.028	0.174	0.019
-317.012	14.452	0.044	0.034
-315.997	800.000	-0.024	0.077
-314.983	-200.000	-0.031	-0.162
-313.968	-200.000	-0.027	0.141
-312.953	800.000	-0.018	0.067
-311.939	16.483	0.327	-0.258
-310.924	127.921	0.011	-0.013
-309.910	315.035	-0.112	-0.210
-308.895	-58.697	-0.235	0.101
-307.880	67.696	-0.067	0.068
-306.866	-43.002	0.167	-0.084
-305.851	-200.000	-0.026	-0.263
-304.837	-88.570	0.292	-0.087
-303.822	-129.305	0.045	0.006
-302.807	800.000	0.150	0.424
-301.793	-27.072	-0.138	-0.080
-300.778	-200.000	0.040	0.192
-299.764	190.465	0.153	0.229
-298.749	-85.022	-0.433	-0.135
-297.735	-92.081	0.268	-0.075
-296.720	216.082	0.091	0.144
-295.705	-200.000	0.022	0.137
-294.691	60.045	0.092	-0.091
-293.676	-120.441	-0.192	-0.033
-292.662	-91.940	0.180	-0.051
-291.647	113.008	-0.226	-0.273
-290.632	172.665	-0.160	0.230
-289.618	-193.076	-0.155	-0.001
-288.603	-80.880	-0.209	-0.069
-287.589	142.638	0.069	0.092
-286.574	743.237	-0.096	-0.257
-285.559	-54.610	-0.130	-0.059
-284.545	196.683	0.140	-0.212
-283.530	800.000	0.018	-0.061
-282.516	-2.763	0.134	0.093
-281.501	270.483	-0.224	0.392
-280.486	114.859	-0.131	-0.159
-279.472	-199.567	-0.296	-0.002
-278.457	-111.735	0.225	-0.045
-277.443	561.845	-0.154	0.371
-276.428	3.486	0.192	0.139
-275.413	-200.000	-0.031	-0.138
-274.399	-200.000	-0.044	0.263
-273.384	-107.968	-0.118	0.025
-272.370	142.839	-0.117	0.155
-271.355	-182.129	-0.097	-0.002
-270.340	253.635	0.047	-0.080
-269.326	100.119	-0.148	-0.170
-268.311	-200.000	-0.008	0.128
-267.297	-200.000	0.019	-0.238
-266.282	800.000	0.030	-0.092
-265.267	25.274	-0.155	0.128
-264.253	-107.947	0.221	0.048
-263.238	800.000	-0.057	0.231
-262.224	3.153	-0.099	0.071
-261.209	-200.000	0.006	0.083
-260.195	-14.650	-0.077	-0.049
-259.180	800.000	-0.065	-0.229
-258.165	-103.487	-0.219	-0.051
-257.151	23.181	0.065	-0.053
-256.136	107.630	0.147	-0.174
-255.122	-172.768	-0.094	0.003
-254.107	29.732	0.286	-0.242
-253.092	72.936	-0.247	-0.256
-252.078	-200.000	-0.006	0.262
-251.063	235.153	-0.046	0.076
-250.049	194.997	0.059	-0.089
-249.034	-18.458	0.275	0.171
-248.019	-200.000	-0.014	-0.117
-247.005	323.867	-0.065	-0.123
-245.990	-113.066	0.183	-0.036
-244.976	-90.921	0.364	-0.104
-243.961	701.757	0.086	0.224
-242.946	-106.034	-0.095	0.021
-241.932	176.214	0.065	-0.094
-240.917	-95.420	0.116	-0.031
-239.903	-111.271	-0.212	-0.043
-238.888	-200.000	0.016	-0.090
-237.873	800.000	-0.090	-0.295
-236.859	-60.977	0.292	0.123
-235.844	-83.764	-0.216	-0.069
-234.830	524.378	0.198	-0.462
-233.815	-93.961	0.137	0.037
-232.800	86.154	0.311	-0.340
-231.786	291.670	-0.153	0.277
-230.771	-150.847	0.314	-0.024
-229.757	70.027	0.139	0.143
-228.742	202.607	0.091	0.140
-227.727	-135.070	-0.062	0.007
-226.713	45.361	-0.122	0.112
-225.698	-91.346	-0.118	0.033
-224.684	-99.812	0.338	-0.084
-223.669	525.615	0.132	-0.309
-222.655	555.775	-0.066	-0.159
-221.640	-53.925	0.244	-0.111
-220.625	-105.016	-0.216	-0.049
-219.611	-134.848	0.243	0.029
-218.596	-200.000	-0.012	0.077
-217.582	-104.609	0.381	0.087
-216.567	76.985	0.132	-0.139
-215.552	18.950	0.111	-0.088
-214.538	515.273	0.049	-0.115
-213.523	142.481	0.253	0.334
-212.509	-200.000	0.014	0.193
-211.494	-200.000	-0.009	0.410
-210.479	800.000	0.055	0.201
-209.465	-153.645	0.289	0.020
-208.450	800.000	0.067	0.254
-207.436	-124.586	-0.330	-0.051
-206.421	-20.366	-0.302	-0.184
-205.406	-34.990	-0.061	-0.033
-204.392	-12.677	-0.016	0.010
-203.377	-108.849	-0.119	-0.025
-202.363	358.640	0.034	-0.068
-201.348	-200.000	0.009	0.093
-200.333	-73.573	0.140	0.051
-199.319	486.176	-0.007	0.017
-198.304	341.396	-0.058	-0.112
-197.290	-200.000	0.043	0.233
-196.275	230.919	-0.162	0.264
-195.260	800.000	0.051	0.172
-194.246	-200.000	-0.001	-0.112
-193.231	93.225	0.389	-0.436
-192.217	104.128	0.134	-0.156
-191.202	-200.000	0.008	-0.096
-190.187	262.639	0.174	-0.299
-189.173	-131.273	0.146	0.019
-188.158	188.649	-0.118	0.175
-187.144	-49.073	0.103	0.049
-186.129	800.000	-0.034	-0.148
-185.114	-102.741	-0.264	-0.062
-184.100	-37.528	-0.176	-0.093
-183.085	-77.767	0.244	-0.084
-182.071	93.856	0.053	0.060
-181.056	606.207	0.052	-0.128
-180.042	800.000	-0.060	-0.175
-179.027	-57.125	-0.174	-0.076
-178.012	-93.004	0.039	0.011
-176.998	2.508	0.313	0.225
-175.983	800.000	-0.163	0.448
-174.969	-23.648	0.124	-0.074
-173.954	53.253	-0.136	-0.129
-172.939	-22.585	-0.163	-0.098
-171.925	-79.458	-0.340	-0.114
-170.910	-200.000	0.084	0.427
-169.896	-200.000	0.001	0.142
-168.881	-65.637	-0.079	0.031
-167.866	98.299	0.148	0.169
-166.852	609.141	-0.074	0.184
-165.837	-166.886	0.260	-0.011
-164.823	-200.000	0.017	-0.157
-163.808	662.040	-0.101	0.258
-162.793	422.841	0.111	0.237
-161.779	-200.000	0.007	0.069
-160.764	-200.000	0.013	0.145
-159.750	-126.478	-0.234	0.034
-158.735	-200.000	0.004	0.059
-157.720	-82.810	-0.109	0.035
-156.706	-100.768	0.051	0.012
-155.691	400.522	-0.062	0.129
-154.677	-183.958	0.133	-0.002
-153.662	-132.531	-0.190	0.024
-152.647	800.000	0.026	0.099
-151.633	-200.000	0.000	0.422
-150.618	100.958	-0.186	-0.214
-149.604	273.184	0.154	-0.269
-148.589	800.000	-0.115	0.346
-147.574	-121.002	0.282	0.047
-146.560	-200.000	0.025	0.233
-145.545	-94.605	-0.379	0.102
-144.531	34.198	0.201	-0.174
-143.516	-72.720	-0.135	0.049
-142.502	338.336	-0.096	0.185
-141.487	-3.223	-0.053	0.037
-140.472	125.154	0.061	-0.076
-139.458	800.000	0.134	-0.416
-138.443	-60.637	-0.246	-0.103
-137.429	279.193	-0.164	-0.290
-136.414	800.000	-0.066	-0.202
-135.399	800.000	0.079	-0.318
-134.385	190.438	-0.164	-0.243
-133.370	34.206	0.166	-0.143
-132.356	-151.171	0.106	-0.008
-131.341	800.000	0.031	0.111
-130.326	-200.000	-0.008	0.143
-129.312	116.277	-0.192	-0.232
-128.297	-107.917	-0.444	-0.095
-127.283	800.000	0.051	-0.142
-126.268	-122.465	0.275	-0.044
-125.253	-93.089	0.137	-0.038
-124.239	-80.191	-0.185	-0.061
-123.224	203.066	0.012	-0.019
-122.210	-200.000	0.036	0.387
-121.195	421.889	-0.144	0.306
-120.180	-46.189	0.134	-0.065
-119.166	-110.909	0.374	-0.076
-118.151	-200.000	0.024	0.348
-117.137	-67.315	0.254	-0.099
-116.122	-119.605	-0.227	-0.039
-115.107	-80.454	-0.553	0.182
-114.093	-200.000	0.042	0.310
-113.078	170.660	-0.064	-0.091
-112.064	47.483	-0.249	0.230
-111.049	199.791	-0.166	0.252
-110.034	-175.912	-0.191	-0.005
-109.020	483.045	0.092	0.207
-108.005	-63.202	-0.307	0.125
-106.991	88.624	0.208	-0.229
-105.976	93.720	-0.274	-0.307
-104.962	296.238	0.097	0.175
-103.947	85.432	-0.110	0.120
-102.932	-153.123	0.126	0.009
-101.918	-76.534	0.028	-0.010
-100.903	-200.000	-0.009	-0.059
-99.889	800.000	-0.052	0.193
-98.874	93.840	-0.051	-0.058
-97.859	8.804	0.172	-0.128
-96.845	-42.292	-0.481	-0.242
-95.830	800.000	0.155	0.425
-94.816	283.053	-0.130	0.230
-93.801	631.198	-0.035	0.088
-92.786	-102.145	-0.192	0.046
-91.772	-15.016	0.344	-0.218
-90.757	800.000	0.071	0.230
-89.743	-57.157	-0.063	-0.027
-88.728	312.065	0.114	0.211
-87.713	76.151	-0.178	0.186
-86.699	-200.000	0.020	-0.167
-85.684	-200.000	0.022	-0.447
-84.670	276.987	0.159	0.280
-83.655	-16.087	-0.467	0.293
-82.640	409.694	0.142	-0.298
-81.626	12.527	-0.111	0.084
-80.611	35.766	-0.155	0.134
-79.597	-36.063	0.077	-0.041
-78.582	-129.165	0.275	-0.038
-77.567	635.457	0.127	0.318
-76.553	53.987	0.359	0.340
-75.538	-6.687	0.220	0.148
-74.524	51.451	-0.076	0.071
-73.509	800.000	0.066	-0.254
-72.494	393.873	-0.097	-0.199
-71.480	116.760	0.093	-0.112
-70.465	226.762	0.101	-0.161
-69.451	-25.319	0.633	0.370
-68.436	173.670	0.203	0.288
-67.422	334.688	0.030	0.057
-66.407	-137.983	0.368	0.040
-65.392	-200.000	-0.014	0.080
-64.378	-200.000	0.005	0.183
-63.363	70.139	0.111	-0.114
-62.349	119.211	0.174	0.213
-61.334	58.520	-0.919	-0.890
-60.319	68.470	0.336	0.340
-59.305	549.183	-0.361	-0.854
-58.290	-200.000	0.196	0.990
-57.276	754.673	0.585	1.561
-56.261	-200.000	96.772	564.939
-55.246	512.234	1425.450	3274.606
-54.232	146.380	2641.090	3496.911
-53.217	110.605	2212.353	2623.325
-52.203	45.249	1651.605	1501.815
-51.188	37.060	1382.334	1206.253
-50.173	33.733	1339.710	1148.911
-49.159	55.246	1389.025	1324.256
-48.144	58.299	1405.553	1358.744
-47.130	37.349	1360.760	1189.009
-46.115	33.770	1342.413	1151.271
-45.100	33.626	1337.589	1146.222
-44.086	33.397	1335.788	1143.246
-43.071	33.383	1333.200	1140.901
-42.057	33.357	1331.014	1138.833
-41.042	33.398	1329.182	1137.465
-40.027	33.592	1327.741	1137.351
-39.013	33.463	1326.008	1135.046
-37.998	33.516	1324.283	1133.844
-36.984	33.516	1322.342	1132.136
-35.969	33.443	1320.811	1130.346
-34.954	33.543	1319.143	1129.468
-33.940	33.707	1317.251	1128.781
-32.925	33.601	1316.343	1127.329
-31.911	33.647	1314.651	1126.104
-30.896	33.724	1312.870	1124.994
-29.881	33.691	1311.353	1123.453
-28.867	33.689	1310.015	1122.249
-27.852	33.752	1308.686	1121.439
-26.838	33.662	1307.395	1119.755
-25.823	33.673	1305.478	1118.137
-24.809	33.656	1304.719	1117.342
-23.794	33.626	1303.551	1116.117
-22.779	33.697	1301.902	1115.083
-21.765	33.550	1300.876	1113.293
-20.750	33.628	1299.331	1112.388
-19.736	33.540	1297.818	1110.529
-18.721	33.430	1297.083	1109.212
-17.706	33.472	1295.762	1108.288
-16.692	33.568	1294.445	1107.679
-15.677	33.543	1293.221	1106.439
-14.663	33.563	1292.089	1105.545
-13.648	33.493	1291.648	1104.717
-12.633	33.534	1290.362	1103.806
-11.619	33.537	1289.746	1103.258
-10.604	33.533	1288.503	1102.126
-9.590	33.514	1287.465	1101.082
-8.575	33.414	1286.723	1099.827
-7.560	33.516	1285.152	1099.030
-6.546	33.502	1284.562	1098.401
-5.531	33.406	1283.724	1097.086
-4.517	33.430	1283.399	1096.903
-3.502	33.458	1282.489	1096.242
-2.487	33.500	1281.108	1095.259
-1.473	33.630	1277.270	1092.686
-0.458	32.922	1263.597	1076.907
0.556	28.527	1247.012	1043.652
1.571	25.228	1253.631	1030.194
2.586	24.339	1269.066	1037.612
3.600	23.465	1258.385	1023.746
4.615	20.417	1188.319	950.016
5.629	15.107	1116.481	865.143
6.644	12.516	1096.127	836.137
7.659	12.415	1093.793	833.769
8.673	12.337	1092.386	832.226
9.688	12.303	1091.152	831.043
10.702	12.648	1089.389	831.369
11.717	16.053	1094.360	852.335
12.731	19.735	1099.160	874.664
13.746	19.423	1097.075	871.349
14.761	17.786	1094.379	860.877
15.775	16.508	1092.217	852.660
16.790	15.527	1090.187	846.061
17.804	14.885	1088.260	841.259
18.819	14.359	1087.164	837.695
19.834	13.928	1086.205	834.715
20.848	13.731	1085.438	833.062
21.863	13.668	1083.930	831.517
22.877	13.418	1083.492	829.855
23.892	13.309	1083.053	828.899
24.907	13.386	1082.230	828.579
25.921	13.400	1080.561	827.299
26.936	13.279	1079.845	826.075
27.950	13.436	1078.261	825.572
28.965	13.602	1076.694	825.124
29.980	13.590	1075.049	823.733
30.994	13.540	1074.229	822.781
32.009	13.725	1073.147	822.797
33.023	13.542	1072.190	821.083
34.038	13.480	1071.025	819.812
35.053	13.572	1070.081	819.473
36.067	13.426	1069.361	818.128
37.082	13.466	1068.198	817.362
38.096	13.481	1067.413	816.762
39.111	13.595	1066.680	816.694
40.126	13.489	1065.479	815.182
41.140	13.353	1063.868	813.205
42.155	13.282	1063.156	812.241
43.169	13.346	1061.897	811.523
44.184	13.285	1060.744	810.271
45.199	13.330	1059.360	809.362
46.213	13.408	1058.877	809.302
47.228	13.461	1057.757	808.635
48.242	13.509	1056.752	808.028
49.257	13.411	1055.612	806.607
50.271	13.478	1054.381	805.923
51.286	13.517	1053.461	805.337
52.301	13.480	1052.811	804.589
53.315	13.464	1051.640	803.546
54.330	13.358	1050.299	801.936
55.344	13.494	1049.420	801.852
56.359	13.471	1048.822	801.211
57.374	13.443	1047.954	800.345
58.388	13.399	1047.290	799.555
59.403	13.346	1046.173	798.371
60.417	13.212	1045.622	797.234
61.432	13.342	1044.519	796.950
62.447	13.289	1044.111	796.312
63.461	13.213	1043.232	795.207
64.476	13.305	1042.274	794.847
65.490	13.224	1041.190	793.564
66.505	13.385	1040.730	793.913
67.520	13.227	1040.071	792.582
68.534	13.317	1039.246	792.318
69.549	13.341	1038.229	791.588
70.563	13.219	1037.543	790.408
71.578	13.218	1036.810	789.776
72.593	13.157	1035.525	788.437
73.607	13.161	1035.174	788.119
74.622	13.251	1034.554	788.004
75.636	13.173	1033.744	786.948
76.651	13.242	1032.994	786.637
77.666	13.359	1032.057	786.410
78.680	13.241	1031.657	785.475
79.695	13.208	1031.250	784.935
80.709	13.277	1030.492	784.618
81.724	13.327	1029.765	784.234
82.739	13.437	1028.699	783.872
83.753	13.599	1028.012	784.046
84.768	13.598	1027.156	783.320
85.782	13.650	1026.100	782.688
86.797	13.557	1025.239	781.527
87.812	13.609	1024.389	781.053
88.826	13.507	1023.373	779.727
89.841	13.651	1022.164	779.419
90.855	13.556	1021.710	778.553
91.870	13.584	1021.320	778.320
92.884	13.506	1020.354	777.151
93.899	13.516	1019.534	776.500
94.914	13.661	1018.473	776.304
95.928	13.619	1017.849	775.566
96.943	13.589	1016.900	774.631
97.957	13.625	1015.582	773.726
98.972	13.618	1014.696	772.954
99.987	13.538	1014.166	772.108
101.001	13.574	1013.147	771.430
102.016	13.587	1012.453	770.893
103.030	13.675	1011.162	770.251
104.045	13.616	1010.700	769.555
105.060	13.520	1010.005	768.516
106.074	13.309	1009.012	766.715
107.089	13.344	1008.127	766.135
108.103	13.496	1006.678	765.670
109.118	13.454	1005.678	764.645
110.133	13.398	1005.132	763.906
111.147	13.386	1004.607	763.382
112.162	13.446	1003.429	762.699
113.176	13.467	1003.128	762.499
114.191	13.551	1001.939	761.910
115.206	13.416	1001.375	760.796
116.220	13.467	1001.001	760.677
117.235	13.516	999.470	759.673
118.249	13.402	998.362	758.242
119.264	13.403	997.634	757.625
120.279	13.439	996.837	757.119
121.293	13.396	996.094	756.291
122.308	13.360	995.538	755.636
123.322	13.387	994.366	754.805
124.337	13.301	993.518	753.703
125.352	13.433	992.109	753.167
126.366	13.473	990.764	752.260
127.381	13.423	989.797	751.232
128.395	13.431	988.897	750.520
129.410	13.451	988.165	749.989
130.424	13.490	987.567	749.646
131.439	13.457	986.863	748.896
132.454	13.527	986.144	748.597
133.468	13.605	984.938	747.969
134.483	13.653	984.057	747.450
135.497	13.515	983.909	746.647
136.512	13.669	982.328	746.079
137.527	13.560	981.527	744.914
138.541	13.541	981.079	744.421
139.556	13.703	980.079	744.324
140.570	13.802	979.311	744.119
141.585	13.614	978.756	742.788
142.600	13.799	977.313	742.457
143.614	13.699	976.955	741.671
144.629	13.794	976.111	741.391
145.643	13.751	975.216	740.451
146.658	13.738	973.843	739.287
147.673	13.691	972.853	738.260
148.687	13.721	972.218	737.845
149.702	13.566	971.474	736.528
150.716	13.653	970.421	736.049
151.731	13.577	970.073	735.381
152.746	13.612	969.353	734.928
153.760	13.674	968.630	734.587
154.775	13.733	968.373	734.590
155.789	13.869	967.441	734.422
156.804	13.777	966.544	733.269
157.819	13.789	966.438	733.177
158.833	13.888	965.553	732.877
159.848	13.897	964.710	732.209
160.862	13.838	963.972	731.328
161.877	13.727	962.898	729.959
162.892	13.725	961.819	729.068
163.906	13.739	960.802	728.292
164.921	13.756	960.385	727.988
165.935	13.873	958.949	727.345
166.950	13.744	958.585	726.441
167.964	13.787	957.957	726.088
168.979	13.812	956.493	725.026
169.994	13.843	955.644	724.454
171.008	13.819	955.001	723.798
172.023	13.947	954.163	723.654
173.037	14.041	953.521	723.512
174.052	13.907	952.868	722.372
175.067	13.869	952.181	721.621
176.081	13.784	951.569	720.722
177.096	13.783	951.158	720.343
178.110	13.879	950.274	720.029
179.125	13.808	949.972	719.426
180.140	13.811	949.479	719.005
181.154	14.054	948.376	719.157
182.169	14.125	948.037	719.143
183.183	13.973	947.620	718.107
184.198	14.051	946.838	717.785
185.213	14.199	945.848	717.611
186.227	14.197	945.356	717.166
187.242	14.133	945.178	716.690
188.256	14.111	944.492	716.012
189.271	14.236	943.093	715.424
190.286	14.017	942.405	713.900
191.300	13.904	941.827	712.913
192.315	13.873	941.274	712.298
193.329	13.904	940.820	712.026
194.344	13.996	940.100	711.813
195.359	13.980	939.569	711.277
196.373	14.125	938.865	711.300
197.388	14.059	938.595	710.751
198.402	14.173	938.248	710.914
199.417	14.368	937.168	710.864
200.432	14.279	936.951	710.258
201.446	14.288	936.457	709.859
202.461	14.320	935.796	709.430
203.475	14.421	935.605	709.654
204.490	14.267	934.505	708.101
205.504	14.320	933.264	707.323
206.519	14.271	932.980	706.838
207.534	14.290	932.033	706.139
208.548	14.226	931.401	705.326
209.563	14.324	930.772	705.202
210.577	14.385	929.803	704.664
211.592	14.426	929.403	704.472
212.607	14.516	928.615	704.190
213.621	14.453	928.039	703.426
214.636	14.574	927.283	703.303
215.650	14.576	926.460	702.625
216.665	14.541	925.304	701.536
217.680	14.617	925.305	701.796
218.694	14.543	924.383	700.724
219.709	14.581	923.700	700.303
220.723	14.529	923.162	699.614
221.738	14.455	922.330	698.613
222.753	14.509	921.885	698.442
223.767	14.483	921.322	697.842
224.782	14.571	920.817	697.766
225.796	14.623	919.998	697.303
226.811	14.676	919.021	696.720
227.826	14.776	918.410	696.615
228.840	14.683	917.805	695.705
229.855	14.783	916.686	695.213
230.869	14.645	916.326	694.305
231.884	14.748	915.811	694.280
232.899	14.542	915.050	692.788
233.913	14.652	914.047	692.421
234.928	14.571	913.981	691.974
235.942	14.644	912.919	691.409
236.957	14.722	912.380	691.265
237.972	14.552	912.136	690.314
238.986	14.669	911.118	689.966
240.001	14.641	910.419	689.263
241.015	14.770	909.957	689.383
242.030	14.702	909.454	688.662
243.045	14.795	908.706	688.417
244.059	14.792	908.317	688.049
245.074	14.798	907.367	687.294
246.088	14.743	906.915	686.665
247.103	14.871	906.183	686.572
248.117	14.970	905.388	686.316
249.132	15.044	904.757	686.084
250.147	15.155	904.456	686.245
251.161	15.122	903.840	685.584
252.176	15.159	903.110	685.120
253.190	15.194	902.496	684.738
254.205	15.080	901.937	683.788
255.220	15.169	900.809	683.235
256.234	15.235	900.119	682.920
257.249	15.295	899.737	682.816
258.263	15.186	899.297	681.977
259.278	15.295	898.475	681.734
260.293	15.382	897.824	681.535
261.307	15.375	897.148	680.934
262.322	15.377	896.540	680.418
263.336	15.327	895.762	679.564
264.351	15.455	895.182	679.586
265.366	15.507	894.506	679.219
266.380	15.392	893.895	678.234
267.395	15.452	893.211	677.897
268.409	15.442	892.412	677.188
269.424	15.353	891.625	676.172
270.439	15.265	891.020	675.301
271.453	15.450	890.098	675.284
272.468	15.310	889.889	674.506
273.482	15.306	889.396	674.055
274.497	15.485	888.058	673.701
275.512	15.387	888.253	673.394
276.526	15.396	887.936	673.131
277.541	15.521	886.811	672.721
278.555	15.637	886.382	672.798
279.570	15.535	885.964	672.014
280.585	15.613	885.093	671.606
281.599	15.581	884.089	670.655
282.614	15.532	883.447	669.916
283.628	15.539	883.314	669.781
284.643	15.536	882.895	669.393
285.657	15.658	881.694	668.909
286.672	15.542	881.377	668.147
287.687	15.580	880.696	667.725
288.701	15.642	880.167	667.508
289.716	15.761	879.642	667.523
290.730	15.697	878.829	666.594
291.745	15.790	878.114	666.361
292.760	15.664	877.921	665.658
293.774	15.779	877.090	665.423
294.789	15.695	876.503	664.587
295.803	15.637	875.915	663.855
296.818	15.733	874.824	663.348
297.833	15.828	873.855	662.927
298.847	15.798	873.524	662.499
299.862	15.748	873.122	661.938
300.876	15.897	872.576	662.051
301.891	15.824	872.361	661.545
302.906	15.955	871.628	661.445
303.920	16.113	870.866	661.426
304.935	16.110	870.386	660.993
305.949	16.073	869.624	660.210
306.964	15.872	869.172	659.022
307.979	16.057	868.464	659.151
308.993	16.137	867.826	658.919
310.008	16.070	867.183	658.111
311.022	16.088	866.632	657.707
312.037	16.018	866.028	656.916
313.052	15.891	865.666	656.090
314.066	15.908	865.103	655.669
315.081	15.923	864.383	655.126
316.095	16.013	863.940	655.080
317.110	16.017	863.164	654.452
318.125	15.997	862.753	654.001
319.139	16.061	862.479	653.985
320.154	16.006	862.125	653.447
321.168	16.122	861.102	653.061
322.183	16.048	860.763	652.460
323.197	16.091	860.304	652.222
324.212	16.090	859.307	651.404
325.227	16.200	858.560	651.207
326.241	16.034	858.387	650.375
327.256	16.238	857.838	650.690
328.270	16.179	857.220	649.937
329.285	16.246	856.568	649.640
330.300	16.084	855.872	648.432
331.314	16.169	855.533	648.444
332.329	16.104	855.169	647.863
333.343	16.311	854.694	648.240
334.358	16.213	854.575	647.717
335.373	16.219	854.201	647.397
336.387	16.322	853.779	647.418
337.402	16.401	853.306	647.304
338.416	16.348	852.990	646.802
339.431	16.300	852.469	646.168
340.446	16.500	852.113	646.605
341.460	16.483	851.861	646.293
342.475	16.536	851.378	646.070
343.489	16.573	850.668	645.617
344.504	16.618	850.363	645.497
345.519	16.556	849.876	644.835
346.533	16.598	849.461	644.623
347.548	16.492	848.734	643.612
348.562	16.459	848.317	643.114
349.577	16.432	847.992	642.707
350.592	16.423	846.900	641.787
351.606	16.488	846.250	641.485
352.621	16.385	845.747	640.657
353.635	16.535	844.756	640.417
354.650	16.536	844.368	640.070
355.665	16.487	843.653	639.287
356.679	16.642	842.753	639.133
357.694	16.650	842.254	638.727
358.708	16.602	841.638	638.023
359.723	16.674	841.381	638.044
360.738	16.664	840.575	637.338
361.752	16.826	839.646	637.187
362.767	16.727	839.147	636.379
363.781	16.761	839.104	636.419
364.796	16.802	838.494	636.054
365.810	16.957	837.967	636.179
366.825	16.984	837.676	636.003
367.840	16.863	837.284	635.196
368.854	17.025	836.375	635.055
369.869	16.894	836.167	634.353
370.883	16.820	835.727	633.686
371.898	16.793	835.962	633.708
372.913	16.982	835.060	633.671
373.927	17.000	834.547	633.293
374.942	17.016	834.188	633.026
375.956	17.195	833.764	633.317
376.971	17.140	833.169	632.601
377.986	17.159	833.033	632.514
379.000	17.181	831.936	631.706
380.015	17.202	831.528	631.418
381.029	17.149	831.161	630.889
382.044	17.107	830.624	630.269
383.059	17.156	829.784	629.757
384.073	17.113	829.367	629.227
385.088	17.168	829.002	629.097
386.102	17.211	828.050	628.477
387.117	17.102	827.713	627.762
388.132	17.059	827.008	627.016
389.146	17.184	826.500	627.036
390.161	17.244	826.317	627.062
391.175	17.321	825.670	626.800
392.190	17.211	824.923	625.771
393.205	17.203	824.568	625.416
394.219	17.220	824.141	625.103
395.234	17.125	824.249	624.779
396.248	17.129	823.542	624.203
397.263	17.233	822.699	623.889
398.278	17.081	822.646	623.236
399.292	17.349	822.050	623.713
400.307	17.336	821.581	623.253
401.321	17.276	821.034	622.565
402.336	17.248	820.665	622.125
403.350	17.289	820.497	622.094
404.365	17.517	820.002	622.496
405.380	17.496	819.091	621.674
406.394	17.523	818.672	621.401
407.409	17.506	818.439	621.105
408.423	17.564	818.303	621.159
409.438	17.503	817.601	620.348
410.453	17.519	817.354	620.164
411.467	17.623	817.086	620.286
412.482	17.503	816.398	619.271
413.496	17.723	815.925	619.659
414.511	17.596	815.847	619.082
415.526	17.628	815.399	618.802
416.540	17.769	814.417	618.513
417.555	17.791	814.222	618.393
418.569	17.622	814.113	617.640
419.584	17.761	813.335	617.501
420.599	17.762	812.948	617.155
421.613	105.307	1286.401	1448.874
422.628	90.855	1355.375	1448.992
