DTS Sentinel unit serial number:	SN413079Multiplexer serial number:	ORYXHardware model number:	OX4-SRSoftware version number:	ORYX F/W v4.00 Oryx Data Collector v3.7.2.0data status	okinstallation	princeton_trtdifferential loss correction	single-endedforward channel	channel 1reverse channel	N/Adate	2019/09/18time	18:10:35forward acquisition time	60.00reverse acquisition time	0.00gamma	496.2192k internal	0.2294k external	0.2294temperature offset calibration	1.0014default loss term (dB/km)	0.3790temperature slope calibration	1.0000multiplexer offset coefficient	1.0000multiplexer slope coefficient	1.0000fibre end	0.00T internal ref (°C)	39.12T ext. ref 1 (°C)	0.93T ext. ref 2 (°C)	32.23length (m)	temperature (°C)	Stokes	anti-Stokes-747.200	288.689	-0.068	0.126
-746.185	-82.394	0.298	0.099
-745.171	99.151	0.104	0.123
-744.156	-154.072	-0.409	0.028
-743.142	-23.375	0.033	0.020
-742.127	-200.000	-0.041	-0.215
-741.112	-60.553	-0.381	-0.165
-740.098	22.665	-0.215	0.180
-739.083	-129.659	0.223	-0.031
-738.069	800.000	0.029	0.097
-737.054	72.346	0.096	-0.103
-736.039	-84.897	-0.300	-0.096
-735.025	73.523	0.024	-0.026
-734.010	699.255	0.158	-0.424
-732.996	-50.868	-0.146	0.070
-731.981	-200.000	-0.003	0.220
-730.966	188.447	0.162	-0.248
-729.952	297.685	-0.076	-0.142
-728.937	444.474	0.019	-0.042
-727.923	470.065	-0.170	-0.391
-726.908	-5.134	-0.192	-0.135
-725.894	-200.000	-0.061	0.312
-724.879	-200.000	-0.002	-0.089
-723.864	7.199	-0.081	-0.061
-722.850	-80.638	0.465	0.158
-721.835	-142.212	0.328	0.033
-720.821	-200.000	0.012	0.298
-719.806	-85.481	-0.252	0.080
-718.791	-69.711	-0.267	0.104
-717.777	-200.000	-0.032	-0.159
-716.762	46.836	-0.103	0.098
-715.748	-14.900	-0.309	-0.203
-714.733	-22.900	0.292	0.180
-713.718	683.219	0.067	-0.178
-712.704	27.943	0.274	0.236
-711.689	-126.523	-0.374	0.057
-710.675	-26.285	-0.178	-0.107
-709.660	388.727	0.135	0.285
-708.645	-200.000	-0.004	-0.251
-707.631	800.000	0.074	0.314
-706.616	-137.572	0.129	0.015
-705.602	-79.997	-0.214	0.073
-704.587	-55.993	-0.286	0.130
-703.572	-10.004	0.465	0.316
-702.558	-200.000	0.013	0.406
-701.543	-200.000	-0.037	0.271
-700.529	-200.000	0.007	-0.086
-699.514	800.000	-0.099	0.385
-698.499	-102.318	0.382	0.094
-697.485	-124.495	-0.324	0.051
-696.470	-198.651	0.080	-0.000
-695.456	-200.000	0.035	0.158
-694.441	117.967	-0.093	0.117
-693.426	-94.227	-0.265	0.074
-692.412	-48.780	-0.227	0.111
-691.397	232.776	0.205	-0.343
-690.383	74.399	0.183	-0.197
-689.368	242.591	-0.119	0.203
-688.354	-200.000	0.005	0.121
-687.339	-200.000	0.057	-0.500
-686.324	-200.000	0.013	-0.145
-685.310	-23.087	-0.134	0.082
-684.295	78.993	-0.119	-0.130
-683.281	-178.108	0.241	0.006
-682.266	-200.000	0.037	-0.346
-681.251	800.000	-0.160	0.479
-680.237	800.000	-0.092	0.373
-679.222	72.997	-0.120	-0.128
-678.208	13.020	-0.164	-0.130
-677.193	-149.493	-0.138	-0.011
-676.178	800.000	-0.113	0.361
-675.164	-132.108	0.279	0.037
-674.149	-1.387	0.139	0.100
-673.135	-129.428	0.280	0.040
-672.120	35.032	0.380	-0.339
-671.105	-40.070	0.115	-0.061
-670.091	-139.218	-0.235	-0.026
-669.076	800.000	-0.032	0.145
-668.062	-200.000	-0.002	0.057
-667.047	-100.173	-0.080	-0.020
-666.032	547.174	0.027	0.066
-665.018	-200.000	0.008	-0.180
-664.003	-100.940	-0.236	-0.059
-662.989	-172.996	-0.259	-0.008
-661.974	315.420	0.224	0.431
-660.959	-48.531	-0.272	0.134
-659.945	-85.552	0.138	-0.044
-658.930	-42.010	-0.158	0.083
-657.916	-194.710	-0.448	-0.004
-656.901	18.882	-0.226	0.185
-655.886	92.750	-0.123	0.142
-654.872	-170.449	0.088	0.003
-653.857	-200.000	0.000	0.235
-652.843	-37.345	-0.098	0.053
-651.828	-81.225	-0.178	-0.060
-650.814	-160.632	0.178	0.010
-649.799	800.000	0.057	0.233
-648.784	-35.510	0.035	0.019
-647.770	-134.396	0.167	-0.021
-646.755	-200.000	0.004	-0.112
-645.741	495.214	-0.215	-0.504
-644.726	-200.000	-0.115	-0.602
-643.711	463.342	-0.063	-0.143
-642.697	-21.463	0.017	0.010
-641.682	427.967	0.083	-0.183
-640.668	22.376	-0.066	-0.055
-639.653	113.066	-0.227	-0.280
-638.638	6.147	0.246	0.185
-637.624	0.255	0.104	0.076
-636.609	800.000	-0.035	-0.103
-635.595	13.431	-0.175	-0.138
-634.580	-200.000	0.022	0.246
-633.565	-150.218	0.209	0.016
-632.551	-20.789	-0.269	-0.168
-631.536	323.221	0.173	-0.335
-630.522	-115.392	-0.343	0.066
-629.507	800.000	-0.080	0.289
-628.492	-200.000	0.026	0.167
-627.478	-127.276	-0.204	0.030
-626.463	-74.061	0.056	-0.021
-625.449	800.000	-0.040	-0.142
-624.434	-178.854	-0.359	-0.008
-623.419	89.673	0.191	-0.217
-622.405	-75.156	0.165	0.060
-621.390	-79.764	0.162	-0.056
-620.376	30.701	0.061	-0.053
-619.361	-161.795	-0.364	0.019
-618.346	-23.737	-0.162	-0.099
-617.332	-40.014	-0.354	-0.188
-616.317	696.898	0.118	-0.314
-615.303	-115.501	0.203	-0.039
-614.288	-37.215	0.204	0.111
-613.273	191.211	-0.107	-0.163
-612.259	-48.624	-0.460	0.225
-611.244	-97.026	-0.416	0.111
-610.230	-200.000	-0.034	0.195
-609.215	257.555	0.113	-0.198
-608.201	-13.346	0.104	0.069
-607.186	-143.958	-0.228	-0.022
-606.171	-163.993	0.329	-0.016
-605.157	-200.000	-0.018	0.124
-604.142	82.059	0.225	-0.248
-603.128	-200.000	-0.015	-0.200
-602.113	-74.353	0.160	-0.059
-601.098	73.396	-0.099	0.105
-600.084	-143.212	-0.254	0.025
-599.069	-136.712	0.216	0.025
-598.055	-112.726	0.132	-0.027
-597.040	-129.301	-0.284	-0.040
-596.025	195.598	0.139	-0.215
-595.011	36.684	0.397	0.356
-593.996	148.428	-0.132	-0.181
-592.982	253.011	-0.134	-0.232
-591.967	351.586	-0.051	-0.103
-590.952	766.024	-0.083	0.229
-589.938	-200.000	-0.002	0.117
-588.923	-40.558	-0.340	0.180
-587.909	-161.597	0.473	-0.025
-586.894	-200.000	0.041	0.309
-585.879	-200.000	0.005	-0.162
-584.865	-155.043	-0.481	-0.032
-583.850	800.000	0.083	0.324
-582.836	208.257	0.166	0.264
-581.821	173.021	-0.190	0.278
-580.806	155.851	0.133	0.186
-579.792	-57.146	-0.197	0.088
-578.777	21.465	-0.145	0.120
-577.763	178.111	-0.144	-0.214
-576.748	224.549	0.117	0.191
-575.733	800.000	0.032	0.132
-574.719	-73.769	0.178	0.066
-573.704	395.109	0.085	-0.180
-572.690	800.000	0.040	-0.125
-571.675	-78.910	-0.326	0.113
-570.661	412.541	0.158	-0.342
-569.646	-200.000	0.051	0.303
-568.631	-20.056	-0.082	0.051
-567.617	-118.623	0.253	0.045
-566.602	-200.000	-0.033	-0.384
-565.588	28.112	0.112	-0.096
-564.573	-128.635	0.196	0.028
-563.558	-200.000	0.003	0.220
-562.544	117.098	-0.105	0.132
-561.529	-200.000	-0.015	-0.372
-560.515	45.972	-0.190	0.178
-559.500	-112.849	-0.066	0.013
-558.485	-76.461	-0.310	0.111
-557.471	-200.000	0.002	-0.258
-556.456	196.690	0.055	-0.085
-555.442	226.106	-0.004	0.006
-554.427	29.577	0.036	0.031
-553.412	800.000	-0.033	-0.102
-552.398	800.000	0.106	-0.307
-551.383	101.644	-0.095	0.113
-550.369	63.081	-0.169	0.172
-549.354	-44.912	-0.253	-0.128
-548.339	-94.319	-0.361	-0.100
-547.325	128.295	0.124	0.160
-546.310	800.000	-0.129	-0.368
-545.296	-105.339	-0.328	0.076
-544.281	-133.378	-0.355	0.045
-543.266	-71.746	0.174	-0.066
-542.252	800.000	-0.016	-0.057
-541.237	-200.000	0.006	0.251
-540.223	-200.000	0.008	-0.103
-539.208	187.736	-0.353	-0.535
-538.193	120.629	0.123	0.155
-537.179	-200.000	0.011	-0.348
-536.164	-200.000	-0.018	0.134
-535.150	-12.874	0.132	-0.087
-534.135	800.000	0.116	0.396
-533.121	268.907	0.002	-0.004
-532.106	452.501	-0.139	0.312
-531.091	800.000	-0.029	-0.101
-530.077	-74.176	-0.123	0.045
-529.062	800.000	-0.025	-0.110
-528.048	-51.219	0.330	-0.157
-527.033	277.390	0.083	0.149
-526.018	50.694	-0.160	0.153
-525.004	-200.000	0.027	-0.274
-523.989	-31.117	0.192	-0.110
-522.975	-26.536	0.317	-0.188
-521.960	175.723	-0.197	-0.289
-520.945	-200.000	0.027	0.128
-519.931	-57.461	0.267	0.119
-518.916	-84.190	-0.308	0.099
-517.902	51.482	0.027	-0.026
-516.887	-164.637	0.184	-0.008
-515.872	800.000	-0.023	0.067
-514.858	-70.517	-0.129	-0.049
-513.843	699.065	-0.046	-0.124
-512.829	-200.000	0.016	-0.418
-511.814	-1.785	-0.053	0.038
-510.799	800.000	0.036	0.127
-509.785	-200.000	-0.023	0.105
-508.770	-60.782	0.310	-0.133
-507.756	45.710	0.140	0.131
-506.741	522.490	0.083	0.197
-505.726	-138.013	0.163	0.018
-504.712	-32.281	0.070	0.040
-503.697	800.000	0.136	-0.423
-502.683	800.000	0.052	-0.167
-501.668	-125.887	-0.128	-0.020
-500.653	-122.549	-0.346	0.057
-499.639	142.003	0.059	0.080
-498.624	16.073	-0.176	-0.140
-497.610	-160.653	0.151	0.008
-496.595	206.091	0.120	0.190
-495.581	800.000	0.085	0.277
-494.566	-162.782	-0.189	-0.009
-493.551	95.055	0.097	-0.111
-492.537	641.745	0.086	0.223
-491.522	-200.000	-0.027	0.170
-490.508	-124.055	-0.497	-0.079
-489.493	-34.703	0.102	-0.056
-488.478	94.318	0.118	0.136
-487.464	52.442	0.197	0.191
-486.449	-101.740	0.211	-0.052
-485.435	-104.860	-0.133	-0.031
-484.420	237.694	0.095	-0.159
-483.405	-42.641	0.100	-0.051
-482.391	41.974	0.097	0.089
-481.376	800.000	0.097	0.348
-480.362	800.000	-0.056	0.239
-479.347	796.685	0.040	0.113
-478.332	800.000	-0.154	-0.499
-477.318	800.000	-0.033	0.127
-476.303	-34.787	-0.274	-0.151
-475.289	79.516	0.125	-0.136
-474.274	-150.556	-0.133	0.010
-473.259	-170.440	0.194	-0.007
-472.245	-86.435	-0.383	-0.119
-471.230	-200.000	-0.033	0.169
-470.216	-51.593	-0.187	0.088
-469.201	-56.061	0.246	0.111
-468.186	-200.000	-0.068	-0.397
-467.172	58.548	0.144	0.143
-466.157	-23.638	0.099	0.060
-465.143	-109.067	0.081	0.017
-464.128	800.000	-0.042	-0.185
-463.113	-200.000	-0.021	-0.177
-462.099	-200.000	-0.102	0.527
-461.084	-113.307	-0.087	-0.017
-460.070	177.711	-0.120	0.177
-459.055	24.744	-0.079	-0.066
-458.040	-40.238	-0.504	-0.265
-457.026	-75.961	0.119	-0.042
-456.011	-63.254	-0.292	-0.122
-454.997	81.910	-0.154	-0.169
-453.982	-181.676	-0.222	0.004
-452.968	800.000	0.051	-0.222
-451.953	-123.221	0.109	0.018
-450.938	-64.108	0.354	-0.146
-449.924	-88.916	-0.295	-0.088
-448.909	-69.021	-0.096	0.038
-447.895	9.576	-0.065	-0.049
-446.880	-52.745	0.055	0.026
-445.865	69.794	0.088	0.092
-444.851	18.557	-0.212	-0.171
-443.836	-11.732	0.376	0.250
-442.822	90.213	-0.137	0.154
-441.807	462.005	0.104	0.235
-440.792	79.639	0.079	0.086
-439.778	-59.365	0.290	-0.126
-438.763	22.301	-0.124	-0.103
-437.749	-73.251	0.270	0.100
-436.734	256.869	0.045	-0.078
-435.719	-88.581	-0.352	0.106
-434.705	-200.000	0.010	-0.376
-433.690	161.013	-0.257	0.363
-432.676	213.164	-0.144	0.230
-431.661	-101.241	0.137	-0.034
-430.646	-5.478	-0.181	-0.125
-429.632	-51.992	0.223	0.105
-428.617	294.315	-0.193	0.356
-427.603	800.000	-0.054	0.209
-426.588	-159.061	-0.200	-0.011
-425.573	-200.000	0.029	0.250
-424.559	286.451	-0.138	0.252
-423.544	-61.472	0.376	0.160
-422.530	116.088	0.182	0.225
-421.515	191.946	-0.022	-0.033
-420.500	-96.796	-0.115	0.030
-419.486	-89.700	-0.234	-0.069
-418.471	-65.171	0.212	-0.086
-417.457	-200.000	-0.060	0.267
-416.442	-200.000	0.057	0.289
-415.428	800.000	0.046	-0.200
-414.413	-23.819	0.114	0.069
-413.398	195.433	0.152	-0.232
-412.384	71.079	-0.093	-0.097
-411.369	-200.000	-0.041	-0.257
-410.355	134.195	-0.036	-0.047
-409.340	345.754	-0.158	-0.314
-408.325	54.295	0.280	-0.272
-407.311	-36.687	-0.300	-0.163
-406.296	1.524	-0.176	-0.128
-405.282	117.689	-0.133	-0.165
-404.267	-75.472	0.208	0.075
-403.252	-118.009	0.203	0.037
-402.238	-175.627	0.344	-0.009
-401.223	-108.476	-0.224	-0.049
-400.209	800.000	0.082	0.232
-399.194	-200.000	-0.041	0.206
-398.179	-117.700	-0.258	-0.047
-397.165	-200.000	0.025	-0.196
-396.150	-115.667	0.227	0.043
-395.136	-198.218	-0.256	0.002
-394.121	-58.190	0.170	-0.075
-393.106	-20.192	-0.167	0.104
-392.092	-59.895	0.158	-0.068
-391.077	-200.000	0.034	0.193
-390.063	102.104	-0.165	-0.195
-389.048	-128.449	0.157	0.022
-388.033	-106.939	-0.382	-0.085
-387.019	100.960	0.074	0.087
-386.004	-109.415	0.231	-0.049
-384.990	-200.000	-0.034	-0.156
-383.975	-37.435	-0.210	-0.113
-382.960	-28.810	0.126	0.073
-381.946	-200.000	-0.022	-0.111
-380.931	-3.167	0.092	-0.064
-379.917	56.221	0.283	0.278
-378.902	-126.181	-0.161	0.024
-377.888	102.451	0.188	0.222
-376.873	73.542	-0.131	-0.139
-375.858	-200.000	-0.023	-0.318
-374.844	-46.640	-0.182	-0.090
-373.829	-64.827	0.064	0.026
-372.815	30.063	-0.038	0.032
-371.800	-34.697	0.269	0.148
-370.785	458.840	-0.143	0.321
-369.771	-101.314	0.104	-0.026
-368.756	800.000	0.070	0.225
-367.742	-200.000	0.046	-0.299
-366.727	446.004	-0.038	0.084
-365.712	438.596	0.040	0.088
-364.698	143.090	0.160	-0.215
-363.683	169.695	-0.195	0.281
-362.669	-87.942	0.252	0.076
-361.654	-134.702	0.315	-0.039
-360.639	617.932	-0.038	-0.097
-359.625	123.187	0.045	-0.057
-358.610	444.045	-0.079	-0.174
-357.596	-200.000	-0.040	-0.194
-356.581	800.000	0.024	-0.068
-355.566	16.763	0.221	0.176
-354.552	783.017	0.093	0.257
-353.537	38.343	0.421	0.378
-352.523	-200.000	0.001	0.073
-351.508	-22.260	0.099	0.061
-350.493	-105.259	-0.297	-0.068
-349.479	-134.824	-0.433	0.053
-348.464	-78.065	0.120	-0.042
-347.450	735.063	0.037	0.100
-346.435	43.455	0.080	0.074
-345.420	-113.309	-0.201	0.040
-344.406	42.478	0.088	0.081
-343.391	-138.561	0.075	-0.008
-342.377	-200.000	0.049	0.275
-341.362	-119.876	-0.130	0.023
-340.348	-199.508	-0.089	0.000
-339.333	49.059	0.176	-0.166
-338.318	-200.000	-0.001	0.179
-337.304	800.000	0.039	-0.118
-336.289	28.547	0.272	-0.232
-335.275	42.677	0.057	0.052
-334.260	-187.183	-0.066	0.001
-333.245	-200.000	-0.003	0.157
-332.231	-200.000	0.009	-0.153
-331.216	-200.000	-0.042	-0.262
-330.202	-200.000	0.017	-0.099
-329.187	454.298	-0.087	0.193
-328.172	-109.740	0.063	0.013
-327.158	-135.320	0.291	-0.035
-326.143	-63.509	-0.056	0.023
-325.129	364.740	-0.009	0.018
-324.114	-200.000	0.068	0.402
-323.099	-200.000	-0.004	-0.335
-322.085	800.000	-0.107	-0.382
-321.070	-200.000	0.020	-0.150
-320.056	-132.977	-0.289	-0.037
-319.041	-200.000	0.083	0.457
-318.026	48.166	-0.084	0.079
-317.012	-42.684	0.045	0.023
-315.997	410.527	0.124	0.265
-314.983	-85.976	-0.391	-0.121
-313.968	299.895	0.018	0.033
-312.953	-92.408	0.294	-0.083
-311.939	-185.488	-0.263	0.004
-310.924	779.004	0.094	-0.257
-309.910	-10.452	0.178	-0.119
-308.895	98.437	0.232	0.269
-307.880	123.438	-0.199	0.251
-306.866	304.881	-0.053	0.099
-305.851	-55.350	-0.155	-0.070
-304.837	-200.000	-0.031	-0.220
-303.822	288.831	0.135	-0.246
-302.807	800.000	0.045	-0.165
-301.793	-200.000	0.000	-0.059
-300.778	-8.727	-0.364	0.246
-299.764	-200.000	-0.045	0.252
-298.749	504.537	-0.019	0.044
-297.735	208.712	-0.144	-0.226
-296.720	-200.000	-0.015	-0.208
-295.705	-81.588	0.231	0.076
-294.691	-120.962	-0.060	-0.010
-293.676	-200.000	-0.012	0.229
-292.662	-200.000	-0.025	-0.190
-291.647	-127.669	0.173	-0.025
-290.632	-138.603	0.096	0.011
-289.618	-114.830	-0.167	-0.032
-288.603	-200.000	0.039	0.196
-287.589	-200.000	-0.008	0.172
-286.574	-79.890	-0.117	-0.039
-285.559	195.263	-0.130	0.199
-284.545	-3.556	0.139	0.097
-283.530	42.472	0.131	-0.120
-282.516	11.122	0.172	0.132
-281.501	-1.909	0.139	-0.098
-280.486	800.000	0.060	-0.181
-279.472	-186.949	0.023	0.000
-278.457	-36.158	-0.073	0.040
-277.443	-200.000	-0.021	0.183
-276.428	-200.000	0.017	0.111
-275.413	-101.282	0.305	0.075
-274.399	800.000	-0.187	-0.633
-273.384	-159.846	0.210	0.012
-272.370	29.625	0.247	-0.211
-271.355	51.727	-0.150	0.143
-270.340	-75.396	-0.444	0.159
-269.326	-15.641	0.257	-0.164
-268.311	488.986	0.076	-0.174
-267.297	-161.163	0.134	0.007
-266.282	-71.485	0.074	0.028
-265.267	800.000	0.045	-0.131
-264.253	-85.206	0.425	-0.133
-263.238	-105.134	0.242	0.056
-262.224	-59.893	0.308	0.132
-261.209	4.623	-0.289	0.213
-260.195	-20.348	-0.251	0.155
-259.180	-20.269	-0.072	0.045
-258.165	-72.156	0.158	0.059
-257.151	-200.000	0.013	0.168
-256.136	-200.000	0.008	-0.100
-255.122	228.691	-0.075	0.122
-254.107	0.961	-0.060	-0.043
-253.092	619.760	0.102	0.256
-252.078	798.390	0.091	0.252
-251.063	67.720	-0.068	0.069
-250.049	-46.313	-0.160	-0.079
-249.034	-22.783	0.101	0.061
-248.019	78.670	-0.224	-0.240
-247.005	450.836	-0.019	-0.042
-245.990	118.385	-0.120	0.148
-244.976	800.000	-0.056	-0.217
-243.961	-18.144	-0.064	0.040
-242.946	-18.155	0.244	0.153
-241.932	-159.579	0.173	0.010
-240.917	-38.554	0.356	0.189
-239.903	91.887	-0.125	0.141
-238.888	-200.000	-0.037	-0.196
-237.873	114.491	-0.082	-0.100
-236.859	170.451	0.268	0.385
-235.844	91.829	-0.151	0.170
-234.830	345.372	-0.107	0.211
-233.815	584.803	-0.083	0.203
-232.800	68.163	0.072	-0.074
-231.786	-200.000	-0.025	-0.232
-230.771	-165.409	-0.484	0.021
-229.757	-136.452	0.078	-0.009
-228.742	10.378	0.184	-0.140
-227.727	147.118	-0.196	0.264
-226.713	-200.000	0.019	-0.170
-225.698	204.102	0.103	0.160
-224.684	106.557	0.459	0.545
-223.669	80.621	-0.212	-0.229
-222.655	-117.033	-0.358	0.066
-221.640	247.640	-0.055	-0.094
-220.625	-200.000	-0.067	-0.302
-219.611	800.000	0.050	-0.206
-218.596	-50.836	-0.131	-0.061
-217.582	376.144	0.153	0.313
-216.567	169.108	0.156	-0.223
-215.552	-95.510	0.147	0.039
-214.538	229.094	0.246	0.402
-213.523	765.805	0.062	0.169
-212.509	-200.000	-0.010	-0.178
-211.494	-82.342	0.130	0.042
-210.479	-131.327	0.250	-0.033
-209.465	800.000	0.045	0.140
-208.450	-24.355	0.303	0.181
-207.436	-32.665	0.088	0.049
-206.421	0.240	0.299	0.214
-205.406	-3.907	0.285	0.198
-204.392	-200.000	0.022	-0.237
-203.377	-126.497	-0.066	-0.010
-202.363	-57.488	0.221	-0.097
-201.348	21.766	-0.067	0.055
-200.333	401.789	0.071	-0.150
-199.319	-115.975	-0.115	-0.021
-198.304	118.627	0.049	-0.060
-197.290	28.541	-0.340	-0.288
-196.275	39.749	0.124	0.111
-195.260	131.142	-0.179	-0.230
-194.246	133.288	-0.108	-0.140
-193.231	99.304	-0.244	0.282
-192.217	-72.304	0.313	0.116
-191.202	58.753	0.193	0.189
-190.187	-138.488	-0.165	0.018
-189.173	-200.000	-0.027	0.215
-188.158	15.830	0.101	-0.080
-187.144	9.994	-0.098	0.074
-186.129	-60.629	0.370	-0.157
-185.114	4.717	-0.207	-0.152
-184.100	390.483	-0.047	0.097
-183.085	39.976	0.184	0.166
-182.071	-43.143	-0.324	0.164
-181.056	-154.220	-0.180	-0.012
-180.042	310.615	0.024	-0.045
-179.027	226.226	0.146	-0.237
-178.012	214.465	-0.238	-0.376
-176.998	3.386	0.091	0.066
-175.983	-200.000	0.008	-0.057
-174.969	-200.000	-0.003	0.195
-173.954	-94.247	-0.255	-0.070
-172.939	-200.000	0.001	-0.172
-171.925	64.680	0.116	-0.117
-170.910	-32.128	-0.156	-0.087
-169.896	8.748	0.468	-0.352
-168.881	523.557	-0.126	-0.295
-167.866	800.000	0.032	0.097
-166.852	-200.000	-0.028	0.124
-165.837	95.350	-0.111	0.127
-164.823	-120.716	-0.265	0.045
-163.808	496.369	0.053	0.121
-162.793	-44.042	0.176	0.088
-161.779	800.000	0.094	0.277
-160.764	-112.300	-0.256	0.051
-159.750	-128.714	0.121	0.017
-158.735	-154.035	-0.158	-0.011
-157.720	-200.000	0.054	-0.272
-156.706	101.295	-0.159	-0.185
-155.691	330.931	-0.061	-0.118
-154.677	-132.518	0.170	-0.022
-153.662	800.000	0.052	-0.153
-152.647	54.437	0.343	-0.330
-151.633	192.901	-0.218	0.330
-150.618	272.976	-0.095	-0.167
-149.604	-48.368	0.293	-0.141
-148.589	22.001	0.083	-0.068
-147.574	-23.677	-0.202	0.121
-146.560	-200.000	0.054	0.320
-145.545	-117.637	-0.090	-0.016
-144.531	-13.430	0.113	-0.073
-143.516	-134.957	-0.119	-0.014
-142.502	-73.888	0.191	-0.069
-141.487	324.984	-0.187	-0.357
-140.472	54.445	0.101	0.098
-139.458	800.000	-0.014	0.056
-138.443	495.367	-0.079	0.181
-137.429	-200.000	-0.004	0.113
-136.414	-1.401	-0.102	-0.072
-135.399	-165.968	-0.396	-0.017
-134.385	-10.323	0.314	-0.208
-133.370	-130.067	0.210	-0.029
-132.356	-193.519	-0.274	0.002
-131.341	800.000	-0.073	-0.225
-130.326	-29.352	0.396	0.226
-129.312	-25.130	-0.153	-0.091
-128.297	-200.000	0.046	-0.219
-127.283	-67.942	0.240	0.094
-126.268	-130.913	-0.217	0.029
-125.253	-19.177	0.219	0.136
-124.239	47.897	-0.110	0.103
-123.224	247.430	0.123	0.207
-122.210	-174.830	0.206	0.006
-121.195	-151.412	0.210	-0.016
-120.180	582.209	-0.078	-0.191
-119.166	508.933	0.144	0.334
-118.151	-54.286	-0.115	-0.052
-117.137	-65.691	0.150	0.060
-116.122	441.244	0.053	-0.116
-115.107	-200.000	0.094	0.487
-114.093	41.773	0.184	0.167
-113.078	78.134	-0.107	0.114
-112.064	-66.522	-0.007	0.003
-111.049	-185.502	-0.165	-0.003
-110.034	-5.127	0.326	-0.223
-109.020	-51.082	0.157	0.073
-108.005	-81.039	0.148	-0.049
-106.991	208.347	-0.236	0.367
-105.976	-200.000	-0.019	-0.295
-104.962	166.859	-0.099	0.141
-103.947	-135.062	-0.238	0.029
-102.932	-200.000	0.007	-0.092
-101.918	-200.000	-0.000	-0.137
-100.903	-82.217	-0.164	-0.053
-99.889	414.531	-0.184	0.390
-98.874	547.376	-0.102	0.244
-97.859	800.000	0.138	0.425
-96.845	293.712	0.084	-0.153
-95.830	800.000	-0.029	0.124
-94.816	84.058	-0.069	-0.075
-93.801	-155.343	0.032	0.002
-92.786	-200.000	-0.030	0.188
-91.772	252.857	0.080	-0.136
-90.757	-200.000	0.026	-0.185
-89.743	-200.000	0.089	-0.402
-88.728	-105.629	0.141	0.032
-87.713	-82.733	0.346	-0.112
-86.699	-179.630	0.165	0.004
-85.684	-89.371	0.328	-0.096
-84.670	208.942	0.118	-0.184
-83.655	291.469	0.120	-0.217
-82.640	373.442	0.030	-0.061
-81.626	330.313	-0.097	-0.186
-80.611	-113.865	0.120	0.023
-79.597	32.094	0.074	0.063
-78.582	-64.842	-0.323	0.130
-77.567	800.000	-0.029	0.100
-76.553	141.093	0.136	0.179
-75.538	-128.474	-0.385	0.054
-74.524	-200.000	0.000	-0.009
-73.509	122.309	0.070	-0.087
-72.494	143.944	-0.154	-0.204
-71.480	21.242	0.163	0.132
-70.465	90.418	0.175	0.195
-69.451	-200.000	0.033	-0.206
-68.436	-165.431	-0.345	0.015
-67.422	26.972	0.089	0.074
-66.407	196.997	-0.102	-0.155
-65.392	-72.833	-0.225	0.083
-64.378	56.690	0.401	-0.389
-63.363	-99.506	-0.123	0.031
-62.349	65.270	-0.140	0.141
-61.334	16.052	-0.672	-0.527
-60.319	-160.186	0.360	-0.019
-59.305	-200.000	-0.020	-0.755
-58.290	-26.038	0.822	0.481
-57.276	405.985	0.802	1.684
-56.261	-200.000	83.416	508.262
-55.246	487.695	1359.247	3087.844
-54.232	146.499	2583.551	3453.534
-53.217	111.351	2239.541	2686.861
-52.203	50.040	1690.635	1587.791
-51.188	42.615	1421.423	1287.567
-50.173	39.179	1377.390	1226.247
-49.159	57.046	1418.636	1376.290
-48.144	62.206	1437.322	1426.984
-47.130	42.953	1396.580	1266.990
-46.115	39.313	1379.040	1228.360
-45.100	39.057	1374.233	1222.436
-44.086	38.942	1372.254	1219.908
-43.071	38.813	1369.839	1216.917
-42.057	38.903	1367.315	1215.178
-41.042	38.938	1366.067	1214.237
-40.027	38.987	1364.520	1213.117
-39.013	39.085	1362.329	1211.725
-37.998	38.956	1360.708	1209.444
-36.984	38.990	1359.011	1208.093
-35.969	39.093	1356.918	1206.823
-34.954	39.114	1354.914	1205.122
-33.940	39.153	1354.170	1204.647
-32.925	39.210	1352.425	1203.397
-31.911	39.236	1350.863	1202.121
-30.896	39.287	1349.807	1201.441
-29.881	39.223	1348.124	1199.506
-28.867	39.168	1346.922	1198.057
-27.852	39.306	1344.812	1196.972
-26.838	39.235	1343.489	1195.312
-25.823	39.192	1341.951	1193.634
-24.809	39.223	1340.206	1192.227
-23.794	39.170	1339.383	1191.126
-22.779	39.219	1337.961	1190.107
-21.765	39.185	1336.558	1188.607
-20.750	39.171	1335.292	1187.348
-19.736	39.195	1333.864	1186.179
-18.721	39.049	1332.980	1184.464
-17.706	39.091	1331.489	1183.348
-16.692	39.153	1330.089	1182.431
-15.677	39.107	1329.522	1181.601
-14.663	39.006	1328.486	1180.023
-13.648	39.123	1326.931	1179.301
-12.633	39.054	1326.125	1178.125
-11.619	39.144	1325.017	1177.632
-10.604	39.064	1324.116	1176.303
-9.590	39.032	1323.269	1175.313
-8.575	39.100	1322.127	1174.662
-7.560	39.092	1321.408	1173.926
-6.546	38.997	1321.162	1173.091
-5.531	39.082	1319.835	1172.379
-4.517	39.098	1318.742	1171.453
-3.502	39.127	1317.762	1170.708
-2.487	39.130	1317.005	1170.009
-1.473	39.121	1312.611	1166.006
-0.458	37.479	1296.976	1142.432
0.556	31.847	1275.246	1090.700
1.571	25.787	1276.759	1056.469
2.586	23.341	1289.562	1052.460
3.600	21.507	1277.135	1031.425
4.615	15.475	1200.746	936.110
5.629	6.189	1118.994	823.844
6.644	1.300	1096.138	781.808
7.659	0.887	1093.584	777.794
8.673	0.795	1092.870	776.747
9.688	0.740	1091.537	775.450
10.702	0.988	1089.731	775.370
11.717	5.740	1096.022	804.198
12.731	13.859	1106.733	853.901
13.746	17.538	1110.739	875.872
14.761	17.540	1110.583	875.686
15.775	16.886	1108.344	870.482
16.790	15.869	1106.542	863.777
17.804	14.929	1104.943	857.632
18.819	14.689	1103.512	855.216
19.834	14.295	1102.741	852.527
20.848	14.065	1101.846	850.585
21.863	13.814	1100.943	848.526
22.877	13.747	1100.033	847.411
23.892	13.771	1099.028	846.681
24.907	13.696	1098.415	845.751
25.921	13.653	1098.125	845.233
26.936	13.775	1097.214	845.080
27.950	13.732	1095.892	843.768
28.965	13.858	1094.574	843.319
29.980	13.877	1093.242	842.313
30.994	13.956	1092.136	841.789
32.009	13.942	1091.031	840.791
33.023	13.865	1089.993	839.527
34.038	13.910	1089.017	838.931
35.053	13.837	1088.183	837.843
36.067	13.957	1086.997	837.462
37.082	13.887	1086.442	836.610
38.096	13.898	1085.551	835.903
39.111	13.910	1085.085	835.531
40.126	13.761	1084.016	833.886
41.140	13.793	1082.230	832.598
42.155	13.686	1081.231	831.221
43.169	13.582	1080.480	830.049
44.184	13.607	1079.540	829.376
45.199	13.681	1078.591	828.947
46.213	13.710	1076.830	827.660
47.228	13.656	1076.314	826.921
48.242	13.807	1074.953	826.555
49.257	13.772	1073.789	825.415
50.271	13.795	1073.288	825.072
51.286	13.883	1072.152	824.563
52.301	13.789	1071.189	823.280
53.315	13.765	1070.323	822.424
54.330	13.637	1069.066	820.750
55.344	13.690	1068.224	820.295
56.359	13.824	1067.352	820.215
57.374	13.716	1066.594	819.025
58.388	13.593	1066.245	818.077
59.403	13.758	1064.923	817.805
60.417	13.514	1064.648	816.320
61.432	13.597	1063.491	815.770
62.447	13.589	1062.518	814.911
63.461	13.719	1061.930	815.028
64.476	13.637	1060.810	813.693
65.490	13.540	1060.333	812.780
66.505	13.662	1059.527	812.688
67.520	13.662	1058.318	811.686
68.534	13.593	1057.831	810.904
69.549	13.584	1057.399	810.455
70.563	13.680	1056.180	809.920
71.578	13.566	1055.658	808.892
72.593	13.572	1054.873	808.247
73.607	13.588	1053.674	807.337
74.622	13.585	1053.323	806.980
75.636	13.615	1052.685	806.565
76.651	13.528	1052.041	805.578
77.666	13.548	1051.268	805.013
78.680	13.406	1050.856	803.939
79.695	13.581	1050.004	804.062
80.709	13.659	1049.142	803.709
81.724	13.511	1048.977	802.794
82.739	13.770	1047.643	802.955
83.753	13.636	1047.098	801.819
84.768	13.693	1046.315	801.426
85.782	13.826	1044.952	800.953
86.797	13.767	1044.292	800.089
87.812	13.854	1043.056	799.490
88.826	13.935	1041.679	798.757
89.841	13.798	1041.064	797.553
90.855	13.738	1040.412	796.698
91.870	13.780	1039.689	796.272
92.884	13.893	1038.424	795.774
93.899	13.893	1037.562	795.046
94.914	13.904	1036.729	794.392
95.928	13.931	1035.974	793.868
96.943	13.943	1034.815	792.970
97.957	13.822	1033.818	791.558
98.972	13.813	1033.430	791.148
99.987	13.805	1032.552	790.367
101.001	13.923	1031.355	789.943
102.016	13.874	1030.288	788.821
103.030	13.883	1029.630	788.293
104.045	13.941	1028.750	787.823
105.060	13.937	1027.991	787.152
106.074	13.775	1027.306	785.791
107.089	13.667	1025.984	784.198
108.103	13.730	1024.972	783.655
109.118	13.678	1024.002	782.599
110.133	13.646	1023.477	781.978
111.147	13.745	1022.272	781.455
112.162	13.725	1021.500	780.700
113.176	13.647	1020.724	779.673
114.191	13.766	1020.030	779.631
115.206	13.952	1018.547	779.303
116.220	13.757	1018.407	778.211
117.235	13.861	1016.873	777.455
118.249	13.793	1016.425	776.729
119.264	13.909	1015.423	776.436
120.279	13.714	1014.881	775.041
121.293	13.718	1013.915	774.255
122.308	13.661	1012.868	773.119
123.322	13.726	1011.945	772.649
124.337	13.809	1010.965	772.218
125.352	13.838	1009.111	770.871
126.366	13.767	1008.629	770.103
127.381	13.651	1007.942	768.972
128.395	13.801	1006.696	768.648
129.410	13.858	1005.678	768.069
130.424	13.800	1005.401	767.519
131.439	13.900	1004.316	767.086
132.454	13.898	1003.448	766.345
133.468	13.880	1002.694	765.620
134.483	14.031	1001.315	765.195
135.497	13.974	1000.632	764.340
136.512	13.953	1000.280	763.907
137.527	13.936	999.254	762.978
138.541	13.944	998.363	762.270
139.556	13.820	997.949	761.313
140.570	14.022	997.072	761.505
141.585	13.982	996.102	760.515
142.600	14.055	995.115	760.027
143.614	14.185	993.970	759.680
144.629	14.124	993.298	758.821
145.643	14.179	992.285	758.228
146.658	14.008	991.674	756.918
147.673	13.971	990.695	755.935
148.687	14.024	989.940	755.533
149.702	14.017	988.698	754.485
150.716	13.996	988.339	754.047
151.731	13.851	987.763	752.884
152.746	14.001	986.705	752.690
153.760	13.989	985.882	751.944
154.775	14.100	985.456	752.053
155.789	14.108	984.531	751.317
156.804	14.099	983.827	750.673
157.819	14.023	983.123	749.726
158.833	14.155	982.443	749.735
159.848	14.212	981.625	749.304
160.862	14.114	980.758	748.134
161.877	13.954	980.064	746.817
162.892	14.092	979.138	746.666
163.906	14.033	978.074	745.527
164.921	14.073	976.898	744.740
165.935	14.068	975.981	743.955
166.950	14.197	974.901	743.644
167.964	14.158	974.219	742.882
168.979	14.051	973.532	741.815
169.994	14.141	972.601	741.440
171.008	14.121	971.656	740.566
172.023	14.039	971.348	739.899
173.037	14.166	970.021	739.387
174.052	14.258	969.584	739.398
175.067	14.169	968.382	738.023
176.081	14.116	968.431	737.757
177.096	14.152	967.506	737.148
178.110	14.202	966.966	736.892
179.125	14.162	966.474	736.277
180.140	14.233	965.685	735.923
181.154	14.286	965.319	735.814
182.169	14.444	964.380	735.733
183.183	14.346	963.978	734.926
184.198	14.277	963.484	734.180
185.213	14.196	962.819	733.253
186.227	14.240	962.412	733.073
187.242	14.431	961.383	733.065
188.256	14.455	960.567	732.480
189.271	14.469	959.615	731.750
190.286	14.353	958.736	730.510
191.300	14.165	958.593	729.510
192.315	14.153	958.084	729.007
193.329	14.212	957.346	728.638
194.344	14.376	956.357	728.536
195.359	14.182	956.330	727.604
196.373	14.446	955.228	727.855
197.388	14.388	954.836	727.236
198.402	14.565	954.026	727.328
199.417	14.377	953.633	726.144
200.432	14.655	952.397	726.351
201.446	14.612	952.465	726.151
202.461	14.643	951.606	725.566
203.475	14.599	951.123	724.941
204.490	14.613	950.228	724.259
205.504	14.548	949.722	723.526
206.519	14.505	949.039	722.755
207.534	14.695	947.861	722.616
208.548	14.591	947.326	721.694
209.563	14.581	946.802	721.187
210.577	14.714	945.902	721.013
211.592	14.710	945.662	720.749
212.607	14.659	944.294	719.423
213.621	14.819	943.683	719.583
214.636	14.705	943.100	718.583
215.650	14.614	942.816	717.914
216.665	14.800	941.418	717.584
217.680	14.884	940.837	717.439
218.694	14.935	940.277	717.165
219.709	14.939	939.416	716.461
220.723	14.921	938.862	715.899
221.738	14.959	938.030	715.364
222.753	14.906	937.510	714.679
223.767	14.876	936.996	714.093
224.782	15.013	936.209	714.015
225.796	15.046	935.580	713.615
226.811	14.981	935.078	712.891
227.826	15.069	933.977	712.364
228.840	15.067	933.268	711.750
229.855	14.991	932.500	710.780
230.869	14.973	931.965	710.231
231.884	14.967	931.157	709.528
232.899	14.867	930.788	708.760
233.913	14.950	929.760	708.267
234.928	14.840	929.731	707.716
235.942	14.851	928.874	707.045
236.957	14.854	928.237	706.513
237.972	15.026	927.656	706.736
238.986	14.904	926.993	705.653
240.001	14.974	926.228	705.303
241.015	14.973	925.842	704.942
242.030	14.980	925.202	704.420
243.045	15.062	924.420	704.109
244.059	15.135	923.687	703.794
245.074	15.129	922.813	703.040
246.088	15.051	922.456	702.380
247.103	15.149	922.139	702.488
248.117	15.150	921.793	702.168
249.132	15.329	920.880	702.156
250.147	15.268	919.991	701.164
251.161	15.265	919.314	700.571
252.176	15.351	918.631	700.348
253.190	15.266	918.078	699.511
254.205	15.335	917.466	699.268
255.220	15.444	916.227	698.718
256.234	15.421	916.056	698.430
257.249	15.593	914.981	698.265
258.263	15.561	914.136	697.425
259.278	15.560	913.300	696.718
260.293	15.473	912.908	695.998
261.307	15.590	912.558	696.154
262.322	15.619	911.698	695.559
263.336	15.602	910.907	694.823
264.351	15.730	910.410	694.910
265.366	15.592	909.725	693.756
266.380	15.674	909.052	693.518
267.395	15.645	908.181	692.674
268.409	15.565	907.868	692.044
269.424	15.753	906.702	691.868
270.439	15.578	906.381	690.843
271.453	15.652	905.494	690.409
272.468	15.665	905.100	690.101
273.482	15.661	904.574	689.622
274.497	15.684	903.732	689.015
275.512	15.761	903.120	688.802
276.526	15.807	902.451	688.417
277.541	15.671	902.459	687.806
278.555	15.704	901.635	687.252
279.570	15.816	900.754	686.980
280.585	15.794	900.386	686.548
281.599	15.940	899.622	686.498
282.614	15.939	898.952	685.923
283.628	15.905	897.687	684.757
284.643	15.916	897.330	684.471
285.657	15.837	897.144	683.945
286.672	15.929	896.224	683.558
287.687	15.919	895.878	683.193
288.701	15.961	894.937	682.585
289.716	16.020	894.380	682.338
290.730	16.015	893.666	681.713
291.745	16.028	893.074	681.256
292.760	16.124	892.214	680.926
293.774	16.088	891.816	680.417
294.789	15.962	890.922	679.167
295.803	16.084	890.321	679.138
296.818	16.112	889.281	678.400
297.833	16.171	889.048	678.399
298.847	16.123	888.231	677.524
299.862	16.099	887.472	676.786
300.876	16.152	887.140	676.689
301.891	16.085	886.719	676.037
302.906	16.241	885.946	676.011
303.920	16.283	885.289	675.619
304.935	16.372	884.392	675.233
305.949	16.375	884.093	674.957
306.964	16.129	883.920	673.781
307.979	16.210	883.173	673.474
308.993	16.191	882.609	672.909
310.008	16.401	881.543	672.872
311.022	16.338	881.006	672.154
312.037	16.364	880.701	671.966
313.052	16.157	880.524	670.949
314.066	16.221	879.353	670.252
315.081	16.277	878.847	670.026
316.095	16.327	878.241	669.704
317.110	16.410	877.754	669.601
318.125	16.324	877.361	668.902
319.139	16.311	876.504	668.137
320.154	16.393	876.246	668.209
321.168	16.461	875.723	668.019
322.183	16.386	875.303	667.340
323.197	16.341	874.409	666.426
324.212	16.435	874.171	666.553
325.227	16.440	873.451	665.966
326.241	16.480	872.876	665.626
327.256	16.494	872.008	664.962
328.270	16.443	871.711	664.473
329.285	16.514	870.810	664.009
330.300	16.590	870.487	664.001
331.314	16.504	869.751	663.043
332.329	16.506	869.661	662.923
333.343	16.546	868.985	662.506
334.358	16.615	868.736	662.528
335.373	16.565	868.365	661.992
336.387	16.596	867.899	661.701
337.402	16.613	867.660	661.525
338.416	16.664	867.298	661.390
339.431	16.725	866.718	661.125
340.446	16.728	866.232	660.710
341.460	16.869	865.845	660.906
342.475	16.795	865.482	660.280
343.489	16.812	865.093	659.993
344.504	16.854	864.512	659.656
345.519	16.990	863.825	659.600
346.533	16.844	863.327	658.594
347.548	16.740	862.623	657.595
348.562	16.755	861.963	657.092
349.577	16.772	861.785	656.965
350.592	16.825	861.196	656.662
351.606	16.717	860.715	655.821
352.621	16.910	859.566	655.632
353.635	16.938	859.135	655.355
354.650	16.772	858.664	654.295
355.665	16.863	858.084	654.148
356.679	16.970	857.110	653.759
357.694	16.909	856.674	653.133
358.708	16.926	856.218	652.794
359.723	17.053	855.056	652.339
360.738	16.972	854.723	651.715
361.752	17.043	854.126	651.476
362.767	17.153	853.227	651.154
363.781	17.119	852.770	650.616
364.796	17.103	852.305	650.142
365.810	17.222	852.031	650.332
366.825	17.108	851.689	649.577
367.840	17.173	851.225	649.415
368.854	17.223	850.695	649.144
369.869	17.253	850.235	648.848
370.883	17.271	849.585	648.365
371.898	17.343	849.733	648.697
372.913	17.221	849.131	647.713
373.927	17.330	848.882	647.881
374.942	17.249	848.179	646.978
375.956	17.288	847.542	646.585
376.971	17.402	847.097	646.622
377.986	17.261	846.992	645.948
379.000	17.353	846.119	645.575
380.015	17.501	845.346	645.486
381.029	17.369	845.070	644.719
382.044	17.515	844.326	644.648
383.059	17.620	843.495	644.352
384.073	17.502	843.103	643.550
385.088	17.524	842.566	643.167
386.102	17.542	841.692	642.512
387.117	17.434	841.290	641.741
388.132	17.389	840.874	641.196
389.146	17.433	840.541	641.050
390.161	17.569	839.786	640.931
391.175	17.505	839.392	640.333
392.190	17.604	838.561	640.014
393.205	17.474	838.292	639.264
394.219	17.553	838.228	639.454
395.234	17.415	837.701	638.480
396.248	17.589	837.245	638.726
397.263	17.551	836.432	637.910
398.278	17.604	836.275	637.929
399.292	17.603	836.053	637.700
400.307	17.571	835.165	636.849
401.321	17.541	834.720	636.341
402.336	17.629	834.102	636.142
403.350	17.694	833.874	636.152
404.365	17.712	833.407	635.807
405.380	17.699	832.970	635.371
406.394	17.762	832.154	634.926
407.409	17.778	831.903	634.735
408.423	17.818	831.581	634.584
409.438	17.816	831.370	634.361
410.453	17.851	830.786	633.989
411.467	18.023	829.884	633.882
412.482	17.961	829.939	633.636
413.496	17.921	829.572	633.154
414.511	17.872	829.184	632.621
415.526	17.929	828.803	632.486
416.540	17.892	828.334	631.932
417.555	18.033	827.686	631.903
418.569	18.029	827.510	631.700
419.584	17.987	826.750	630.909
420.599	17.970	826.371	630.499
421.613	97.618	1277.468	1405.542
422.628	84.261	1343.194	1405.636
