DTS Sentinel unit serial number:	SN413079Multiplexer serial number:	ORYXHardware model number:	OX4-SRSoftware version number:	ORYX F/W v4.00 Oryx Data Collector v3.7.2.0data status	okinstallation	princeton_trtdifferential loss correction	single-endedforward channel	channel 1reverse channel	N/Adate	2019/09/13time	07:22:35forward acquisition time	60.00reverse acquisition time	0.00gamma	496.2192k internal	0.2335k external	0.2335temperature offset calibration	1.0165default loss term (dB/km)	0.3790temperature slope calibration	1.0000multiplexer offset coefficient	1.0000multiplexer slope coefficient	1.0000fibre end	0.00T internal ref (°C)	26.12T ext. ref 1 (°C)	4.18T ext. ref 2 (°C)	21.67length (m)	temperature (°C)	Stokes	anti-Stokes-747.200	-10.676	-0.088	-0.058
-746.185	800.000	0.095	0.353
-745.171	-152.246	-0.226	-0.016
-744.156	-200.000	0.025	-0.131
-743.142	-40.304	-0.023	-0.012
-742.127	-168.374	-0.217	0.008
-741.112	455.139	-0.065	-0.145
-740.098	800.000	-0.053	0.189
-739.083	-140.509	-0.278	-0.029
-738.069	-88.025	-0.340	0.103
-737.054	-80.255	0.420	-0.141
-736.039	800.000	0.039	-0.155
-735.025	-111.283	-0.129	-0.026
-734.010	-61.697	-0.226	-0.095
-732.996	750.498	0.081	0.218
-731.981	199.266	-0.066	0.102
-730.966	-200.000	-0.027	-0.292
-729.952	-20.143	-0.034	-0.021
-728.937	-135.561	0.190	0.023
-727.923	54.071	0.091	-0.088
-726.908	-75.807	0.391	0.139
-725.894	-200.000	-0.036	0.337
-724.879	73.614	0.145	-0.153
-723.864	146.152	-0.091	-0.122
-722.850	2.261	-0.180	0.131
-721.835	-103.237	0.236	-0.056
-720.821	26.736	-0.325	0.273
-719.806	370.497	0.044	-0.089
-718.791	-200.000	0.062	-0.297
-717.777	116.205	-0.234	0.288
-716.762	53.258	-0.245	0.235
-715.748	22.333	-0.101	-0.083
-714.733	800.000	0.106	-0.300
-713.718	800.000	0.048	-0.182
-712.704	225.742	-0.078	0.127
-711.689	-26.417	-0.150	-0.088
-710.675	20.531	0.221	-0.179
-709.660	-161.052	-0.194	-0.010
-708.645	490.294	-0.056	-0.128
-707.631	-200.000	-0.000	-0.061
-706.616	-159.698	0.098	0.005
-705.602	136.646	-0.141	0.185
-704.587	800.000	-0.029	-0.111
-703.572	276.994	-0.215	0.383
-702.558	35.955	-0.162	-0.143
-701.543	169.904	0.136	-0.195
-700.529	800.000	0.076	-0.242
-699.514	-200.000	-0.020	-0.102
-698.499	267.843	-0.119	-0.210
-697.485	-95.996	-0.069	-0.018
-696.470	800.000	-0.149	0.441
-695.456	-200.000	-0.023	-0.224
-694.441	-118.542	-0.291	-0.052
-693.426	156.373	-0.131	-0.181
-692.412	25.690	0.107	-0.090
-691.397	267.011	-0.097	-0.169
-690.383	74.123	-0.135	0.142
-689.368	800.000	-0.043	0.165
-688.354	-75.452	-0.160	0.057
-687.339	800.000	0.052	-0.205
-686.324	-11.128	0.049	-0.032
-685.310	25.847	-0.143	0.120
-684.295	-13.666	0.240	-0.156
-683.281	800.000	0.046	-0.131
-682.266	343.942	-0.108	-0.212
-681.251	119.193	0.105	-0.130
-680.237	117.590	-0.110	0.135
-679.222	-172.011	-0.304	-0.010
-678.208	-50.742	0.204	0.096
-677.193	156.700	-0.227	0.315
-676.178	-135.223	-0.323	0.039
-675.164	280.092	0.032	-0.058
-674.149	635.541	0.097	-0.246
-673.135	6.930	-0.211	-0.157
-672.120	-130.123	-0.138	0.019
-671.105	800.000	0.022	-0.086
-670.091	800.000	0.061	-0.196
-669.076	4.830	0.335	0.247
-668.062	203.746	-0.087	0.135
-667.047	-200.000	0.009	-0.559
-666.032	-8.879	0.201	-0.135
-665.018	-58.514	0.127	0.055
-664.003	-179.689	-0.209	0.005
-662.989	800.000	-0.045	0.154
-661.974	-86.806	0.108	-0.033
-660.959	-46.626	0.185	0.091
-659.945	-200.000	-0.007	0.285
-658.930	-200.000	-0.040	-0.478
-657.916	27.200	0.083	-0.069
-656.901	-200.000	0.039	-0.273
-655.886	800.000	-0.081	0.328
-654.872	94.119	-0.124	-0.141
-653.857	26.410	-0.172	-0.144
-652.843	97.304	0.086	-0.099
-651.828	-44.861	-0.140	0.070
-650.814	463.291	0.115	-0.258
-649.799	800.000	-0.093	-0.320
-648.784	6.861	-0.100	0.074
-647.770	-199.998	-0.314	0.002
-646.755	-200.000	-0.010	-0.186
-645.741	-144.039	-0.171	-0.016
-644.726	53.056	0.192	0.184
-643.711	71.112	-0.149	0.155
-642.697	480.609	0.052	-0.118
-641.682	26.127	-0.105	-0.088
-640.668	-158.174	0.313	-0.018
-639.653	800.000	0.061	-0.235
-638.638	240.934	-0.140	-0.233
-637.624	800.000	-0.094	0.374
-636.609	-200.000	-0.021	0.260
-635.595	180.606	0.085	-0.125
-634.580	173.684	0.164	-0.236
-633.565	-17.785	0.122	-0.077
-632.551	-200.000	-0.027	-0.201
-631.536	345.857	0.129	0.254
-630.522	55.791	0.225	-0.218
-629.507	-118.256	0.122	-0.022
-628.492	-50.150	0.182	0.086
-627.478	-43.545	-0.016	-0.008
-626.463	-123.217	-0.279	-0.045
-625.449	720.519	0.052	0.137
-624.434	5.429	-0.247	-0.182
-623.419	-200.000	-0.181	0.000
-622.405	800.000	-0.035	0.132
-621.390	800.000	0.118	0.361
-620.376	753.400	-0.172	-0.464
-619.361	-0.340	-0.233	-0.166
-618.346	-200.000	-0.011	-0.272
-617.332	259.925	-0.094	-0.162
-616.317	-185.891	-0.236	-0.004
-615.303	-28.155	-0.381	0.220
-614.288	800.000	-0.115	-0.398
-613.273	-200.000	-0.021	-0.147
-612.259	-200.000	-0.017	-0.172
-611.244	384.230	-0.072	-0.149
-610.230	1.988	0.154	0.111
-609.215	23.587	-0.041	-0.033
-608.201	-200.000	-0.044	-0.358
-607.186	-49.630	-0.024	-0.012
-606.171	-109.760	-0.205	0.043
-605.157	800.000	-0.055	-0.160
-604.142	-144.826	-0.365	0.033
-603.128	6.226	-0.208	-0.154
-602.113	-97.472	0.178	0.046
-601.098	152.307	0.079	-0.108
-600.084	99.298	-0.256	-0.296
-599.069	622.055	0.014	-0.036
-598.055	-82.830	-0.151	-0.049
-597.040	25.531	0.066	0.055
-596.025	22.855	-0.143	0.117
-595.011	-59.044	0.096	0.041
-593.996	395.188	0.024	-0.049
-592.982	800.000	0.068	0.191
-591.967	421.131	0.061	-0.131
-590.952	-91.959	0.019	0.005
-589.938	82.268	-0.061	0.066
-588.923	-48.763	0.172	0.082
-587.909	332.139	-0.125	0.241
-586.894	-47.290	0.199	0.097
-585.879	-44.994	-0.190	0.094
-584.865	-71.643	0.145	-0.054
-583.850	-161.724	-0.086	-0.004
-582.836	800.000	0.121	0.404
-581.821	-135.183	0.225	-0.027
-580.806	107.635	0.182	0.216
-579.792	-83.753	-0.113	0.036
-578.777	39.521	-0.327	0.293
-577.763	140.818	0.069	0.091
-576.748	-200.000	-0.041	0.217
-575.733	-97.331	0.224	0.058
-574.719	-9.411	-0.304	-0.202
-573.704	-200.000	0.006	-0.186
-572.690	50.427	0.172	0.162
-571.675	-37.639	-0.183	-0.097
-570.661	-111.920	-0.137	-0.028
-569.646	-130.370	-0.061	-0.008
-568.631	-200.000	-0.004	-0.181
-567.617	263.769	-0.072	-0.124
-566.602	-70.432	0.200	-0.075
-565.588	-200.000	0.054	0.338
-564.573	-151.777	-0.165	-0.012
-563.558	-174.921	0.163	-0.005
-562.544	-200.000	-0.004	0.048
-561.529	-145.776	0.084	0.007
-560.515	-138.376	0.132	-0.014
-559.500	-0.423	-0.375	-0.265
-558.485	88.549	0.136	0.151
-557.471	800.000	0.024	-0.091
-556.456	-120.663	-0.025	0.004
-555.442	-68.137	0.388	0.151
-554.427	-82.940	-0.227	-0.073
-553.412	-84.114	0.194	-0.061
-552.398	314.377	0.106	0.199
-551.383	-200.000	0.051	-0.254
-550.369	-199.476	-0.329	0.002
-549.354	-185.545	0.278	0.004
-548.339	-127.523	0.119	-0.017
-547.325	49.815	0.183	-0.172
-546.310	26.346	0.034	-0.029
-545.296	800.000	-0.057	-0.190
-544.281	-200.000	-0.007	0.282
-543.266	-200.000	-0.018	0.148
-542.252	-200.000	0.061	0.287
-541.237	-176.807	0.250	-0.006
-540.223	-127.674	-0.191	0.028
-539.208	21.383	-0.051	-0.042
-538.193	-200.000	0.066	-0.327
-537.179	-125.142	0.042	0.006
-536.164	-111.688	0.388	-0.078
-535.150	-200.000	0.050	0.396
-534.135	139.582	0.111	-0.145
-533.121	-35.667	0.142	0.077
-532.106	-150.586	-0.110	0.008
-531.091	-117.415	-0.061	-0.011
-530.077	556.043	-0.051	0.124
-529.062	-141.833	0.306	-0.031
-528.048	-200.000	0.023	-0.214
-527.033	179.005	0.138	0.201
-526.018	-200.000	0.027	-0.307
-525.004	132.144	0.085	0.109
-523.989	529.197	0.135	-0.318
-522.975	-75.172	-0.081	0.029
-521.960	417.267	0.065	0.138
-520.945	-103.348	0.247	0.058
-519.931	88.432	-0.171	-0.189
-518.916	4.672	-0.279	-0.204
-517.902	-33.417	0.133	-0.073
-516.887	-200.000	0.006	0.083
-515.872	-117.929	0.618	-0.110
-514.858	-200.000	0.004	0.176
-513.843	-200.000	0.002	0.085
-512.829	326.702	-0.033	-0.064
-511.814	-200.000	-0.052	-0.234
-510.799	-25.944	-0.124	-0.073
-509.785	-200.000	-0.008	-0.124
-508.770	172.044	-0.135	-0.192
-507.756	-123.054	-0.354	0.057
-506.741	-183.804	0.067	-0.001
-505.726	428.641	-0.071	-0.152
-504.712	800.000	0.039	0.144
-503.697	-200.000	0.055	-0.334
-502.683	16.053	-0.150	0.117
-501.668	479.536	-0.093	0.211
-500.653	-133.661	0.453	-0.056
-499.639	62.814	-0.146	0.146
-498.624	163.743	0.180	0.252
-497.610	-8.846	0.260	0.173
-496.595	97.072	-0.117	-0.134
-495.581	-200.000	0.035	-0.438
-494.566	-47.221	0.105	-0.051
-493.551	454.678	0.142	0.313
-492.537	-200.000	-0.015	0.126
-491.522	-25.268	0.081	0.048
-490.508	569.488	0.181	-0.438
-489.493	-200.000	-0.005	-0.238
-488.478	454.931	-0.033	0.073
-487.464	-143.988	0.034	0.003
-486.449	81.487	0.115	0.124
-485.435	343.357	-0.030	0.058
-484.420	800.000	0.082	-0.304
-483.405	-123.749	-0.256	0.040
-482.391	-200.000	0.009	0.480
-481.376	-76.117	0.216	0.076
-480.362	334.811	-0.235	-0.452
-479.347	52.323	0.019	-0.018
-478.332	-169.037	0.202	0.007
-477.318	245.379	-0.208	0.348
-476.303	-16.416	0.378	0.238
-475.289	-128.481	0.126	-0.018
-474.274	-200.000	-0.696	0.002
-473.259	473.913	0.100	-0.224
-472.245	-123.874	0.050	-0.008
-471.230	-200.000	0.010	-0.064
-470.216	-173.305	-0.399	0.012
-469.201	-82.995	0.079	-0.025
-468.186	-36.036	0.405	-0.217
-467.172	264.870	0.058	-0.101
-466.157	-146.145	-0.364	0.032
-465.143	-42.432	0.152	0.077
-464.128	-117.096	0.143	0.026
-463.113	800.000	0.054	0.150
-462.099	70.891	-0.303	-0.312
-461.084	-52.611	0.070	0.032
-460.070	800.000	0.021	0.063
-459.055	-22.949	-0.108	-0.065
-458.040	-32.047	0.061	-0.034
-457.026	-106.762	-0.327	-0.072
-456.011	-105.950	0.172	-0.038
-454.997	-122.666	-0.526	0.085
-453.982	49.969	0.142	-0.133
-452.968	-190.248	0.102	0.001
-451.953	-148.242	0.196	0.016
-450.938	45.648	-0.186	0.171
-449.924	-200.000	0.050	-0.345
-448.909	80.694	0.052	0.055
-447.895	-200.000	0.017	-0.274
-446.880	-200.000	0.058	0.288
-445.865	292.197	0.020	0.037
-444.851	800.000	0.102	-0.288
-443.836	-124.593	-0.520	-0.080
-442.822	-105.403	0.266	0.060
-441.807	107.547	0.385	-0.455
-440.792	800.000	0.045	-0.154
-439.778	122.701	0.178	-0.221
-438.763	-146.547	-0.419	-0.036
-437.749	-51.559	0.039	0.018
-436.734	800.000	0.093	-0.256
-435.719	-92.399	0.153	-0.043
-434.705	-200.000	-0.013	0.366
-433.690	-47.122	0.170	-0.082
-432.676	40.873	-0.109	-0.097
-431.661	689.629	0.094	0.244
-430.646	-110.261	0.304	-0.063
-429.632	-38.226	-0.310	0.163
-428.617	800.000	-0.016	0.063
-427.603	-200.000	0.069	0.344
-426.588	-200.000	-0.034	-0.175
-425.573	-42.109	0.255	0.130
-424.559	-145.479	-0.127	0.011
-423.544	6.967	-0.102	-0.075
-422.530	-200.000	0.005	-0.046
-421.515	-42.219	-0.043	-0.022
-420.500	-200.000	-0.019	0.119
-419.486	-83.087	0.144	-0.046
-418.471	800.000	0.050	-0.169
-417.457	-165.982	-0.071	0.003
-416.442	-103.264	0.286	0.067
-415.428	-130.920	-0.112	0.015
-414.413	-200.000	-0.010	-0.461
-413.398	-71.050	-0.088	-0.033
-412.384	800.000	0.048	0.169
-411.369	-200.000	-0.022	-0.194
-410.355	-64.060	0.193	0.078
-409.340	24.121	0.196	-0.161
-408.325	-151.688	-0.521	0.038
-407.311	-200.000	0.057	-0.266
-406.296	-103.382	-0.091	-0.021
-405.282	148.481	-0.097	-0.129
-404.267	-43.615	-0.079	-0.040
-403.252	-128.700	0.133	0.019
-402.238	51.875	0.107	-0.101
-401.223	-67.897	0.215	-0.083
-400.209	-200.000	0.001	-0.123
-399.194	-22.872	-0.330	0.198
-398.179	-200.000	-0.041	-0.314
-397.165	-200.000	-0.018	0.080
-396.150	800.000	0.074	-0.305
-395.136	620.641	-0.034	0.085
-394.121	-6.264	0.271	-0.183
-393.106	78.503	0.087	0.092
-392.092	-126.587	-0.435	0.064
-391.077	-61.997	0.157	0.065
-390.063	419.424	0.050	-0.105
-389.048	800.000	0.028	-0.079
-388.033	-51.001	-0.253	-0.117
-387.019	-93.664	0.104	0.028
-386.004	-189.405	-0.263	0.003
-384.990	-46.168	0.147	-0.072
-383.975	-111.770	0.316	-0.063
-382.960	110.182	-0.158	0.188
-381.946	121.652	0.094	0.116
-380.931	218.797	0.092	-0.146
-379.917	281.415	0.209	0.370
-378.902	314.420	0.124	0.232
-377.888	75.120	0.103	0.108
-376.873	-66.052	-0.221	0.087
-375.858	59.221	-0.020	0.020
-374.844	-17.259	-0.232	0.145
-373.829	800.000	0.011	-0.032
-372.815	43.903	-0.324	0.294
-371.800	275.899	-0.105	0.185
-370.785	-200.000	0.000	-0.014
-369.771	-200.000	0.015	0.259
-368.756	-100.566	0.043	-0.010
-367.742	-200.000	0.016	0.106
-366.727	-200.000	0.002	0.196
-365.712	342.327	0.231	0.448
-364.698	28.607	-0.091	-0.076
-363.683	-200.000	-0.019	-0.218
-362.669	0.399	0.087	0.061
-361.654	-70.107	0.245	-0.092
-360.639	91.061	-0.186	-0.207
-359.625	-71.131	0.200	0.074
-358.610	22.845	-0.136	-0.110
-357.596	-60.750	0.090	-0.038
-356.581	-153.216	0.325	0.022
-355.566	-47.046	-0.183	0.088
-354.552	198.930	-0.176	-0.267
-353.537	-122.566	0.115	0.018
-352.523	106.918	0.175	-0.205
-351.508	-130.649	-0.155	0.021
-350.493	191.507	0.125	-0.186
-349.479	43.198	0.169	0.153
-348.464	-95.933	-0.239	-0.063
-347.450	-31.027	0.202	-0.113
-346.435	-75.393	-0.066	-0.023
-345.420	421.200	-0.036	0.077
-344.406	-200.000	0.051	0.340
-343.391	-200.000	0.050	0.406
-342.377	800.000	-0.053	-0.169
-341.362	116.581	0.014	-0.017
-340.348	15.999	-0.180	-0.140
-339.333	-37.895	0.312	0.164
-338.318	-11.846	-0.301	-0.195
-337.304	-61.213	0.109	0.045
-336.289	251.133	0.101	-0.171
-335.275	-118.584	-0.282	0.049
-334.260	-108.378	-0.094	-0.020
-333.245	179.121	0.095	-0.137
-332.231	84.838	-0.067	-0.072
-331.216	368.298	-0.036	0.071
-330.202	-10.474	-0.120	-0.079
-329.187	-54.808	-0.160	-0.071
-328.172	-116.033	0.201	0.037
-327.158	585.678	0.161	-0.390
-326.143	114.479	-0.155	0.187
-325.129	-200.000	0.019	-0.113
-324.114	-53.530	-0.277	-0.125
-323.099	-200.000	-0.011	0.168
-322.085	-126.611	-0.485	-0.071
-321.070	-123.019	-0.412	0.065
-320.056	108.515	0.287	0.339
-319.041	158.016	0.167	0.229
-318.026	800.000	0.137	0.426
-317.012	800.000	-0.041	0.122
-315.997	250.725	0.103	0.173
-314.983	-200.000	0.023	0.272
-313.968	-200.000	0.037	0.232
-312.953	-200.000	0.013	-0.130
-311.939	-59.050	0.111	0.047
-310.924	207.381	0.079	0.122
-309.910	94.277	-0.107	-0.120
-308.895	-65.428	-0.329	0.131
-307.880	800.000	0.049	0.193
-306.866	32.690	-0.353	-0.301
-305.851	-25.094	0.144	-0.084
-304.837	-6.183	0.117	0.079
-303.822	52.332	-0.256	0.241
-302.807	111.264	-0.270	0.321
-301.793	17.633	-0.106	-0.083
-300.778	800.000	-0.010	-0.029
-299.764	404.959	-0.033	0.068
-298.749	40.768	-0.141	-0.126
-297.735	-200.000	0.001	0.139
-296.720	-161.385	-0.179	-0.009
-295.705	76.176	0.267	-0.279
-294.691	17.482	0.212	-0.166
-293.676	-67.221	0.287	-0.111
-292.662	356.371	-0.046	-0.090
-291.647	301.444	0.176	0.321
-290.632	-153.039	0.189	-0.013
-289.618	-200.000	-0.010	-0.051
-288.603	-200.000	-0.012	0.098
-287.589	-95.677	-0.202	0.053
-286.574	-200.000	-0.003	0.173
-285.559	27.600	-0.255	0.211
-284.545	586.279	-0.038	0.093
-283.530	26.818	-0.200	0.166
-282.516	800.000	-0.080	0.226
-281.501	-133.027	-0.184	0.023
-280.486	800.000	0.062	-0.209
-279.472	175.286	0.116	0.166
-278.457	461.820	0.065	-0.144
-277.443	-81.628	0.089	-0.029
-276.428	-92.036	0.134	0.037
-275.413	-146.494	0.295	-0.025
-274.399	800.000	-0.067	-0.199
-273.384	63.383	-0.159	-0.157
-272.370	425.016	-0.049	0.104
-271.355	-44.098	-0.276	-0.137
-270.340	-200.000	-0.030	0.158
-269.326	-186.405	0.342	-0.005
-268.311	268.903	-0.126	-0.218
-267.297	358.711	-0.085	0.167
-266.282	187.291	-0.169	-0.248
-265.267	619.771	0.031	0.077
-264.253	101.420	0.172	0.198
-263.238	800.000	-0.139	0.409
-262.224	-73.784	0.339	-0.121
-261.209	259.684	0.189	0.322
-260.195	-200.000	-0.039	-0.206
-259.180	26.758	0.130	-0.107
-258.165	-18.522	-0.374	-0.230
-257.151	800.000	-0.064	0.217
-256.136	-200.000	0.012	0.053
-255.122	-51.761	0.098	0.045
-254.107	-68.040	-0.046	-0.018
-253.092	-200.000	0.001	0.138
-252.078	-200.000	-0.042	-0.348
-251.063	27.970	-0.307	-0.255
-250.049	367.981	-0.108	-0.216
-249.034	-200.000	0.031	-0.172
-248.019	218.496	0.020	-0.032
-247.005	-140.772	0.130	0.013
-245.990	-200.000	-0.023	-0.348
-244.976	-28.586	-0.345	0.196
-243.961	-103.199	-0.173	0.040
-242.946	-200.000	-0.026	0.140
-241.932	-200.000	-0.019	-0.325
-240.917	68.351	0.121	0.122
-239.903	768.191	0.135	-0.361
-238.888	6.585	0.175	0.128
-237.873	-130.410	0.053	0.007
-236.859	-200.000	-0.035	-0.267
-235.844	-47.696	-0.186	0.089
-234.830	-118.704	-0.138	0.024
-233.815	-102.780	-0.067	-0.016
-232.800	-175.703	0.153	0.004
-231.786	-130.600	0.026	0.003
-230.771	232.683	-0.150	0.242
-229.757	-119.532	-0.063	0.011
-228.742	24.933	-0.154	-0.126
-227.727	-200.000	0.010	-0.091
-226.713	89.164	0.099	0.109
-225.698	-95.612	0.024	0.006
-224.684	-191.885	-0.103	-0.001
-223.669	182.132	0.121	-0.176
-222.655	-81.368	0.149	-0.048
-221.640	-200.000	0.020	0.230
-220.625	13.965	-0.095	-0.073
-219.611	-81.368	0.174	-0.056
-218.596	-85.702	-0.201	0.062
-217.582	56.300	0.076	-0.073
-216.567	-88.818	-0.106	0.031
-215.552	46.380	-0.072	0.066
-214.538	-56.837	-0.039	0.017
-213.523	800.000	-0.065	0.244
-212.509	800.000	0.043	-0.141
-211.494	62.053	-0.317	-0.311
-210.479	447.290	-0.158	0.343
-209.465	-97.734	0.245	0.062
-208.450	-200.000	-0.001	0.175
-207.436	800.000	-0.083	0.250
-206.421	-10.875	0.049	-0.032
-205.406	-200.000	-0.006	-0.093
-204.392	800.000	-0.073	-0.231
-203.377	38.497	0.115	0.101
-202.363	-21.255	0.272	0.164
-201.348	-200.000	-0.092	0.635
-200.333	800.000	0.093	-0.261
-199.319	61.407	-0.250	-0.245
-198.304	66.129	0.245	-0.244
-197.290	-138.810	0.213	0.023
-196.275	800.000	0.097	0.305
-195.260	4.301	-0.279	0.201
-194.246	-139.309	0.228	0.024
-193.231	263.681	0.073	0.125
-192.217	-33.356	-0.316	-0.172
-191.202	8.809	0.375	0.278
-190.187	234.999	0.052	-0.085
-189.173	-23.288	-0.223	0.132
-188.158	-45.492	-0.238	0.116
-187.144	-80.582	0.512	0.168
-186.129	20.342	0.221	-0.175
-185.114	-5.575	-0.070	0.047
-184.100	-109.754	-0.215	-0.044
-183.085	153.523	-0.289	-0.389
-182.071	-127.890	0.122	0.017
-181.056	-200.000	0.011	0.111
-180.042	189.157	-0.148	0.219
-179.027	-200.000	0.033	-0.171
-178.012	246.258	0.070	0.115
-176.998	-200.000	0.014	-0.178
-175.983	29.760	-0.207	-0.173
-174.969	75.513	0.058	-0.060
-173.954	-153.926	-0.063	-0.004
-172.939	18.008	0.158	0.124
-171.925	800.000	0.077	0.322
-170.910	-127.850	-0.412	-0.058
-169.896	26.869	0.296	0.244
-168.881	-43.995	0.153	0.075
-167.866	-200.000	-0.037	0.180
-166.852	0.858	-0.202	-0.142
-165.837	732.196	0.047	0.124
-164.823	-153.414	0.256	-0.017
-163.808	-31.324	0.276	-0.153
-162.793	25.278	0.204	0.167
-161.779	53.870	-0.150	0.141
-160.764	-77.959	-0.156	0.053
-159.750	712.332	0.084	0.219
-158.735	-49.653	0.441	0.206
-157.720	8.424	0.138	0.102
-156.706	-6.976	0.116	-0.077
-155.691	-89.879	-0.141	-0.040
-154.677	-200.000	-0.011	0.195
-153.662	-200.000	-0.038	0.191
-152.647	-68.374	0.208	0.079
-151.633	34.945	-0.082	0.071
-150.618	-90.864	-0.297	0.084
-149.604	-118.255	0.269	-0.047
-148.589	-200.000	0.028	-0.188
-147.574	-40.462	-0.115	-0.058
-146.560	632.162	-0.103	-0.255
-145.545	21.043	0.239	-0.190
-144.531	-128.282	-0.248	0.035
-143.516	-26.754	-0.327	0.188
-142.502	-200.000	-0.004	0.094
-141.487	77.570	-0.231	-0.241
-140.472	-200.000	0.032	-0.162
-139.458	-91.313	-0.089	0.025
-138.443	-58.857	-0.047	-0.020
-137.429	-200.000	0.003	0.105
-136.414	149.346	-0.070	-0.093
-135.399	52.051	0.484	0.452
-134.385	-12.262	-0.194	-0.124
-133.370	-43.907	-0.011	-0.005
-132.356	-200.000	-0.039	0.291
-131.341	800.000	-0.091	0.327
-130.326	68.730	-0.215	0.216
-129.312	-24.590	0.158	-0.092
-128.297	-200.000	-0.002	0.077
-127.283	-90.196	-0.323	-0.092
-126.268	758.689	0.076	0.201
-125.253	-46.379	0.150	0.072
-124.239	333.423	-0.096	-0.182
-123.224	-85.958	0.423	0.128
-122.210	108.277	-0.198	0.232
-121.195	160.127	0.092	-0.126
-120.180	800.000	-0.027	-0.109
-119.166	171.180	-0.095	-0.134
-118.151	294.875	0.150	0.270
-117.137	-102.341	0.327	-0.077
-116.122	164.281	-0.083	0.115
-115.107	-16.931	-0.198	0.122
-114.093	119.708	0.280	-0.340
-113.078	-113.343	-0.065	0.013
-112.064	-150.937	-0.304	0.022
-111.049	-200.000	-0.021	0.138
-110.034	18.869	0.128	0.101
-109.020	800.000	0.088	-0.310
-108.005	-34.588	-0.116	0.062
-106.991	8.991	0.295	0.219
-105.976	800.000	-0.031	0.119
-104.962	28.954	-0.208	-0.173
-103.947	800.000	0.114	-0.488
-102.932	-43.556	0.326	-0.161
-101.918	412.897	0.098	0.204
-100.903	59.024	-0.106	0.102
-99.889	132.920	0.007	-0.009
-98.874	800.000	0.051	0.188
-97.859	-200.000	0.020	0.320
-96.845	311.552	-0.199	-0.366
-95.830	-200.000	0.015	-0.412
-94.816	-109.305	-0.078	-0.016
-93.801	-200.000	-0.001	0.100
-92.786	308.132	-0.211	0.385
-91.772	-200.000	0.061	0.364
-90.757	160.676	0.062	0.084
-89.743	442.902	-0.054	-0.115
-88.728	-200.000	0.020	0.317
-87.713	-35.435	0.206	0.110
-86.699	-38.058	-0.212	0.110
-85.684	81.009	0.046	0.048
-84.670	-27.536	0.163	0.093
-83.655	-59.673	0.078	0.033
-82.640	-62.740	-0.135	-0.055
-81.626	800.000	-0.122	-0.427
-80.611	-200.000	-0.030	0.222
-79.597	800.000	0.110	0.325
-78.582	800.000	0.065	0.251
-77.567	-76.619	-0.165	0.057
-76.553	-82.758	0.041	-0.013
-75.538	800.000	-0.099	-0.309
-74.524	-200.000	-0.005	0.097
-73.509	-200.000	0.004	0.192
-72.494	-200.000	0.032	-0.339
-71.480	232.958	0.078	-0.125
-70.465	118.985	-0.220	-0.266
-69.451	32.920	-0.085	0.072
-68.436	283.612	0.118	-0.207
-67.422	101.063	-0.094	-0.107
-66.407	-146.853	0.065	-0.005
-65.392	157.295	-0.058	0.079
-64.378	139.696	0.096	0.124
-63.363	800.000	-0.094	-0.298
-62.349	-200.000	-0.049	0.375
-61.334	31.303	-1.123	-0.943
-60.319	800.000	0.144	0.527
-59.305	599.116	-0.498	-1.209
-58.290	117.098	0.894	1.075
-57.276	694.399	0.547	1.404
-56.261	-200.000	118.613	653.730
-55.246	493.319	1555.247	3487.933
-54.232	173.451	2723.903	3842.065
-53.217	105.377	2156.838	2491.108
-52.203	37.894	1587.643	1379.724
-51.188	29.403	1330.271	1105.396
-50.173	26.575	1291.434	1056.604
-49.159	53.424	1351.015	1266.467
-48.144	51.309	1363.760	1265.766
-47.130	29.620	1317.342	1095.761
-46.115	26.202	1299.863	1061.138
-45.100	26.023	1294.759	1055.883
-44.086	25.912	1291.819	1052.792
-43.071	25.945	1289.531	1051.082
-42.057	25.915	1287.823	1049.470
-41.042	25.995	1286.020	1048.428
-40.027	26.023	1284.136	1047.008
-39.013	26.045	1282.317	1045.614
-37.998	26.010	1280.689	1044.039
-36.984	26.107	1278.552	1042.821
-35.969	26.092	1276.904	1041.347
-34.954	26.098	1275.496	1040.193
-33.940	26.223	1273.631	1039.346
-32.925	26.133	1272.258	1037.672
-31.911	26.106	1271.181	1036.597
-30.896	26.237	1269.487	1035.924
-29.881	26.287	1268.226	1035.140
-28.867	26.221	1267.138	1033.833
-27.852	26.223	1265.443	1032.419
-26.838	26.168	1264.193	1031.047
-25.823	26.154	1263.076	1030.015
-24.809	26.291	1261.397	1029.384
-23.794	26.228	1259.806	1027.686
-22.779	26.245	1258.674	1026.821
-21.765	26.129	1257.802	1025.407
-20.750	26.058	1256.686	1024.056
-19.736	26.002	1255.374	1022.627
-18.721	25.989	1254.251	1021.600
-17.706	26.117	1252.717	1021.035
-16.692	26.114	1251.631	1020.091
-15.677	26.123	1250.686	1019.328
-14.663	25.975	1249.756	1017.694
-13.648	26.149	1248.044	1017.242
-12.633	26.079	1247.599	1016.446
-11.619	25.973	1246.882	1015.225
-10.604	26.180	1245.568	1015.279
-9.590	26.164	1244.134	1013.978
-8.575	26.006	1243.835	1012.807
-7.560	26.102	1242.933	1012.569
-6.546	26.207	1242.204	1012.529
-5.531	26.251	1240.996	1011.745
-4.517	26.169	1239.811	1010.282
-3.502	26.119	1239.398	1009.624
-2.487	26.134	1238.596	1009.014
-1.473	26.080	1234.344	1005.215
-0.458	24.703	1219.987	985.896
0.556	23.215	1203.970	950.641
1.571	19.724	1210.234	936.623
2.586	18.919	1224.942	943.504
3.600	18.763	1212.994	933.373
4.615	14.441	1141.919	856.440
5.629	7.454	1070.917	769.345
6.644	4.449	1053.319	742.289
7.659	4.167	1050.987	739.235
8.673	4.025	1050.013	737.806
9.688	4.081	1048.228	736.753
10.702	4.436	1046.438	737.117
11.717	8.924	1052.495	762.705
12.731	16.652	1063.101	807.322
13.746	21.288	1068.863	833.806
14.761	22.160	1069.581	838.452
15.775	21.536	1067.817	834.023
16.790	20.475	1065.840	827.358
17.804	19.931	1064.469	823.632
18.819	19.601	1064.123	821.722
19.834	19.607	1063.007	820.814
20.848	19.579	1062.789	820.443
21.863	19.390	1061.757	818.673
22.877	19.311	1060.582	817.321
23.892	19.119	1060.593	816.348
24.907	19.169	1059.533	815.694
25.921	19.031	1058.885	814.471
26.936	19.179	1056.894	813.568
27.950	19.177	1055.564	812.460
28.965	19.307	1054.263	812.000
29.980	19.468	1053.059	811.757
30.994	19.582	1051.696	811.171
32.009	19.577	1050.955	810.504
33.023	19.608	1049.972	809.823
34.038	19.260	1049.087	807.439
35.053	19.288	1048.164	806.784
36.067	19.248	1047.350	805.900
37.082	19.317	1046.363	805.391
38.096	19.411	1045.884	805.391
39.111	19.503	1045.023	805.089
40.126	19.193	1043.760	802.600
41.140	18.832	1042.471	799.857
42.155	18.766	1041.250	798.543
43.169	18.796	1040.212	797.812
44.184	18.638	1039.573	796.521
45.199	18.771	1038.193	796.008
46.213	18.896	1037.671	796.116
47.228	19.217	1037.001	797.016
48.242	19.249	1035.546	795.977
49.257	19.192	1035.107	795.307
50.271	19.291	1034.022	794.858
51.286	19.283	1033.302	794.197
52.301	19.282	1032.154	793.241
53.315	19.131	1030.740	791.388
54.330	19.032	1029.589	789.982
55.344	19.002	1028.806	789.172
56.359	19.024	1028.273	788.795
57.374	18.945	1027.260	787.585
58.388	18.796	1026.416	786.188
59.403	18.777	1025.506	785.336
60.417	18.695	1024.825	784.368
61.432	18.685	1024.189	783.768
62.447	18.582	1023.378	782.607
63.461	18.656	1022.363	782.096
64.476	18.561	1021.449	780.898
65.490	18.521	1020.093	779.610
66.505	18.707	1019.900	780.239
67.520	18.662	1018.924	779.219
68.534	18.536	1018.409	778.186
69.549	18.642	1017.585	777.967
70.563	18.384	1017.369	776.562
71.578	18.191	1016.598	775.030
72.593	18.379	1014.833	774.467
73.607	18.314	1014.339	773.730
74.622	18.295	1014.456	773.665
75.636	18.503	1013.404	773.733
76.651	18.413	1012.969	772.923
77.666	18.395	1012.343	772.298
78.680	18.307	1011.874	771.473
79.695	18.503	1010.884	771.533
80.709	18.758	1010.366	772.215
81.724	18.765	1009.630	771.617
82.739	18.890	1009.024	771.649
83.753	19.243	1008.464	772.735
84.768	19.540	1007.937	773.593
85.782	19.611	1007.399	773.430
86.797	19.658	1005.879	772.406
87.812	19.426	1004.980	770.609
88.826	19.484	1003.816	769.908
89.841	19.499	1003.441	769.617
90.855	19.590	1002.622	769.327
91.870	19.673	1001.710	768.928
92.884	19.452	1001.199	767.484
93.899	19.486	999.639	766.373
94.914	19.631	999.153	766.578
95.928	19.557	998.711	765.843
96.943	19.472	997.262	764.285
97.957	19.242	996.838	762.877
98.972	19.449	995.628	762.797
99.987	19.527	994.630	762.310
101.001	19.468	994.015	761.512
102.016	19.348	993.582	760.583
103.030	19.444	992.648	760.224
104.045	19.443	991.383	759.182
105.060	19.324	990.600	757.994
106.074	18.968	989.676	755.655
107.089	18.804	987.843	753.467
108.103	18.618	987.329	752.195
109.118	18.658	986.518	751.685
110.133	18.574	985.586	750.543
111.147	18.652	984.300	749.837
112.162	18.694	983.431	749.290
113.176	18.880	983.273	749.915
114.191	19.030	982.469	749.891
115.206	18.642	982.289	747.995
116.220	18.708	981.154	747.352
117.235	18.701	980.137	746.480
118.249	18.713	979.230	745.778
119.264	18.641	978.128	744.560
120.279	18.605	977.502	743.861
121.293	18.486	976.444	742.473
122.308	18.356	975.973	741.488
123.322	18.381	974.679	740.547
124.337	18.333	973.563	739.428
125.352	18.336	972.689	738.711
126.366	18.290	971.460	737.512
127.381	18.267	970.596	736.691
128.395	18.433	969.707	736.666
129.410	18.526	968.949	736.427
130.424	18.583	968.590	736.330
131.439	18.712	967.862	736.266
132.454	18.803	967.105	736.015
133.468	18.833	966.487	735.610
134.483	18.790	965.415	734.542
135.497	18.731	964.605	733.608
136.512	18.892	963.411	733.324
137.527	18.803	962.848	732.452
138.541	18.900	962.412	732.466
139.556	18.830	961.649	731.525
140.570	19.038	961.797	732.458
141.585	19.320	960.102	732.301
142.600	19.417	959.610	732.270
143.614	19.563	958.734	732.158
144.629	19.506	957.832	731.165
145.643	19.398	956.845	729.888
146.658	19.191	955.267	727.745
147.673	19.097	954.461	726.672
148.687	18.868	954.196	725.438
149.702	18.839	952.963	724.313
150.716	18.947	951.902	723.897
151.731	18.866	951.296	723.034
152.746	18.947	950.825	722.951
153.760	19.182	949.998	723.243
154.775	19.156	949.955	723.040
155.789	19.181	949.254	722.548
156.804	19.265	948.265	722.083
157.819	19.201	947.662	721.292
158.833	19.530	947.683	722.621
159.848	19.591	946.222	721.698
160.862	19.317	945.528	719.958
161.877	19.096	943.639	717.535
162.892	18.937	942.613	716.031
163.906	18.869	942.118	715.309
164.921	18.831	941.165	714.362
165.935	18.998	940.516	714.501
166.950	19.002	939.941	714.020
167.964	18.998	939.058	713.267
168.979	19.027	937.403	712.069
169.994	18.936	936.580	711.003
171.008	19.094	936.254	711.348
172.023	19.339	936.039	712.130
173.037	19.416	935.562	712.024
174.052	19.243	934.586	710.506
175.067	18.875	933.810	708.336
176.081	18.910	932.704	707.576
177.096	18.852	932.187	706.883
178.110	18.940	931.504	706.664
179.125	18.877	931.168	706.090
180.140	19.053	930.663	706.366
181.154	19.211	930.492	706.825
182.169	19.360	929.677	706.752
183.183	19.505	929.321	707.011
184.198	19.481	928.519	706.242
185.213	19.374	928.010	705.352
186.227	19.462	927.389	705.181
187.242	19.593	926.971	705.333
188.256	19.631	926.617	705.160
189.271	19.689	925.704	704.635
190.286	19.393	924.174	702.206
191.300	18.879	923.333	699.411
192.315	18.807	922.166	698.175
193.329	18.784	921.951	697.857
194.344	19.057	921.814	698.800
195.359	19.136	921.102	698.519
196.373	19.254	920.829	698.728
197.388	19.596	920.331	699.675
198.402	19.701	919.898	699.707
199.417	19.862	919.220	699.780
200.432	19.942	918.974	699.856
201.446	19.932	918.765	699.596
202.461	20.187	917.722	699.767
203.475	19.936	917.227	698.317
204.490	19.721	916.365	696.730
205.504	19.539	915.577	695.339
206.519	19.522	914.697	694.539
207.534	19.529	914.227	694.151
208.548	19.620	913.483	693.887
209.563	19.584	912.966	693.289
210.577	19.717	912.210	693.189
211.592	19.892	911.639	693.395
212.607	19.863	911.243	692.917
213.621	19.823	909.997	691.748
214.636	19.902	909.213	691.404
215.650	19.968	908.871	691.346
216.665	19.904	908.605	690.828
217.680	20.042	907.517	690.492
218.694	20.069	906.856	690.033
219.709	19.963	906.619	689.371
220.723	20.070	905.413	688.819
221.738	19.960	904.696	687.773
222.753	19.874	904.406	687.150
223.767	20.139	903.973	687.814
224.782	20.149	903.465	687.405
225.796	20.112	903.280	687.058
226.811	20.033	902.390	686.007
227.826	19.844	901.222	684.311
228.840	19.837	900.220	683.463
229.855	19.709	899.922	682.670
230.869	19.886	898.619	682.319
231.884	19.698	898.386	681.338
232.899	19.751	897.344	680.698
233.913	19.656	897.086	680.068
234.928	19.582	896.365	679.172
235.942	19.487	895.546	678.118
236.957	19.482	894.925	677.569
237.972	19.495	894.649	677.350
238.986	19.670	893.605	677.184
240.001	19.540	893.163	676.281
241.015	19.729	892.438	676.412
242.030	19.829	892.169	676.539
243.045	19.949	891.400	676.364
244.059	19.691	891.522	675.390
245.074	19.901	890.598	675.450
246.088	20.107	889.929	675.684
247.103	20.151	889.625	675.567
248.117	20.341	889.536	676.179
249.132	20.652	889.066	676.973
250.147	20.703	888.587	676.744
251.161	20.755	887.842	676.318
252.176	20.762	887.520	676.041
253.190	20.907	886.567	675.819
254.205	21.007	886.033	675.741
255.220	20.847	885.322	674.519
256.234	20.715	885.013	673.713
257.249	20.784	884.079	673.209
258.263	20.673	883.550	672.317
259.278	20.741	882.283	671.557
260.293	21.073	881.913	672.493
261.307	21.025	881.515	671.945
262.322	21.010	881.150	671.554
263.336	20.981	880.417	670.821
264.351	21.076	879.286	670.265
265.366	21.088	878.815	669.892
266.380	20.944	878.529	669.062
267.395	20.823	877.486	667.747
268.409	20.909	876.651	667.381
269.424	20.733	875.880	666.062
270.439	20.652	875.354	665.294
271.453	20.694	874.594	664.818
272.468	20.656	874.002	664.164
273.482	20.591	873.493	663.471
274.497	20.676	873.166	663.488
275.512	20.810	872.285	663.269
276.526	20.555	872.038	662.052
277.541	20.713	871.502	662.188
278.555	20.975	871.107	662.826
279.570	21.189	870.344	662.999
280.585	21.034	869.952	662.051
281.599	20.991	868.403	660.651
282.614	20.707	867.813	659.068
283.628	20.799	867.290	658.962
284.643	20.705	867.293	658.552
285.657	20.711	866.080	657.593
286.672	20.813	865.398	657.403
287.687	20.827	864.978	657.076
288.701	20.820	864.659	656.751
289.716	21.022	863.863	656.849
290.730	20.895	863.613	656.121
291.745	20.970	862.645	655.612
292.760	20.988	862.551	655.549
293.774	21.172	861.566	655.436
294.789	20.983	860.877	654.144
295.803	20.847	860.321	653.152
296.818	20.848	859.227	652.270
297.833	20.772	859.215	651.915
298.847	20.960	858.458	651.987
299.862	20.941	858.148	651.624
300.876	21.181	857.498	651.968
301.891	21.112	857.212	651.436
302.906	21.263	856.792	651.623
303.920	21.399	856.385	651.763
304.935	21.633	855.494	651.896
305.949	21.453	854.789	650.634
306.964	21.287	854.179	649.495
307.979	21.305	853.696	649.138
308.993	21.361	853.191	648.903
310.008	21.339	852.516	648.251
311.022	21.409	851.732	647.857
312.037	21.132	850.971	646.194
313.052	20.941	850.250	644.882
314.066	20.848	849.761	644.111
315.081	20.986	849.460	644.336
316.095	21.006	848.380	643.535
317.110	20.811	848.271	642.676
318.125	20.895	847.381	642.253
319.139	20.840	847.111	641.791
320.154	20.927	846.464	641.564
321.168	21.078	846.212	641.870
322.183	20.996	845.705	641.127
323.197	21.132	845.170	641.165
324.212	20.996	844.639	640.206
325.227	21.004	843.805	639.549
326.241	21.030	843.230	639.152
327.256	20.952	842.385	638.167
328.270	21.049	841.881	638.085
329.285	20.768	841.848	636.976
330.300	20.822	840.980	636.460
331.314	21.197	840.061	637.076
332.329	21.220	840.217	637.222
333.343	21.172	839.982	636.810
334.358	21.367	839.333	636.974
335.373	21.335	839.245	636.734
336.387	21.474	838.917	636.936
337.402	21.490	838.703	636.773
338.416	21.603	838.288	636.815
339.431	21.741	837.887	636.953
340.446	21.989	837.314	637.362
341.460	21.990	837.277	637.283
342.475	21.817	837.301	636.617
343.489	22.044	836.569	636.826
344.504	22.157	835.887	636.661
345.519	22.246	835.433	636.580
346.533	22.120	834.926	635.682
347.548	21.751	834.315	633.825
348.562	21.437	833.700	632.169
349.577	21.293	833.082	631.123
350.592	21.234	832.315	630.275
351.606	21.373	831.594	630.174
352.621	21.397	830.730	629.550
353.635	21.645	830.062	629.880
354.650	21.480	829.550	628.841
355.665	21.637	828.877	628.840
356.679	21.756	828.492	628.918
357.694	21.624	827.993	628.011
358.708	21.628	827.418	627.536
359.723	21.785	826.741	627.527
360.738	21.677	825.919	626.463
361.752	21.876	825.282	626.635
362.767	22.081	825.140	627.202
363.781	22.148	824.791	627.119
364.796	22.244	824.742	627.371
365.810	22.246	824.440	627.093
366.825	22.380	823.730	626.976
367.840	22.354	823.245	626.456
368.854	22.003	822.706	624.743
369.869	21.935	822.797	624.514
370.883	22.044	821.948	624.202
371.898	22.118	821.570	624.124
372.913	22.310	820.972	624.294
373.927	22.193	820.625	623.563
374.942	22.145	820.173	622.994
375.956	22.333	819.910	623.404
376.971	22.501	819.322	623.496
377.986	22.593	818.770	623.346
379.000	22.584	818.547	623.091
380.015	22.541	817.954	622.433
381.029	22.428	817.144	621.360
382.044	22.534	816.510	621.196
383.059	22.647	815.904	621.081
384.073	22.320	815.523	619.584
385.088	22.098	814.612	618.056
386.102	22.026	814.103	617.362
387.117	22.119	813.611	617.261
388.132	22.122	812.602	616.451
389.146	22.188	812.551	616.588
390.161	22.475	812.031	617.147
391.175	22.514	811.279	616.654
392.190	22.306	810.731	615.456
393.205	22.093	810.494	614.477
394.219	22.193	809.958	614.368
395.234	22.099	809.459	613.605
396.248	21.832	809.104	612.348
397.263	22.026	808.246	612.321
398.278	21.817	808.080	611.413
399.292	21.955	807.731	611.576
400.307	21.989	807.183	611.224
401.321	21.976	806.624	610.704
402.336	22.112	806.680	611.166
403.350	22.109	806.233	610.762
404.365	22.391	805.507	611.138
405.380	22.496	805.602	611.520
406.394	22.665	804.806	611.448
407.409	22.722	804.545	611.391
408.423	22.840	804.571	611.765
409.438	22.731	803.833	610.773
410.453	22.951	803.653	611.345
411.467	22.953	803.059	610.845
412.482	23.109	802.657	611.026
413.496	22.932	802.638	610.344
414.511	23.085	801.597	610.027
415.526	22.913	801.414	609.240
416.540	22.864	800.663	608.449
417.555	22.922	800.546	608.503
418.569	22.995	799.929	608.234
419.584	22.858	800.262	607.961
420.599	22.898	799.487	607.455
421.613	165.712	1370.847	1796.962
422.628	144.009	1454.107	1797.049
