DTS Sentinel unit serial number:	SN413079Multiplexer serial number:	ORYXHardware model number:	OX4-SRSoftware version number:	ORYX F/W v4.00 Oryx Data Collector v3.7.2.0data status	okinstallation	princeton_trtdifferential loss correction	single-endedforward channel	channel 1reverse channel	N/Adate	2019/09/14time	11:46:35forward acquisition time	60.00reverse acquisition time	0.00gamma	496.2192k internal	0.2296k external	0.2296temperature offset calibration	1.0088default loss term (dB/km)	0.3790temperature slope calibration	1.0000multiplexer offset coefficient	1.0000multiplexer slope coefficient	1.0000fibre end	0.00T internal ref (°C)	37.02T ext. ref 1 (°C)	4.62T ext. ref 2 (°C)	33.76length (m)	temperature (°C)	Stokes	anti-Stokes-747.200	-58.958	0.193	-0.085
-746.185	-200.000	-0.095	0.491
-745.171	-54.958	0.064	0.029
-744.156	-123.706	-0.181	-0.029
-743.142	-175.874	-0.300	-0.008
-742.127	800.000	-0.085	-0.304
-741.112	-131.766	-0.181	0.024
-740.098	-77.544	0.145	0.051
-739.083	-49.854	-0.109	-0.053
-738.069	230.810	0.221	-0.369
-737.054	-42.818	-0.196	0.102
-736.039	145.641	-0.194	-0.265
-735.025	261.274	0.083	0.146
-734.010	-62.150	0.438	-0.187
-732.996	176.828	0.147	-0.219
-731.981	-68.111	-0.124	-0.049
-730.966	360.026	0.047	0.096
-729.952	800.000	-0.058	0.178
-728.937	162.889	0.141	0.202
-727.923	-147.767	-0.340	0.029
-726.908	-106.160	-0.242	0.055
-725.894	-200.000	-0.018	0.167
-724.879	-100.704	-0.258	0.065
-723.864	-0.455	0.103	0.074
-722.850	-30.694	-0.235	-0.136
-721.835	174.393	0.131	0.193
-720.821	-78.109	-0.233	-0.082
-719.806	399.083	-0.021	-0.045
-718.791	-200.000	-0.036	-0.203
-717.777	-200.000	-0.004	0.085
-716.762	-157.779	0.370	-0.022
-715.748	-61.227	-0.053	0.023
-714.733	142.920	0.102	0.139
-713.718	-200.000	0.029	-0.243
-712.704	66.011	-0.227	-0.235
-711.689	199.058	0.096	0.149
-710.675	174.350	-0.154	-0.227
-709.660	800.000	-0.054	0.166
-708.645	470.012	-0.036	0.082
-707.631	-44.957	-0.080	-0.041
-706.616	50.976	-0.052	0.050
-705.602	-28.789	0.048	0.028
-704.587	-23.525	-0.295	-0.181
-703.572	688.495	0.042	0.111
-702.558	-200.000	0.020	0.232
-701.543	342.129	0.138	-0.275
-700.529	-64.930	0.259	0.107
-699.514	133.115	0.106	0.139
-698.499	14.033	0.227	0.180
-697.485	-153.372	0.083	0.006
-696.470	15.199	-0.170	-0.136
-695.456	-189.280	-0.057	0.001
-694.441	160.571	0.150	0.214
-693.426	-200.000	-0.058	0.349
-692.412	129.015	0.065	0.084
-691.397	91.727	0.072	0.082
-690.383	-80.080	0.140	-0.048
-689.368	-30.914	-0.379	-0.218
-688.354	800.000	-0.057	-0.163
-687.339	-50.279	0.059	-0.028
-686.324	-95.878	-0.238	0.065
-685.310	-4.052	-0.082	-0.058
-684.295	317.190	0.111	-0.215
-683.281	-200.000	-0.033	-0.230
-682.266	-200.000	0.011	-0.084
-681.251	800.000	0.008	-0.032
-680.237	-200.000	-0.038	-0.314
-679.222	494.404	-0.010	0.023
-678.208	159.507	-0.051	-0.072
-677.193	9.342	0.094	0.073
-676.178	-200.000	-0.003	-0.086
-675.164	198.638	0.119	-0.186
-674.149	-200.000	0.015	-0.210
-673.135	795.228	-0.094	-0.264
-672.120	-158.157	-0.324	-0.019
-671.105	-72.534	-0.254	-0.095
-670.091	800.000	-0.037	-0.108
-669.076	143.365	0.118	-0.160
-668.062	-14.139	0.157	0.103
-667.047	283.668	0.168	0.308
-666.032	-158.745	0.448	-0.026
-665.018	-86.937	0.203	-0.063
-664.003	-155.100	0.116	-0.008
-662.989	364.475	-0.144	0.296
-661.974	767.240	-0.081	0.225
-660.959	800.000	0.097	0.311
-659.945	-68.771	-0.277	0.109
-658.930	-147.863	-0.134	0.011
-657.916	-179.321	0.276	0.006
-656.901	43.997	-0.067	0.063
-655.886	-109.944	-0.251	-0.054
-654.872	-103.354	-0.227	0.055
-653.857	744.212	-0.027	-0.073
-652.843	193.815	0.306	-0.471
-651.828	116.783	-0.079	-0.099
-650.814	-200.000	-0.000	-0.119
-649.799	-150.947	0.233	0.018
-648.784	210.558	-0.025	-0.039
-647.770	-200.000	-0.005	0.455
-646.755	241.623	-0.019	-0.033
-645.741	-200.000	0.000	-0.097
-644.726	-80.089	0.139	0.047
-643.711	-200.000	-0.052	0.364
-642.697	800.000	-0.011	0.038
-641.682	45.864	0.397	-0.373
-640.668	-200.000	0.034	0.177
-639.653	70.412	0.107	0.113
-638.638	107.602	0.253	0.306
-637.624	-64.722	-0.127	0.052
-636.609	-200.000	-0.065	-0.318
-635.595	402.373	0.077	-0.166
-634.580	-200.000	-0.015	0.184
-633.565	-112.121	-0.340	0.069
-632.551	60.430	0.136	-0.137
-631.536	-88.044	0.216	0.066
-630.522	-148.709	-0.019	0.002
-629.507	-200.000	-0.020	0.094
-628.492	111.375	0.082	-0.100
-627.478	800.000	0.075	-0.235
-626.463	-41.077	0.107	0.056
-625.449	10.245	0.059	-0.045
-624.434	800.000	0.056	-0.181
-623.419	-200.000	0.048	-0.280
-622.405	-104.864	0.221	0.052
-621.390	193.702	0.217	-0.334
-620.376	13.716	0.248	-0.196
-619.361	-60.404	-0.096	-0.041
-618.346	-87.393	-0.084	0.026
-617.332	342.943	-0.214	-0.426
-616.317	384.114	-0.115	-0.241
-615.303	394.115	0.104	-0.220
-614.288	-78.225	-0.156	-0.054
-613.273	-164.784	-0.094	0.004
-612.259	236.970	0.120	0.202
-611.244	-80.450	-0.293	0.099
-610.230	-116.420	-0.227	0.043
-609.215	48.428	-0.243	-0.231
-608.201	-200.000	0.039	-0.471
-607.186	-82.995	-0.470	0.154
-606.171	592.958	-0.124	0.312
-605.157	-32.297	-0.115	-0.065
-604.142	800.000	-0.045	-0.159
-603.128	355.585	0.143	-0.289
-602.113	79.817	0.034	0.037
-601.098	61.017	0.238	0.240
-600.084	-9.020	-0.159	-0.108
-599.069	-130.178	-0.105	-0.015
-598.055	-4.632	-0.178	-0.125
-597.040	-200.000	0.043	-0.297
-596.025	465.979	0.126	0.288
-595.011	-200.000	0.018	0.167
-593.996	800.000	0.080	0.321
-592.982	800.000	-0.045	0.134
-591.967	-1.374	0.013	0.009
-590.952	-77.490	0.133	-0.047
-589.938	-74.526	0.199	-0.073
-588.923	132.525	-0.217	-0.284
-587.909	-200.000	-0.030	0.175
-586.894	131.383	-0.146	-0.190
-585.879	54.584	-0.407	0.398
-584.865	800.000	0.047	0.147
-583.850	62.895	-0.152	-0.154
-582.836	-165.369	-0.253	0.011
-581.821	-24.226	-0.364	0.221
-580.806	-200.000	0.039	0.224
-579.792	610.158	-0.094	0.238
-578.777	-92.784	-0.087	0.025
-577.763	-61.490	0.189	0.080
-576.748	-72.087	-0.177	0.067
-575.733	101.570	0.044	-0.052
-574.719	30.975	-0.281	-0.244
-573.704	-42.739	-0.156	-0.080
-572.690	-125.914	-0.391	-0.060
-571.675	40.494	0.242	-0.222
-570.661	758.649	-0.015	0.041
-569.646	0.307	-0.163	-0.118
-568.631	55.104	-0.308	0.302
-567.617	-49.852	0.421	0.203
-566.602	57.978	-0.257	0.255
-565.588	-97.543	-0.159	0.042
-564.573	-200.000	0.009	-0.040
-563.558	-200.000	-0.029	-0.286
-562.544	706.988	-0.194	0.521
-561.529	-71.489	0.251	0.095
-560.515	-168.822	-0.473	0.018
-559.500	589.271	0.106	-0.266
-558.485	23.999	-0.104	0.087
-557.471	-132.172	0.282	-0.037
-556.456	-16.005	0.259	-0.167
-555.442	-200.000	-0.025	-0.364
-554.427	800.000	-0.092	0.273
-553.412	-83.538	-0.161	-0.052
-552.398	-200.000	0.034	0.263
-551.383	-72.110	0.380	0.143
-550.369	-200.000	0.016	-0.174
-549.354	-93.012	-0.254	-0.072
-548.339	84.531	0.238	0.264
-547.325	17.023	0.064	0.052
-546.310	-200.000	-0.019	0.112
-545.296	98.946	-0.112	-0.131
-544.281	-76.890	0.238	-0.084
-543.266	-114.423	0.237	0.046
-542.252	454.268	0.106	-0.238
-541.237	123.444	0.271	0.344
-540.223	44.165	-0.299	0.278
-539.208	-16.315	-0.076	0.049
-538.193	10.295	-0.178	-0.138
-537.179	-200.000	-0.008	0.255
-536.164	800.000	-0.082	0.231
-535.150	368.735	0.037	-0.076
-534.135	-110.346	-0.085	-0.018
-533.121	-99.608	0.273	-0.069
-532.106	102.839	0.099	0.118
-531.091	-93.585	-0.175	0.049
-530.077	552.990	-0.185	-0.449
-529.062	800.000	0.073	0.241
-528.048	-200.000	0.052	-0.353
-527.033	69.868	0.121	-0.126
-526.018	167.598	-0.008	0.012
-525.004	-20.784	0.161	0.100
-523.989	800.000	-0.009	-0.037
-522.975	-4.938	0.139	0.097
-521.960	-200.000	0.012	0.242
-520.945	800.000	-0.050	0.173
-519.931	-200.000	0.006	0.046
-518.916	-80.808	0.050	0.017
-517.902	464.649	0.097	-0.219
-516.887	-76.283	-0.112	-0.040
-515.872	-68.955	0.100	0.039
-514.858	-200.000	0.055	-0.303
-513.843	678.197	0.141	-0.372
-512.829	-191.168	0.251	0.003
-511.814	-81.568	-0.162	0.054
-510.799	44.594	0.302	-0.281
-509.785	-68.602	-0.254	0.099
-508.770	734.626	0.023	-0.064
-507.756	-200.000	-0.011	0.127
-506.741	-43.917	0.194	-0.099
-505.726	800.000	-0.051	0.149
-504.712	-109.041	-0.401	-0.086
-503.697	-54.640	0.498	0.228
-502.683	305.341	-0.125	-0.235
-501.668	-113.484	-0.169	0.034
-500.653	-200.000	-0.046	-0.362
-499.639	-110.400	0.386	-0.081
-498.624	108.275	0.231	0.279
-497.610	158.293	0.135	-0.189
-496.595	-60.491	0.191	0.082
-495.581	78.639	0.088	-0.096
-494.566	-87.274	0.145	-0.045
-493.551	800.000	-0.120	0.342
-492.537	-11.167	-0.006	0.004
-491.522	800.000	0.017	0.069
-490.508	23.426	-0.103	0.086
-489.493	-72.434	0.156	-0.058
-488.478	24.074	-0.114	0.095
-487.464	55.014	-0.036	0.035
-486.449	-200.000	0.007	-0.087
-485.435	-100.923	0.102	0.025
-484.420	-181.716	-0.528	-0.010
-483.405	-79.991	-0.074	-0.025
-482.391	-41.016	0.225	0.118
-481.376	-126.833	-0.325	0.049
-480.362	-37.398	0.098	-0.053
-479.347	59.769	0.097	-0.097
-478.332	-194.692	0.006	0.000
-477.318	-100.544	-0.108	0.027
-476.303	-200.000	0.031	-0.224
-475.289	-152.047	0.206	-0.015
-474.274	-200.000	0.030	0.167
-473.259	-200.000	0.026	-0.322
-472.245	-200.000	-0.033	-0.238
-471.230	46.092	-0.214	0.201
-470.216	-52.340	-0.217	0.102
-469.201	201.457	0.125	0.194
-468.186	196.366	-0.045	-0.070
-467.172	-146.762	-0.167	-0.015
-466.157	153.607	0.163	0.226
-465.143	-146.591	0.325	-0.029
-464.128	7.665	-0.213	-0.161
-463.113	232.138	0.147	-0.244
-462.099	567.558	-0.100	0.245
-461.084	-41.520	-0.173	-0.090
-460.070	800.000	-0.097	-0.279
-459.055	-200.000	0.022	-0.167
-458.040	800.000	-0.010	-0.038
-457.026	-90.724	0.172	-0.050
-456.011	114.385	-0.113	-0.138
-454.997	-44.229	-0.184	0.093
-453.982	510.324	0.118	-0.278
-452.968	289.225	0.205	-0.375
-451.953	64.979	0.054	-0.055
-450.938	-131.430	0.151	-0.020
-449.924	229.125	0.057	0.095
-448.909	674.423	0.116	0.304
-447.895	-65.901	-0.108	0.043
-446.880	355.708	0.212	-0.426
-445.865	212.078	0.139	-0.221
-444.851	-94.961	-0.244	-0.067
-443.836	-170.448	-0.259	0.009
-442.822	800.000	-0.093	-0.305
-441.807	-34.419	-0.184	-0.102
-440.792	91.764	0.179	-0.204
-439.778	9.915	-0.228	-0.175
-438.763	-200.000	0.017	0.109
-437.749	238.434	0.088	-0.148
-436.734	363.866	-0.168	-0.341
-435.719	189.090	-0.113	-0.171
-434.705	-36.867	0.188	0.102
-433.690	-68.573	0.191	0.075
-432.676	474.103	0.162	0.368
-431.661	800.000	0.049	0.167
-430.646	-129.178	0.203	-0.029
-429.632	800.000	-0.105	-0.345
-428.617	-62.215	0.070	-0.030
-427.603	-200.000	0.037	-0.223
-426.588	-80.019	-0.369	-0.125
-425.573	-200.000	-0.028	-0.281
-424.559	362.671	0.004	0.008
-423.544	-77.461	-0.319	0.112
-422.530	-13.196	-0.058	0.038
-421.515	-90.728	-0.300	-0.087
-420.500	194.320	0.115	0.176
-419.486	-200.000	0.012	0.182
-418.471	-38.539	-0.227	0.121
-417.457	396.036	0.098	0.207
-416.442	123.245	0.185	-0.234
-415.428	220.894	0.153	-0.248
-414.413	319.564	-0.037	-0.071
-413.398	-167.567	0.224	0.009
-412.384	49.936	-0.241	-0.229
-411.369	-64.573	0.175	-0.071
-410.355	215.508	0.037	-0.059
-409.340	-61.084	-0.252	0.107
-408.325	301.226	0.043	-0.080
-407.311	95.829	0.201	0.231
-406.296	-200.000	0.003	0.124
-405.282	800.000	-0.038	0.118
-404.267	35.336	0.252	-0.223
-403.252	188.538	-0.093	-0.140
-402.238	63.329	0.087	0.088
-401.223	-89.695	-0.550	0.162
-400.209	-200.000	0.062	-0.285
-399.194	223.811	-0.060	0.097
-398.179	-200.000	0.027	-0.229
-397.165	-124.110	-0.235	0.037
-396.150	800.000	0.059	-0.247
-395.136	-200.000	0.016	-0.103
-394.121	393.161	0.082	0.173
-393.106	-98.081	0.357	-0.093
-392.092	-200.000	-0.023	-0.162
-391.077	-200.000	0.169	0.000
-390.063	-18.695	-0.317	-0.199
-389.048	-200.000	-0.018	-0.278
-388.033	-74.598	-0.186	-0.067
-387.019	684.566	0.119	0.313
-386.004	-16.347	0.167	0.107
-384.990	-146.022	-0.223	0.020
-383.975	-136.381	-0.213	-0.025
-382.960	548.420	-0.178	0.429
-381.946	-93.815	0.152	-0.042
-380.931	-37.851	-0.234	0.125
-379.917	-200.000	0.065	0.356
-378.902	80.102	0.098	0.106
-377.888	800.000	0.016	0.051
-376.873	-115.341	-0.125	0.024
-375.858	-36.626	0.466	0.252
-374.844	388.114	-0.127	-0.265
-373.829	-159.211	-0.202	-0.011
-372.815	-41.152	-0.112	-0.058
-371.800	-200.000	0.004	-0.191
-370.785	282.357	-0.100	-0.181
-369.771	-113.148	0.492	-0.098
-368.756	-118.632	-0.205	0.036
-367.742	174.260	-0.143	-0.208
-366.727	-200.000	0.039	0.198
-365.712	800.000	-0.056	-0.202
-364.698	800.000	-0.019	0.073
-363.683	800.000	-0.056	0.187
-362.669	19.462	-0.243	0.196
-361.654	-200.000	0.016	-0.081
-360.639	111.612	-0.168	0.204
-359.625	310.779	-0.081	0.153
-358.610	-27.843	0.033	0.019
-357.596	88.409	-0.165	0.184
-356.581	-200.000	-0.334	0.001
-355.566	-200.000	0.008	-0.156
-354.552	210.807	0.079	0.125
-353.537	-41.630	0.240	-0.124
-352.523	-40.376	0.216	-0.113
-351.508	-179.129	-0.285	-0.006
-350.493	-64.370	-0.220	-0.090
-349.479	-87.574	0.248	0.076
-348.464	40.716	0.205	0.186
-347.450	-47.976	-0.137	0.066
-346.435	-97.993	0.242	0.063
-345.420	800.000	0.067	-0.277
-344.406	315.609	0.056	-0.106
-343.391	-194.614	-0.221	0.002
-342.377	65.080	-0.108	0.110
-341.362	800.000	0.029	0.118
-340.348	181.150	0.103	-0.152
-339.333	-200.000	-0.006	0.265
-338.318	800.000	0.097	0.398
-337.304	-101.508	-0.142	-0.035
-336.289	800.000	-0.086	0.366
-335.275	-45.864	0.080	0.040
-334.260	-200.000	0.053	0.329
-333.245	71.197	0.075	-0.079
-332.231	396.070	-0.054	0.113
-331.216	-62.036	-0.220	0.092
-330.202	-200.000	-0.004	0.296
-329.187	43.546	0.226	-0.208
-328.172	248.082	0.167	0.284
-327.158	800.000	-0.024	0.089
-326.143	-121.449	-0.193	-0.032
-325.129	-145.532	-0.433	-0.039
-324.114	-31.210	0.168	-0.095
-323.099	117.495	0.157	0.194
-322.085	-91.282	0.119	0.034
-321.070	-200.000	-0.008	0.108
-320.056	303.927	-0.083	-0.155
-319.041	-42.443	0.193	0.099
-318.026	-147.584	0.077	0.006
-317.012	141.841	0.048	0.065
-315.997	-200.000	0.016	-0.185
-314.983	-200.000	-0.135	0.000
-313.968	-171.319	-0.076	-0.003
-312.953	381.427	-0.032	-0.065
-311.939	-200.000	-0.002	-0.219
-310.924	201.793	-0.095	0.146
-309.910	205.329	-0.104	0.163
-308.895	132.686	-0.180	0.234
-307.880	800.000	-0.014	0.054
-306.866	-87.673	0.242	0.073
-305.851	360.285	-0.068	0.138
-304.837	480.780	0.105	0.240
-303.822	800.000	0.078	0.240
-302.807	-47.293	0.196	-0.096
-301.793	-14.575	-0.145	0.094
-300.778	210.341	0.120	0.188
-299.764	226.599	0.101	0.164
-298.749	-101.889	0.163	0.040
-297.735	-49.143	0.192	0.092
-296.720	-130.400	-0.308	-0.042
-295.705	800.000	-0.060	0.173
-294.691	800.000	0.046	-0.137
-293.676	800.000	-0.117	-0.392
-292.662	-165.352	0.124	0.005
-291.647	-90.146	-0.239	0.070
-290.632	-62.100	0.399	-0.167
-289.618	-94.970	-0.178	0.048
-288.603	-200.000	-0.107	0.479
-287.589	120.888	0.224	-0.280
-286.574	-200.000	0.018	-0.101
-285.559	800.000	-0.061	-0.189
-284.545	-150.706	0.107	0.008
-283.530	-41.330	-0.213	-0.110
-282.516	-190.042	0.029	-0.000
-281.501	-68.354	0.168	-0.066
-280.486	-0.425	-0.230	0.164
-279.472	120.212	-0.083	0.103
-278.457	-80.815	-0.163	-0.054
-277.443	-117.611	-0.142	0.026
-276.428	-192.443	-0.335	-0.003
-275.413	-90.573	0.381	-0.111
-274.399	4.114	0.314	-0.231
-273.384	19.421	0.128	-0.103
-272.370	800.000	0.150	-0.431
-271.355	-200.000	-0.009	0.094
-270.340	-200.000	0.025	0.431
-269.326	-10.801	-0.127	-0.085
-268.311	21.154	0.145	-0.118
-267.297	-200.000	0.018	-0.347
-266.282	800.000	-0.072	0.242
-265.267	-16.323	-0.225	-0.143
-264.253	26.883	-0.035	-0.029
-263.238	256.453	-0.216	0.372
-262.224	-157.767	-0.409	-0.024
-261.209	-200.000	0.022	0.111
-260.195	-106.993	-0.220	0.049
-259.180	114.942	-0.271	0.331
-258.165	-200.000	-0.015	0.390
-257.151	-200.000	0.015	-0.323
-256.136	-200.000	0.070	-0.334
-255.122	-53.153	-0.184	-0.085
-254.107	-136.032	-0.329	-0.039
-253.092	-139.778	0.391	-0.042
-252.078	1.748	0.176	0.127
-251.063	-110.188	-0.583	0.122
-250.049	-96.796	0.033	0.009
-249.034	-75.967	-0.157	0.056
-248.019	-48.932	0.109	-0.052
-247.005	-200.000	-0.030	-0.442
-245.990	53.703	-0.067	-0.065
-244.976	-178.480	0.443	-0.010
-243.961	728.396	-0.139	0.373
-242.946	-187.431	0.203	-0.003
-241.932	298.187	0.027	0.049
-240.917	26.452	0.040	-0.033
-239.903	-128.120	0.202	-0.029
-238.888	74.729	0.149	-0.157
-237.873	-154.203	-0.071	-0.005
-236.859	-91.958	0.285	-0.081
-235.844	61.231	-0.269	-0.268
-234.830	358.767	-0.122	0.244
-233.815	-61.745	-0.270	-0.113
-232.800	-200.000	-0.008	-0.104
-231.786	208.005	0.127	-0.198
-230.771	328.016	0.168	0.322
-229.757	-0.379	0.359	0.255
-228.742	-142.585	-0.251	0.025
-227.727	-66.689	-0.397	0.157
-226.713	207.907	0.049	-0.076
-225.698	773.609	0.071	0.195
-224.684	-54.422	0.032	0.014
-223.669	-149.888	0.218	0.017
-222.655	-22.522	0.123	0.075
-221.640	-127.225	0.190	-0.028
-220.625	-46.029	-0.197	0.097
-219.611	-200.000	-0.020	0.138
-218.596	-6.225	0.042	-0.028
-217.582	800.000	0.048	0.168
-216.567	186.455	0.062	0.092
-215.552	800.000	-0.090	0.256
-214.538	413.180	-0.125	-0.266
-213.523	-92.248	0.297	-0.084
-212.509	-47.582	0.286	0.139
-211.494	-75.684	-0.197	-0.070
-210.479	162.319	0.101	0.142
-209.465	-53.194	0.084	0.038
-208.450	-105.051	-0.181	0.041
-207.436	-200.000	0.001	0.200
-206.421	142.317	0.224	-0.298
-205.406	34.009	-0.063	-0.054
-204.392	29.408	0.146	-0.124
-203.377	304.226	-0.250	0.463
-202.363	-200.000	-0.013	0.097
-201.348	800.000	-0.125	0.366
-200.333	-194.814	0.261	0.002
-199.319	-150.395	0.185	0.014
-198.304	-53.856	-0.309	-0.141
-197.290	52.167	-0.138	0.132
-196.275	800.000	0.080	-0.245
-195.260	-3.432	0.237	0.165
-194.246	66.431	0.080	0.081
-193.231	-200.000	-0.033	0.214
-192.217	-20.279	0.075	0.046
-191.202	164.073	0.034	0.048
-190.187	62.219	0.158	-0.157
-189.173	-200.000	0.048	-0.362
-188.158	-10.278	-0.171	0.113
-187.144	16.221	-0.096	0.076
-186.129	40.417	0.132	0.119
-185.114	-110.295	0.068	-0.014
-184.100	-34.245	-0.216	-0.118
-183.085	139.435	0.115	0.151
-182.071	100.858	0.047	0.055
-181.056	344.429	0.103	0.202
-180.042	199.645	-0.029	-0.044
-179.027	-53.080	0.219	-0.101
-178.012	87.783	-0.194	-0.215
-176.998	-60.019	-0.171	-0.073
-175.983	151.340	0.163	-0.221
-174.969	-46.445	-0.131	0.064
-173.954	-135.850	0.191	0.023
-172.939	-141.893	0.168	-0.017
-171.925	202.348	0.129	0.199
-170.910	-156.969	0.248	-0.015
-169.896	-200.000	0.018	0.144
-168.881	140.007	0.134	-0.176
-167.866	-98.378	-0.192	-0.049
-166.852	-39.075	0.103	0.054
-165.837	20.159	-0.127	-0.103
-164.823	-200.000	-0.029	-0.433
-163.808	-200.000	0.019	-0.103
-162.793	68.089	0.096	0.098
-161.779	-200.000	0.014	0.224
-160.764	-119.055	-0.191	-0.033
-159.750	-200.000	0.011	-0.050
-158.735	-2.287	0.272	-0.191
-157.720	-32.692	0.149	0.083
-156.706	-200.000	0.038	-0.345
-155.691	262.530	0.156	-0.270
-154.677	-75.272	0.203	-0.072
-153.662	91.586	0.215	0.241
-152.647	-200.000	0.117	-0.000
-151.633	155.759	-0.106	0.146
-150.618	30.872	0.166	0.142
-149.604	800.000	0.070	0.235
-148.589	60.679	0.105	0.104
-147.574	504.132	0.050	0.116
-146.560	144.213	-0.100	0.133
-145.545	800.000	0.038	0.150
-144.531	-200.000	0.013	-0.078
-143.516	18.394	-0.084	-0.067
-142.502	193.878	0.176	0.267
-141.487	-200.000	0.011	-0.195
-140.472	-74.024	-0.084	0.030
-139.458	-200.000	-0.019	-0.162
-138.443	0.928	0.113	0.081
-137.429	-129.630	0.254	0.035
-136.414	-200.000	-0.008	-0.064
-135.399	46.878	-0.152	-0.141
-134.385	10.539	0.132	-0.100
-133.370	-68.100	-0.181	-0.070
-132.356	-200.000	-0.047	-0.371
-131.341	761.083	-0.082	-0.222
-130.326	-35.396	-0.090	0.049
-129.312	800.000	0.030	-0.098
-128.297	-143.117	0.221	-0.021
-127.283	275.130	0.075	-0.132
-126.268	-56.332	-0.085	-0.038
-125.253	800.000	0.043	-0.152
-124.239	-138.711	0.165	0.018
-123.224	-125.272	0.165	-0.025
-122.210	579.836	0.083	0.202
-121.195	493.817	0.128	-0.293
-120.180	-200.000	-0.038	0.172
-119.166	-127.522	-0.342	0.050
-118.151	-102.781	0.146	-0.035
-117.137	53.737	-0.054	-0.052
-116.122	-200.000	0.030	-0.139
-115.107	174.388	0.065	0.094
-114.093	-134.919	-0.162	0.020
-113.078	-42.547	0.236	-0.120
-112.064	16.476	-0.234	-0.184
-111.049	212.808	0.081	0.127
-110.034	-96.749	0.258	-0.068
-109.020	-39.131	0.102	-0.053
-108.005	-200.000	0.023	0.182
-106.991	-11.589	-0.197	0.129
-105.976	-200.000	-0.063	-0.387
-104.962	553.436	-0.115	-0.277
-103.947	153.266	-0.047	0.064
-102.932	800.000	0.064	-0.178
-101.918	244.730	0.113	-0.190
-100.903	82.555	-0.137	0.149
-99.889	162.174	-0.068	0.095
-98.874	214.297	0.089	0.140
-97.859	106.348	-0.138	0.162
-96.845	800.000	-0.038	-0.142
-95.830	-62.625	0.111	-0.046
-94.816	104.754	-0.180	0.211
-93.801	800.000	-0.115	0.434
-92.786	664.150	-0.055	0.140
-91.772	-17.282	0.272	-0.171
-90.757	-200.000	-0.014	-0.225
-89.743	-77.551	-0.067	0.023
-88.728	-130.085	-0.109	0.015
-87.713	127.952	0.197	0.249
-86.699	-45.198	-0.219	0.108
-85.684	800.000	-0.041	0.131
-84.670	338.523	0.179	-0.347
-83.655	-200.000	0.021	-0.223
-82.640	136.043	0.184	0.238
-81.626	200.837	-0.094	0.144
-80.611	-200.000	-0.019	0.242
-79.597	-5.945	-0.245	0.167
-78.582	-32.959	0.264	-0.146
-77.567	251.185	0.075	0.128
-76.553	-132.883	-0.351	0.044
-75.538	-18.260	0.151	-0.094
-74.524	-133.836	-0.185	-0.023
-73.509	-55.816	0.321	0.143
-72.494	137.736	0.053	0.069
-71.480	-75.161	0.080	0.028
-70.465	-200.000	0.051	-0.254
-69.451	25.757	0.109	0.090
-68.436	496.692	-0.033	-0.075
-67.422	-175.900	0.150	0.004
-66.407	-14.503	0.060	0.038
-65.392	-200.000	-0.010	-0.175
-64.378	-94.462	-0.292	0.079
-63.363	-116.715	0.152	-0.028
-62.349	-144.143	0.241	-0.022
-61.334	-11.947	-0.872	-0.569
-60.319	77.500	0.260	0.276
-59.305	500.069	-0.336	-0.771
-58.290	47.881	0.756	0.702
-57.276	421.252	0.756	1.612
-56.261	-200.000	88.146	493.035
-55.246	495.596	1413.805	3230.387
-54.232	178.613	2635.649	3828.579
-53.217	116.167	2242.430	2731.085
-52.203	47.691	1680.163	1558.872
-51.188	40.344	1407.976	1259.778
-50.173	37.093	1364.128	1200.423
-49.159	56.141	1406.976	1358.093
-48.144	60.426	1426.158	1403.460
-47.130	40.818	1384.053	1241.143
-46.115	37.169	1365.981	1202.333
-45.100	36.933	1361.444	1196.836
-44.086	36.873	1358.309	1193.660
-43.071	36.849	1356.241	1191.649
-42.057	36.854	1354.058	1189.711
-41.042	36.916	1352.138	1188.361
-40.027	36.907	1350.913	1187.178
-39.013	36.981	1348.554	1185.516
-37.998	37.028	1346.536	1183.981
-36.984	37.012	1345.108	1182.578
-35.969	37.010	1343.231	1180.868
-34.954	37.059	1340.950	1179.114
-33.940	36.995	1339.837	1177.703
-32.925	37.125	1338.396	1177.179
-31.911	37.125	1337.150	1176.031
-30.896	37.135	1335.319	1174.436
-29.881	37.062	1334.572	1173.290
-28.867	37.188	1332.603	1172.278
-27.852	37.235	1330.470	1170.637
-26.838	37.157	1329.733	1169.472
-25.823	37.106	1328.530	1168.059
-24.809	37.134	1327.159	1166.977
-23.794	37.185	1325.172	1165.488
-22.779	37.116	1324.099	1164.086
-21.765	36.955	1323.307	1162.377
-20.750	37.050	1321.702	1161.488
-19.736	37.054	1320.343	1160.276
-18.721	36.892	1318.767	1157.872
-17.706	37.000	1317.320	1157.202
-16.692	36.987	1316.161	1156.059
-15.677	37.018	1314.798	1155.004
-14.663	36.935	1313.902	1153.678
-13.648	36.893	1312.883	1152.483
-12.633	36.938	1311.869	1151.819
-11.619	36.834	1311.594	1150.910
-10.604	36.948	1310.096	1150.231
-9.590	36.928	1309.241	1149.313
-8.575	36.995	1308.172	1148.725
-7.560	36.930	1307.242	1147.478
-6.546	36.831	1306.989	1146.627
-5.531	36.929	1305.390	1145.756
-4.517	36.936	1304.345	1144.836
-3.502	36.925	1303.834	1144.277
-2.487	36.901	1303.080	1143.427
-1.473	37.003	1299.002	1140.405
-0.458	35.938	1283.592	1120.636
0.556	33.118	1264.407	1079.843
1.571	29.102	1267.723	1059.523
2.586	27.706	1281.608	1062.906
3.600	26.011	1269.647	1043.096
4.615	19.536	1192.683	944.479
5.629	9.543	1112.310	829.520
6.644	4.770	1089.556	788.350
7.659	4.503	1087.205	785.233
8.673	4.603	1086.069	784.844
9.688	4.604	1084.815	783.877
10.702	4.928	1083.500	784.486
11.717	10.290	1091.908	817.647
12.731	18.898	1103.882	870.307
13.746	21.348	1105.955	884.277
14.761	20.092	1103.345	875.769
15.775	19.029	1101.091	868.540
16.790	17.958	1099.367	861.705
17.804	17.164	1097.607	856.247
18.819	16.783	1096.558	853.433
19.834	16.523	1095.487	851.216
20.848	16.392	1094.865	849.996
21.863	16.197	1093.730	848.059
22.877	16.093	1092.820	846.757
23.892	16.028	1092.372	846.010
24.907	15.945	1091.669	844.976
25.921	16.099	1090.253	844.574
26.936	15.993	1089.734	843.568
27.950	16.119	1088.119	842.870
28.965	16.236	1086.342	842.006
29.980	16.275	1084.930	841.030
30.994	16.231	1084.002	840.017
32.009	16.316	1082.855	839.475
33.023	16.418	1081.422	838.798
34.038	16.392	1080.358	837.768
35.053	16.189	1079.441	835.980
36.067	16.279	1078.460	835.589
37.082	16.217	1078.149	834.968
38.096	16.300	1077.126	834.513
39.111	16.304	1076.375	833.875
40.126	16.170	1075.123	832.171
41.140	15.967	1073.701	830.000
42.155	15.914	1072.454	828.702
43.169	15.904	1071.370	827.738
44.184	16.010	1070.092	827.199
45.199	15.948	1069.297	826.205
46.213	15.962	1068.582	825.649
47.228	16.193	1067.283	825.704
48.242	16.256	1066.279	825.162
49.257	16.254	1064.829	823.959
50.271	16.211	1064.264	823.237
51.286	16.291	1063.256	822.777
52.301	16.168	1062.662	821.642
53.315	16.148	1061.532	820.597
54.330	16.050	1060.323	819.118
55.344	16.095	1059.530	818.649
56.359	16.136	1058.542	818.015
57.374	15.916	1057.510	816.077
58.388	15.966	1056.503	815.471
59.403	15.766	1055.992	814.036
60.417	15.881	1055.053	813.797
61.432	15.847	1054.719	813.299
62.447	15.837	1053.333	812.114
63.461	15.828	1052.536	811.382
64.476	15.662	1051.755	809.912
65.490	15.714	1051.079	809.567
66.505	15.854	1050.064	809.387
67.520	15.814	1049.525	808.711
68.534	15.807	1049.188	808.341
69.549	15.975	1047.987	808.152
70.563	15.885	1046.993	806.884
71.578	15.749	1046.626	805.879
72.593	15.715	1045.704	804.935
73.607	15.694	1045.001	804.223
74.622	15.609	1044.415	803.292
75.636	15.666	1043.605	802.869
76.651	15.820	1042.643	802.796
77.666	15.689	1042.343	801.865
78.680	15.855	1041.155	801.674
79.695	15.890	1040.953	801.614
80.709	15.933	1040.346	801.279
81.724	15.921	1039.550	800.538
82.739	16.028	1038.983	800.539
83.753	16.154	1037.866	800.207
84.768	16.273	1037.249	800.223
85.782	16.331	1036.445	799.804
86.797	16.408	1035.205	799.141
87.812	16.126	1034.249	797.002
88.826	16.222	1033.223	796.593
89.841	16.323	1032.285	796.274
90.855	16.314	1031.765	795.763
91.870	16.287	1030.789	794.813
92.884	16.406	1029.613	794.397
93.899	16.345	1029.061	793.612
94.914	16.398	1028.158	793.095
95.928	16.296	1027.632	792.138
96.943	16.354	1026.156	791.205
97.957	16.365	1025.160	790.416
98.972	16.286	1024.381	789.380
99.987	16.249	1023.740	788.640
101.001	16.396	1022.378	788.208
102.016	16.215	1022.105	787.083
103.030	16.314	1020.941	786.577
104.045	16.352	1020.329	786.212
105.060	16.273	1019.054	784.793
106.074	16.156	1018.277	783.584
107.089	15.911	1017.250	781.585
108.103	15.820	1016.600	780.597
109.118	15.907	1015.462	780.055
110.133	15.879	1014.633	779.222
111.147	15.919	1013.455	778.431
112.162	15.926	1012.586	777.728
113.176	16.083	1012.105	778.014
114.191	16.134	1011.020	777.346
115.206	15.990	1010.599	776.289
116.220	16.041	1009.975	775.980
117.235	15.984	1009.008	774.903
118.249	15.996	1007.763	773.934
119.264	15.876	1007.194	772.878
120.279	15.986	1006.244	772.584
121.293	15.786	1005.428	770.976
122.308	15.782	1004.540	770.205
123.322	15.821	1003.174	769.268
124.337	15.751	1002.240	768.166
125.352	15.851	1001.219	767.769
126.366	15.781	1000.199	766.602
127.381	15.881	998.987	766.059
128.395	15.875	998.182	765.348
129.410	15.891	997.640	764.935
130.424	16.066	996.549	764.825
131.439	16.244	995.450	764.723
132.454	16.074	995.220	763.709
133.468	16.149	994.390	763.343
134.483	16.117	993.770	762.657
135.497	15.953	993.142	761.364
136.512	16.129	991.844	761.098
137.527	16.144	991.080	760.510
138.541	16.015	990.336	759.292
139.556	16.127	989.638	759.192
140.570	16.242	989.373	759.440
141.585	16.280	988.431	758.819
142.600	16.399	987.239	758.373
143.614	16.395	986.288	757.556
144.629	16.519	985.139	757.162
145.643	16.322	984.824	755.974
146.658	16.336	983.093	754.639
147.673	16.202	982.605	753.600
148.687	16.100	981.690	752.375
149.702	16.085	980.661	751.453
150.716	16.170	979.878	751.164
151.731	16.145	979.331	750.567
152.746	16.077	978.693	749.712
153.760	16.270	977.779	749.801
154.775	16.263	977.268	749.314
155.789	16.274	976.723	748.877
156.804	16.347	975.615	748.286
157.819	16.397	974.998	747.965
158.833	16.536	974.382	748.042
159.848	16.544	973.843	747.596
160.862	16.332	972.947	745.906
161.877	16.323	971.679	744.828
162.892	16.136	970.879	743.329
163.906	16.177	969.703	742.541
164.921	16.236	968.962	742.168
165.935	16.243	968.004	741.397
166.950	16.298	967.073	740.860
167.964	16.301	966.134	740.091
168.979	16.357	964.947	739.361
169.994	16.327	964.120	738.528
171.008	16.431	963.606	738.525
172.023	16.473	963.043	738.211
173.037	16.490	962.334	737.677
174.052	16.440	961.435	736.705
175.067	16.234	960.849	735.291
176.081	16.162	960.326	734.513
177.096	16.350	959.578	734.695
178.110	16.339	959.413	734.456
179.125	16.329	958.612	733.735
180.140	16.304	957.829	732.962
181.154	16.352	957.494	732.846
182.169	16.581	957.015	733.410
183.183	16.561	956.495	732.861
184.198	16.536	955.345	731.807
185.213	16.586	955.091	731.761
186.227	16.476	954.655	730.886
187.242	16.687	953.781	731.065
188.256	16.818	952.747	730.772
189.271	16.753	952.051	729.897
190.286	16.530	951.237	728.246
191.300	16.274	949.808	725.987
192.315	16.291	949.561	725.806
193.329	16.342	949.216	725.697
194.344	16.426	948.677	725.582
195.359	16.553	947.769	725.370
196.373	16.484	947.577	724.861
197.388	16.695	947.050	725.300
198.402	16.877	946.464	725.562
199.417	16.859	945.845	724.948
200.432	16.954	945.236	724.826
201.446	16.973	944.760	724.474
202.461	17.059	944.197	724.347
203.475	16.904	943.615	723.174
204.490	16.795	942.806	722.025
205.504	16.789	941.955	721.288
206.519	16.848	941.054	720.782
207.534	16.904	940.149	720.266
208.548	16.822	939.600	719.433
209.563	16.726	939.201	718.655
210.577	16.840	938.676	718.674
211.592	16.974	937.831	718.528
212.607	16.964	937.057	717.832
213.621	16.974	936.143	717.109
214.636	16.967	935.691	716.671
215.650	16.969	934.969	716.064
216.665	17.085	934.190	715.893
217.680	17.092	933.803	715.560
218.694	17.223	933.060	715.483
219.709	17.055	932.574	714.339
220.723	17.180	931.511	713.987
221.738	17.211	930.528	713.299
222.753	17.040	930.416	712.431
223.767	17.063	930.018	712.163
224.782	17.085	929.503	711.796
225.796	17.149	928.840	711.494
226.811	17.281	927.545	710.992
227.826	17.200	926.815	710.029
228.840	17.255	926.092	709.644
229.855	17.006	925.565	708.135
230.869	17.175	924.560	708.009
231.884	17.085	923.921	707.082
232.899	16.960	923.344	706.057
233.913	16.937	922.508	705.263
234.928	17.143	921.266	705.106
235.942	17.026	920.998	704.353
236.957	17.029	920.308	703.773
237.972	17.013	920.007	703.416
238.986	17.009	919.515	702.962
240.001	17.105	918.753	702.711
241.015	17.048	918.084	701.902
242.030	16.994	917.552	701.210
243.045	17.211	916.659	701.363
244.059	17.224	916.349	701.117
245.074	17.174	915.743	700.385
246.088	17.403	914.856	700.590
247.103	17.444	914.081	700.102
248.117	17.451	914.093	700.077
249.132	17.695	913.251	700.372
250.147	17.710	912.924	700.122
251.161	17.642	912.577	699.517
252.176	17.623	911.974	698.912
253.190	17.900	910.967	699.214
254.205	17.938	910.141	698.673
255.220	17.873	909.428	697.798
256.234	17.782	908.739	696.835
257.249	17.776	907.857	696.076
258.263	17.837	907.457	695.953
259.278	17.742	906.979	695.138
260.293	17.811	906.183	694.747
261.307	17.895	905.720	694.672
262.322	17.951	905.287	694.506
263.336	17.963	904.236	693.691
264.351	17.974	903.523	693.123
265.366	18.095	902.538	692.799
266.380	17.952	902.351	692.013
267.395	17.951	901.872	691.582
268.409	17.856	900.937	690.418
269.424	17.845	899.986	689.583
270.439	17.821	899.279	688.887
271.453	17.904	898.653	688.682
272.468	17.813	897.927	687.694
273.482	17.870	897.577	687.597
274.497	17.817	896.940	686.836
275.512	17.944	896.001	686.564
276.526	17.797	896.081	685.977
277.541	17.923	895.591	686.047
278.555	18.115	894.548	685.957
279.570	18.214	894.077	685.930
280.585	18.144	893.253	684.960
281.599	18.009	892.459	683.748
282.614	18.023	891.603	683.087
283.628	18.080	891.022	682.810
284.643	18.005	890.552	682.091
285.657	18.032	889.687	681.475
286.672	18.037	889.099	680.983
287.687	18.161	888.643	681.068
288.701	18.174	888.015	680.580
289.716	18.073	887.954	680.068
290.730	18.177	886.789	679.529
291.745	18.193	886.367	679.212
292.760	18.111	886.087	678.609
293.774	18.299	885.193	678.611
294.789	18.256	884.535	677.878
295.803	18.100	883.811	676.644
296.818	18.085	883.424	676.228
297.833	18.012	882.334	675.045
298.847	18.112	882.031	675.148
299.862	18.171	881.370	674.817
300.876	18.380	880.685	675.054
301.891	18.466	879.927	674.754
302.906	18.430	879.663	674.349
303.920	18.505	879.213	674.241
304.935	18.526	878.454	673.681
305.949	18.672	877.586	673.528
306.964	18.423	877.236	672.223
307.979	18.465	876.491	671.760
308.993	18.532	876.139	671.690
310.008	18.605	875.405	671.355
311.022	18.542	875.215	670.902
312.037	18.507	873.995	669.772
313.052	18.348	873.728	668.887
314.066	18.388	873.164	668.554
315.081	18.417	871.973	667.695
316.095	18.276	871.716	666.888
317.110	18.276	871.354	666.553
318.125	18.394	870.476	666.283
319.139	18.351	869.953	665.656
320.154	18.359	869.672	665.411
321.168	18.377	869.328	665.161
322.183	18.458	868.520	664.797
323.197	18.550	867.911	664.628
324.212	18.525	867.797	664.384
325.227	18.461	866.886	663.383
326.241	18.533	866.278	663.136
327.256	18.528	866.054	662.887
328.270	18.563	865.061	662.204
329.285	18.280	864.641	660.730
330.300	18.440	863.701	660.571
331.314	18.495	863.449	660.530
332.329	18.547	863.364	660.608
333.343	18.751	862.781	660.889
334.358	18.711	862.095	660.151
335.373	18.701	861.742	659.784
336.387	18.672	861.714	659.594
337.402	18.785	861.447	659.764
338.416	18.773	861.166	659.445
339.431	18.837	860.718	659.290
340.446	18.952	859.993	659.115
341.460	18.951	859.698	658.827
342.475	19.087	859.453	659.104
343.489	19.030	859.052	658.520
344.504	19.197	858.593	658.747
345.519	19.236	857.770	658.205
346.533	19.127	857.275	657.352
347.548	18.997	856.636	656.309
348.562	18.830	856.156	655.247
349.577	18.884	855.552	654.929
350.592	18.981	854.442	654.393
351.606	18.766	853.987	653.168
352.621	18.844	853.589	653.102
353.635	18.983	852.723	652.911
354.650	18.985	852.473	652.666
355.665	18.811	852.069	651.641
356.679	19.101	850.729	651.658
357.694	19.089	850.171	651.126
358.708	19.157	849.579	650.874
359.723	19.032	849.009	649.908
360.738	19.030	848.644	649.561
361.752	19.142	848.113	649.518
362.767	19.213	847.308	649.112
363.781	19.414	846.757	649.391
364.796	19.436	846.385	649.132
365.810	19.446	846.037	648.844
366.825	19.523	845.972	649.027
367.840	19.404	845.329	648.028
368.854	19.395	844.779	647.518
369.869	19.175	844.462	646.391
370.883	19.374	843.931	646.672
371.898	19.480	843.472	646.661
372.913	19.488	843.207	646.432
373.927	19.482	842.346	645.692
374.942	19.506	841.937	645.411
375.956	19.580	841.784	645.513
376.971	19.697	841.278	645.505
377.986	19.707	840.711	645.050
379.000	19.771	840.242	644.869
380.015	19.582	839.664	643.665
381.029	19.776	838.857	643.714
382.044	19.830	838.316	643.441
383.059	19.759	837.837	642.754
384.073	19.696	837.276	642.031
385.088	19.601	836.629	641.125
386.102	19.564	835.614	640.153
387.117	19.551	835.480	639.947
388.132	19.494	834.936	639.262
389.146	19.536	834.270	638.852
390.161	19.704	833.816	639.067
391.175	19.822	833.400	639.130
392.190	19.703	833.141	638.434
393.205	19.766	832.150	637.851
394.219	19.571	831.959	636.930
395.234	19.588	831.799	636.813
396.248	19.418	831.355	635.791
397.263	19.627	830.143	635.576
398.278	19.446	830.349	635.010
399.292	19.481	830.131	634.918
400.307	19.425	829.399	634.095
401.321	19.465	829.016	633.893
402.336	19.581	828.577	633.925
403.350	19.676	827.479	633.379
404.365	19.843	827.328	633.821
405.380	19.833	827.065	633.526
406.394	19.952	826.451	633.435
407.409	19.963	826.109	633.156
408.423	19.880	826.119	632.805
409.438	19.952	825.565	632.588
410.453	20.067	825.154	632.639
411.467	20.085	824.385	632.055
412.482	20.145	824.187	632.069
413.496	20.055	823.845	631.420
414.511	20.250	823.315	631.670
415.526	20.069	822.861	630.607
416.540	20.095	822.511	630.378
417.555	20.309	821.727	630.498
418.569	20.141	821.433	629.608
419.584	20.249	820.917	629.546
420.599	20.189	820.828	629.205
421.613	153.446	1370.226	1781.488
422.628	133.640	1450.271	1781.580
