DTS Sentinel unit serial number:	SN413079Multiplexer serial number:	ORYXHardware model number:	OX4-SRSoftware version number:	ORYX F/W v4.00 Oryx Data Collector v3.7.2.0data status	okinstallation	princeton_trtdifferential loss correction	single-endedforward channel	channel 1reverse channel	N/Adate	2019/09/12time	10:32:11forward acquisition time	60.00reverse acquisition time	0.00gamma	496.2192k internal	0.2297k external	0.2297temperature offset calibration	1.0045default loss term (dB/km)	0.3790temperature slope calibration	1.0000multiplexer offset coefficient	1.0000multiplexer slope coefficient	1.0000fibre end	0.00T internal ref (°C)	37.14T ext. ref 1 (°C)	1.86T ext. ref 2 (°C)	35.10length (m)	temperature (°C)	Stokes	anti-Stokes-747.200	-146.134	0.089	0.008
-746.185	-113.202	-0.195	0.039
-745.171	800.000	0.095	0.415
-744.156	-158.382	0.217	0.013
-743.142	459.893	-0.100	0.228
-742.127	548.106	-0.098	0.239
-741.112	192.187	0.050	0.076
-740.098	-94.989	-0.170	0.047
-739.083	-123.772	0.218	0.035
-738.069	-30.283	-0.181	0.105
-737.054	-17.072	-0.315	0.203
-736.039	-200.000	0.041	0.225
-735.025	-53.620	0.048	0.023
-734.010	-87.100	-0.235	-0.073
-732.996	-141.655	0.144	-0.015
-731.981	145.043	0.081	0.111
-730.966	561.470	0.008	0.019
-729.952	-92.985	0.088	0.025
-728.937	-200.000	-0.022	-0.210
-727.923	-200.000	-0.056	-0.356
-726.908	-136.111	-0.268	-0.032
-725.894	-55.140	-0.427	-0.196
-724.879	-69.483	0.101	-0.040
-723.864	-200.000	-0.017	-0.187
-722.850	800.000	0.144	0.442
-721.835	-48.253	-0.347	0.171
-720.821	-61.152	0.221	-0.095
-719.806	-70.976	0.031	-0.012
-718.791	-200.000	-0.021	-0.221
-717.777	413.963	-0.228	0.495
-716.762	800.000	0.087	-0.290
-715.748	800.000	0.054	-0.191
-714.733	-11.412	-0.202	-0.136
-713.718	67.307	-0.037	-0.039
-712.704	281.967	-0.058	0.106
-711.689	23.315	-0.131	0.110
-710.675	-90.653	0.372	-0.110
-709.660	-60.101	-0.128	-0.056
-708.645	516.069	0.017	-0.039
-707.631	-129.649	0.195	-0.027
-706.616	203.462	-0.248	-0.391
-705.602	-94.836	-0.213	-0.059
-704.587	-30.397	0.264	-0.153
-703.572	403.055	0.019	0.041
-702.558	317.236	0.064	0.124
-701.543	93.244	-0.150	-0.173
-700.529	-79.913	-0.259	-0.089
-699.514	800.000	0.038	0.149
-698.499	-75.988	-0.134	-0.048
-697.485	-200.000	-0.024	-0.293
-696.470	133.805	0.227	0.300
-695.456	-200.000	0.020	0.348
-694.441	131.350	0.062	0.082
-693.426	118.412	-0.130	0.164
-692.412	-72.087	0.169	-0.064
-691.397	113.926	0.084	0.104
-690.383	-107.727	0.035	0.008
-689.368	-22.880	-0.010	-0.006
-688.354	-93.404	-0.033	0.009
-687.339	800.000	-0.050	0.215
-686.324	-46.055	-0.085	0.043
-685.310	-20.031	0.097	0.061
-684.295	-157.933	0.160	0.010
-683.281	-200.000	0.023	-0.125
-682.266	800.000	0.082	0.270
-681.251	477.471	-0.123	-0.284
-680.237	-13.511	-0.263	0.173
-679.222	-33.665	-0.054	-0.030
-678.208	-25.049	-0.160	-0.097
-677.193	-138.585	-0.239	-0.027
-676.178	47.214	-0.105	-0.099
-675.164	-131.851	0.142	0.019
-674.149	612.418	0.035	0.089
-673.135	57.561	0.169	0.168
-672.120	212.353	-0.094	0.150
-671.105	-158.480	-0.093	-0.006
-670.091	422.078	0.104	0.228
-669.076	-147.412	-0.267	-0.023
-668.062	-80.782	-0.197	-0.067
-667.047	-200.000	0.009	-0.150
-666.032	4.673	0.226	0.169
-665.018	-41.580	0.102	-0.053
-664.003	-200.000	-0.047	0.319
-662.989	363.099	-0.099	0.202
-661.974	104.791	-0.185	-0.222
-660.959	-4.354	0.405	-0.285
-659.945	225.326	0.147	0.243
-658.930	-188.129	0.184	-0.002
-657.916	224.141	-0.100	0.165
-656.901	-7.398	0.253	-0.175
-655.886	-97.237	0.048	0.013
-654.872	800.000	0.036	0.124
-653.857	-35.744	0.146	-0.081
-652.843	800.000	0.031	-0.097
-651.828	-104.103	0.142	-0.034
-650.814	145.332	-0.021	0.028
-649.799	-66.767	-0.281	0.113
-648.784	760.548	0.170	0.470
-647.770	-200.000	-0.053	-0.285
-646.755	159.089	-0.030	-0.042
-645.741	800.000	0.094	0.394
-644.726	800.000	-0.020	0.075
-643.711	-143.796	0.153	-0.015
-642.697	800.000	-0.007	0.030
-641.682	-75.717	-0.157	-0.057
-640.668	135.797	-0.251	-0.333
-639.653	-200.000	-0.042	0.347
-638.638	-96.157	0.289	-0.078
-637.624	-40.402	-0.095	0.050
-636.609	-109.738	-0.087	0.019
-635.595	-79.240	0.169	0.058
-634.580	116.400	-0.300	0.374
-633.565	323.095	-0.058	0.112
-632.551	-196.552	0.063	0.000
-631.536	215.451	0.115	0.186
-630.522	-53.862	-0.111	-0.052
-629.507	7.619	0.156	0.119
-628.492	-24.181	0.266	0.162
-627.478	-83.669	0.194	0.063
-626.463	-24.652	-0.123	0.074
-625.449	-44.448	-0.463	-0.235
-624.434	-122.646	0.286	0.047
-623.419	38.974	0.257	0.234
-622.405	102.578	0.107	-0.127
-621.390	-200.000	-0.001	-0.080
-620.376	31.004	0.081	0.071
-619.361	-200.000	-0.000	-0.102
-618.346	-185.840	-0.303	0.005
-617.332	-10.168	-0.182	0.123
-616.317	275.496	-0.022	-0.040
-615.303	800.000	-0.056	-0.223
-614.288	-200.000	0.014	-0.088
-613.273	800.000	0.068	0.248
-612.259	-70.119	-0.170	-0.066
-611.244	800.000	0.080	-0.245
-610.230	-74.658	0.289	0.105
-609.215	800.000	0.053	-0.173
-608.201	2.522	0.188	0.139
-607.186	-182.727	-0.145	-0.003
-606.171	800.000	0.014	0.061
-605.157	-53.758	0.177	-0.082
-604.142	800.000	-0.042	-0.144
-603.128	-200.000	-0.051	0.322
-602.113	-61.687	0.172	-0.073
-601.098	502.292	-0.183	0.430
-600.084	-37.509	0.121	-0.065
-599.069	-119.732	-0.257	0.045
-598.055	431.107	-0.080	0.175
-597.040	-94.036	0.168	0.047
-596.025	313.972	-0.061	0.117
-595.011	-50.458	-0.141	0.068
-593.996	-3.922	0.225	0.158
-592.982	216.800	-0.205	-0.332
-591.967	800.000	-0.055	0.176
-590.952	-73.795	-0.200	-0.074
-589.938	-200.000	-0.015	0.209
-588.923	-200.000	-0.037	-0.228
-587.909	7.094	0.067	-0.051
-586.894	29.356	-0.156	0.134
-585.879	302.402	0.018	0.033
-584.865	-81.793	-0.102	0.034
-583.850	800.000	-0.038	-0.150
-582.836	5.338	-0.194	0.146
-581.821	-15.115	0.052	0.034
-580.806	628.450	0.167	-0.429
-579.792	-85.561	-0.208	0.066
-578.777	-200.000	-0.073	0.420
-577.763	-200.000	0.019	-0.116
-576.748	140.956	-0.197	0.264
-575.733	-118.908	-0.142	-0.025
-574.719	-69.713	0.200	-0.078
-573.704	-45.248	0.478	-0.241
-572.690	-200.000	0.029	-0.269
-571.675	78.014	-0.315	0.341
-570.661	-46.248	0.194	-0.097
-569.646	-14.614	0.233	0.152
-568.631	-200.000	0.044	0.311
-567.617	-161.490	0.213	0.011
-566.602	46.088	0.245	-0.231
-565.588	113.941	0.036	-0.045
-564.573	800.000	-0.043	-0.121
-563.558	800.000	0.046	0.145
-562.544	78.248	0.270	-0.292
-561.529	-200.000	0.006	0.146
-560.515	13.357	0.207	-0.163
-559.500	-200.000	0.039	-0.337
-558.485	43.999	0.266	-0.247
-557.471	-130.073	0.294	-0.041
-556.456	800.000	-0.047	-0.202
-555.442	-146.368	-0.321	0.028
-554.427	-119.454	-0.098	-0.017
-553.412	385.339	0.049	-0.102
-552.398	60.754	0.279	-0.280
-551.383	210.672	-0.055	0.087
-550.369	60.950	-0.400	-0.403
-549.354	800.000	0.058	-0.229
-548.339	578.622	-0.154	-0.381
-547.325	-3.225	-0.211	-0.149
-546.310	-98.235	-0.176	-0.046
-545.296	-200.000	-0.019	0.218
-544.281	-121.683	0.141	0.024
-543.266	189.777	-0.164	-0.249
-542.252	271.024	0.067	-0.120
-541.237	311.568	-0.130	-0.248
-540.223	147.694	0.037	0.051
-539.208	-200.000	-0.008	0.116
-538.193	-60.352	0.284	-0.122
-537.179	82.471	-0.131	0.144
-536.164	-82.681	0.255	-0.084
-535.150	-152.413	0.251	-0.018
-534.135	-75.587	0.303	0.109
-533.121	41.292	-0.143	0.131
-532.106	-60.465	-0.353	-0.152
-531.091	-23.792	-0.323	0.196
-530.077	22.285	0.126	-0.104
-529.062	-200.000	0.007	0.153
-528.048	11.405	-0.146	-0.113
-527.033	56.139	0.187	-0.184
-526.018	124.016	-0.106	-0.135
-525.004	482.445	-0.052	0.120
-523.989	-48.220	0.030	-0.015
-522.975	-71.134	0.199	-0.076
-521.960	229.860	0.153	-0.253
-520.945	375.844	-0.167	-0.344
-519.931	18.838	0.119	-0.096
-518.916	-82.279	-0.125	-0.041
-517.902	94.384	-0.189	-0.217
-516.887	-200.000	-0.034	0.343
-515.872	-49.206	-0.240	0.116
-514.858	-175.692	0.261	0.007
-513.843	68.877	-0.168	-0.174
-512.829	298.941	-0.109	0.203
-511.814	321.519	-0.125	-0.240
-510.799	-73.311	0.426	-0.158
-509.785	-79.350	-0.195	-0.067
-508.770	-200.000	-0.040	0.268
-507.756	-138.148	0.162	0.018
-506.741	-200.000	0.009	0.050
-505.726	800.000	-0.041	0.128
-504.712	63.154	0.064	-0.065
-503.697	-155.251	-0.565	0.037
-502.683	-31.387	-0.072	0.041
-501.668	128.927	-0.125	-0.161
-500.653	-185.047	0.158	0.003
-499.639	800.000	0.071	-0.272
-498.624	800.000	0.085	-0.318
-497.610	-2.231	0.347	-0.246
-496.595	-200.000	-0.047	0.254
-495.581	-200.000	-0.015	0.105
-494.566	-200.000	0.029	-0.239
-493.551	-200.000	-0.030	0.200
-492.537	800.000	-0.095	-0.327
-491.522	800.000	0.058	0.214
-490.508	-38.636	0.346	0.185
-489.493	32.791	-0.279	0.244
-488.478	157.702	-0.129	-0.181
-487.464	14.841	0.192	-0.152
-486.449	-63.628	0.208	-0.086
-485.435	-36.494	0.116	0.063
-484.420	178.594	0.088	-0.130
-483.405	-60.236	-0.296	0.128
-482.391	-200.000	-0.058	0.260
-481.376	-36.339	-0.255	-0.139
-480.362	-109.130	-0.232	0.050
-479.347	1.402	0.127	-0.093
-478.332	33.818	0.170	0.150
-477.318	-200.000	0.009	-0.237
-476.303	154.533	0.083	-0.115
-475.289	103.206	-0.176	-0.209
-474.274	213.606	0.050	0.079
-473.259	36.762	0.045	-0.040
-472.245	-164.307	0.099	0.005
-471.230	-12.364	0.360	0.238
-470.216	800.000	0.085	-0.286
-469.201	-200.000	0.071	-0.356
-468.186	-69.628	-0.242	-0.093
-467.172	34.002	0.387	0.340
-466.157	-200.000	0.015	0.156
-465.143	205.487	-0.117	-0.183
-464.128	133.067	0.053	-0.069
-463.113	82.397	0.122	0.134
-462.099	335.271	-0.177	0.346
-461.084	-200.000	-0.036	-0.186
-460.070	800.000	-0.096	-0.326
-459.055	-133.612	0.188	-0.024
-458.040	-136.326	0.176	0.021
-457.026	252.007	-0.152	-0.261
-456.011	-45.180	0.220	0.110
-454.997	32.858	-0.333	0.292
-453.982	296.777	-0.165	-0.305
-452.968	800.000	-0.025	-0.096
-451.953	70.129	0.136	-0.142
-450.938	133.615	0.060	0.078
-449.924	800.000	-0.059	-0.203
-448.909	-55.816	0.231	-0.104
-447.895	-72.458	-0.198	-0.074
-446.880	-8.843	0.337	0.228
-445.865	130.079	0.172	-0.222
-444.851	-18.274	0.178	-0.112
-443.836	-34.995	-0.177	0.098
-442.822	29.468	0.324	0.278
-441.807	-93.336	-0.130	-0.037
-440.792	61.088	-0.187	-0.187
-439.778	666.604	0.031	-0.081
-438.763	800.000	-0.059	0.224
-437.749	85.737	-0.260	0.289
-436.734	36.176	-0.074	0.066
-435.719	-14.503	0.275	-0.179
-434.705	-91.841	0.371	-0.106
-433.690	-200.000	0.000	-0.369
-432.676	248.126	-0.131	0.224
-431.661	-136.998	0.134	-0.015
-430.646	-78.345	-0.157	-0.054
-429.632	-200.000	0.055	-0.291
-428.617	-71.562	-0.108	-0.041
-427.603	192.386	0.059	-0.089
-426.588	1.643	0.267	-0.194
-425.573	-200.000	-0.094	-0.467
-424.559	187.732	-0.111	-0.168
-423.544	624.362	0.030	0.076
-422.530	-52.676	-0.194	-0.090
-421.515	124.566	-0.187	0.237
-420.500	29.001	-0.277	0.237
-419.486	-65.094	-0.291	-0.118
-418.471	-200.000	-0.013	0.331
-417.457	-98.222	-0.287	0.074
-416.442	-94.176	-0.293	0.081
-415.428	524.541	-0.012	0.030
-414.413	-200.000	0.027	0.323
-413.398	202.124	-0.044	-0.068
-412.384	96.661	-0.082	0.095
-411.369	-21.703	0.179	-0.110
-410.355	230.607	-0.216	-0.357
-409.340	-36.460	0.062	0.034
-408.325	113.537	0.275	-0.337
-407.311	800.000	0.086	-0.326
-406.296	150.385	0.096	0.131
-405.282	401.647	-0.047	0.100
-404.267	-45.990	-0.281	-0.139
-403.252	-200.000	-0.009	-0.045
-402.238	25.036	0.187	0.157
-401.223	-79.193	-0.207	0.071
-400.209	-101.433	-0.094	0.023
-399.194	-200.000	0.026	0.116
-398.179	-200.000	-0.022	-0.452
-397.165	-200.000	-0.029	0.334
-396.150	800.000	-0.097	0.287
-395.136	65.534	0.013	0.013
-394.121	-200.000	-0.072	-0.418
-393.106	-200.000	0.030	-0.139
-392.092	-109.471	-0.059	-0.013
-391.077	-162.136	0.403	-0.020
-390.063	800.000	0.091	0.275
-389.048	-108.377	0.087	-0.019
-388.033	-69.613	0.234	0.090
-387.019	225.022	-0.171	-0.279
-386.004	-163.025	0.219	0.011
-384.990	-1.647	-0.329	-0.234
-383.975	268.168	0.207	0.365
-382.960	140.937	-0.138	0.183
-381.946	350.560	0.090	-0.180
-380.931	-200.000	0.007	0.143
-379.917	-128.809	-0.357	-0.051
-378.902	234.567	0.065	-0.107
-377.888	-45.805	0.129	-0.064
-376.873	-200.000	0.003	0.098
-375.858	-163.351	-0.281	0.013
-374.844	391.234	0.131	0.274
-373.829	78.534	0.179	-0.192
-372.815	17.336	-0.145	0.116
-371.800	-179.709	-0.225	-0.005
-370.785	57.988	0.106	0.104
-369.771	-111.262	0.473	0.097
-368.756	-29.949	-0.098	-0.056
-367.742	758.138	-0.075	-0.204
-366.727	76.871	-0.137	-0.147
-365.712	-63.802	0.140	-0.058
-364.698	-96.235	0.113	-0.030
-363.683	-48.325	-0.196	0.095
-362.669	0.594	-0.302	0.217
-361.654	88.276	0.122	-0.137
-360.639	-96.585	-0.050	-0.013
-359.625	186.744	-0.234	0.351
-358.610	-200.000	0.008	0.252
-357.596	176.973	0.121	-0.177
-356.581	-155.873	0.074	-0.005
-355.566	38.896	0.140	-0.126
-354.552	-200.000	0.001	-0.026
-353.537	-122.052	-0.085	-0.014
-352.523	-17.298	-0.309	0.196
-351.508	-106.277	0.167	-0.038
-350.493	-200.000	-0.024	0.304
-349.479	-200.000	0.014	0.116
-348.464	-200.000	0.044	0.379
-347.450	-85.629	0.220	0.069
-346.435	49.784	0.262	-0.248
-345.420	281.704	0.139	-0.250
-344.406	-73.125	0.265	0.098
-343.391	68.581	-0.103	-0.106
-342.377	502.642	-0.107	0.248
-341.362	-76.599	0.235	-0.083
-340.348	44.365	-0.123	0.114
-339.333	-200.000	-0.029	-0.147
-338.318	-73.285	-0.212	0.078
-337.304	-58.526	0.189	-0.083
-336.289	800.000	0.074	-0.250
-335.275	-51.030	-0.269	0.127
-334.260	-200.000	0.005	0.328
-333.245	119.909	0.203	-0.253
-332.231	165.773	-0.050	-0.071
-331.216	339.235	-0.078	-0.152
-330.202	136.617	0.118	-0.155
-329.187	105.567	-0.069	0.082
-328.172	-200.000	0.033	-0.176
-327.158	-200.000	-0.022	-0.268
-326.143	679.492	-0.059	-0.155
-325.129	4.092	-0.253	-0.186
-324.114	-63.995	-0.301	0.124
-323.099	-100.910	-0.209	0.051
-322.085	186.704	0.175	0.262
-321.070	373.687	-0.065	-0.133
-320.056	308.112	-0.067	-0.125
-319.041	-200.000	0.008	0.139
-318.026	-200.000	0.034	-0.192
-317.012	800.000	-0.167	0.512
-315.997	156.229	0.107	0.148
-314.983	53.029	0.321	0.308
-313.968	631.704	0.051	-0.129
-312.953	800.000	0.039	0.131
-311.939	12.956	0.232	-0.180
-310.924	67.188	0.083	-0.085
-309.910	37.161	0.051	-0.045
-308.895	-91.517	-0.330	-0.095
-307.880	-38.518	0.192	0.102
-306.866	-158.041	0.183	0.011
-305.851	-200.000	-0.056	-0.395
-304.837	632.371	0.019	-0.048
-303.822	322.704	0.097	-0.186
-302.807	260.598	-0.130	0.226
-301.793	105.729	-0.045	-0.054
-300.778	-106.489	0.265	0.059
-299.764	490.489	0.018	-0.042
-298.749	-189.213	0.224	0.003
-297.735	-5.489	0.281	-0.194
-296.720	666.301	0.071	0.185
-295.705	202.438	-0.031	0.047
-294.691	-129.823	0.180	0.025
-293.676	103.485	0.141	0.166
-292.662	-72.995	-0.146	-0.054
-291.647	-24.590	0.245	0.147
-290.632	11.242	-0.057	0.044
-289.618	-200.000	0.077	-0.361
-288.603	-200.000	0.013	0.226
-287.589	-88.473	-0.055	-0.016
-286.574	-96.632	-0.146	0.039
-285.559	-67.743	-0.339	0.133
-284.545	-112.240	0.227	-0.046
-283.530	552.300	0.117	0.282
-282.516	800.000	-0.058	-0.172
-281.501	-124.906	0.387	-0.060
-280.486	14.902	-0.111	0.087
-279.472	-200.000	-0.016	0.209
-278.457	120.413	0.093	0.116
-277.443	11.812	-0.077	0.059
-276.428	-200.000	-0.060	0.316
-275.413	-27.489	0.202	0.118
-274.399	-140.864	-0.296	0.031
-273.384	-200.000	0.001	0.175
-272.370	35.627	0.240	0.211
-271.355	399.648	0.111	0.233
-270.340	-160.130	0.335	-0.018
-269.326	349.827	0.056	-0.110
-268.311	230.060	-0.321	0.527
-267.297	-10.709	0.314	0.208
-266.282	77.276	0.062	-0.066
-265.267	-70.585	0.092	0.035
-264.253	50.279	-0.049	-0.046
-263.238	-151.007	-0.263	-0.020
-262.224	-75.659	0.125	0.045
-261.209	-200.000	-0.039	0.369
-260.195	-200.000	0.043	0.336
-259.180	213.319	-0.199	0.316
-258.165	-93.851	0.533	0.147
-257.151	-38.108	-0.334	0.178
-256.136	212.966	-0.093	0.147
-255.122	-8.119	0.117	-0.079
-254.107	603.287	-0.058	0.145
-253.092	-42.926	-0.136	0.069
-252.078	194.942	-0.124	-0.189
-251.063	-137.075	-0.275	0.031
-250.049	118.374	0.220	-0.272
-249.034	-117.801	-0.200	-0.036
-248.019	166.265	-0.173	-0.246
-247.005	-98.597	-0.043	0.011
-245.990	-116.510	-0.174	-0.032
-244.976	-24.483	-0.222	0.132
-243.961	-29.591	-0.411	0.235
-242.946	8.420	-0.362	-0.273
-241.932	624.602	-0.024	-0.062
-240.917	-89.230	0.104	0.031
-239.903	-200.000	-0.044	0.311
-238.888	-89.783	-0.094	0.027
-237.873	165.040	0.240	0.339
-236.859	32.549	0.138	0.120
-235.844	-200.000	0.001	0.210
-234.830	-27.544	-0.182	0.106
-233.815	219.514	-0.194	0.310
-232.800	142.341	0.278	-0.369
-231.786	-200.000	-0.001	0.074
-230.771	-200.000	-0.007	-0.097
-229.757	218.139	0.177	-0.282
-228.742	-126.149	-0.282	-0.042
-227.727	-5.507	0.365	-0.250
-226.713	-92.299	-0.609	0.172
-225.698	144.530	-0.091	0.122
-224.684	293.924	0.025	0.045
-223.669	-17.889	-0.207	0.130
-222.655	-117.147	0.206	-0.038
-221.640	-120.051	0.250	0.043
-220.625	-200.000	0.009	-0.126
-219.611	-200.000	0.001	0.307
-218.596	309.956	0.021	-0.039
-217.582	-200.000	0.032	0.295
-216.567	199.836	-0.063	0.097
-215.552	-76.501	0.251	0.088
-214.538	-27.712	0.160	-0.093
-213.523	-118.657	-0.237	-0.042
-212.509	158.033	-0.118	0.163
-211.494	800.000	-0.097	0.308
-210.479	-200.000	-0.014	-0.167
-209.465	46.590	-0.179	-0.166
-208.450	-136.066	0.120	-0.014
-207.436	-7.410	-0.230	-0.156
-206.421	-200.000	-0.032	-0.283
-205.406	-200.000	-0.019	-0.273
-204.392	-200.000	0.001	0.108
-203.377	-83.829	0.116	-0.037
-202.363	282.720	-0.114	-0.204
-201.348	-148.154	-0.251	0.021
-200.333	556.396	-0.078	-0.188
-199.319	187.404	-0.106	-0.159
-198.304	75.920	0.082	0.087
-197.290	-200.000	0.009	-0.150
-196.275	276.734	-0.010	-0.018
-195.260	-115.308	-0.198	-0.037
-194.246	215.246	-0.088	0.140
-193.231	48.610	0.225	0.211
-192.217	286.104	0.121	-0.218
-191.202	-127.742	0.246	0.035
-190.187	-200.000	0.026	-0.223
-189.173	-72.924	-0.305	0.112
-188.158	-200.000	0.053	0.576
-187.144	-200.000	0.009	0.097
-186.129	-87.582	-0.165	0.050
-185.114	35.409	0.237	0.208
-184.100	-200.000	0.036	-0.181
-183.085	-31.391	-0.158	0.089
-182.071	156.177	-0.100	-0.138
-181.056	-20.755	-0.284	-0.174
-180.042	78.739	0.249	-0.266
-179.027	-200.000	-0.001	-0.089
-178.012	275.773	0.171	-0.303
-176.998	86.555	0.151	0.166
-175.983	88.796	-0.172	0.191
-174.969	289.059	0.162	-0.294
-173.954	129.368	-0.227	-0.289
-172.939	45.823	0.120	0.111
-171.925	82.461	-0.229	0.249
-170.910	-89.992	-0.127	0.037
-169.896	-164.893	-0.040	-0.002
-168.881	110.293	0.116	-0.139
-167.866	-67.751	0.296	-0.116
-166.852	-200.000	-0.019	0.333
-165.837	-101.202	-0.295	0.072
-164.823	750.493	-0.137	-0.370
-163.808	-151.274	0.112	-0.008
-162.793	232.062	0.058	0.095
-161.779	-39.272	0.230	-0.121
-160.764	-81.819	-0.104	-0.034
-159.750	64.142	-0.203	-0.204
-158.735	-33.300	-0.150	0.083
-157.720	800.000	0.036	0.099
-156.706	-87.140	0.064	-0.019
-155.691	110.931	0.089	-0.107
-154.677	16.682	0.162	-0.128
-153.662	-149.261	0.272	0.022
-152.647	800.000	0.062	0.245
-151.633	-200.000	0.013	0.143
-150.618	-30.434	0.208	0.118
-149.604	10.435	-0.137	-0.104
-148.589	-61.902	-0.142	-0.059
-147.574	533.627	0.159	0.377
-146.560	-62.267	0.072	-0.030
-145.545	-200.000	0.064	-0.362
-144.531	76.255	0.269	-0.284
-143.516	224.293	-0.121	-0.196
-142.502	-200.000	0.014	-0.124
-141.487	140.958	-0.040	0.053
-140.472	-46.182	0.270	0.132
-139.458	-50.459	0.169	0.079
-138.443	-163.407	-0.175	-0.008
-137.429	-128.138	0.049	-0.007
-136.414	181.404	0.069	-0.101
-135.399	41.394	-0.200	0.181
-134.385	-200.000	-0.002	0.317
-133.370	-11.904	0.183	-0.119
-132.356	-200.000	0.011	0.115
-131.341	-126.499	-0.266	0.039
-130.326	14.547	-0.173	0.135
-129.312	-93.334	-0.161	-0.045
-128.297	-169.088	0.108	-0.004
-127.283	202.841	0.266	0.409
-126.268	800.000	0.051	0.150
-125.253	-109.196	0.351	-0.074
-124.239	-143.765	0.263	-0.025
-123.224	79.819	-0.044	0.047
-122.210	-81.241	0.262	-0.086
-121.195	40.579	-0.147	-0.132
-120.180	97.992	-0.087	-0.100
-119.166	23.270	-0.200	-0.164
-118.151	32.531	0.365	0.314
-117.137	271.982	-0.134	0.236
-116.122	-63.822	-0.345	0.141
-115.107	1.808	0.093	-0.067
-114.093	111.745	-0.185	-0.222
-113.078	-5.115	-0.229	0.157
-112.064	-55.675	-0.484	0.216
-111.049	-200.000	0.005	-0.051
-110.034	64.308	0.059	0.060
-109.020	800.000	-0.076	0.275
-108.005	800.000	-0.035	0.129
-106.991	-170.996	0.175	0.006
-105.976	800.000	0.017	0.047
-104.962	378.447	-0.107	-0.217
-103.947	-81.760	0.261	0.085
-102.932	-200.000	0.012	-0.369
-101.918	16.054	-0.180	-0.141
-100.903	64.707	0.243	0.245
-99.889	800.000	0.019	-0.073
-98.874	-87.997	-0.176	0.053
-97.859	167.760	-0.198	0.281
-96.845	-102.955	-0.301	-0.071
-95.830	800.000	0.034	0.100
-94.816	-108.021	0.453	-0.098
-93.801	-160.506	0.251	-0.013
-92.786	800.000	-0.076	0.332
-91.772	-31.334	0.289	-0.162
-90.757	800.000	0.059	-0.167
-89.743	-31.322	-0.179	-0.100
-88.728	-130.273	-0.421	0.057
-87.713	-200.000	-0.019	-0.208
-86.699	-140.731	0.134	0.014
-85.684	-200.000	0.084	0.524
-84.670	632.049	-0.099	-0.250
-83.655	-129.809	-0.141	-0.019
-82.640	-200.000	0.031	0.298
-81.626	3.830	-0.074	-0.054
-80.611	800.000	0.013	-0.046
-79.597	-40.510	0.255	0.132
-78.582	165.955	0.254	0.358
-77.567	-65.251	-0.077	0.031
-76.553	439.038	0.089	-0.192
-75.538	58.653	0.283	-0.277
-74.524	-4.938	0.274	-0.188
-73.509	-138.060	0.338	-0.037
-72.494	172.213	-0.200	0.286
-71.480	651.665	0.104	-0.266
-70.465	800.000	0.023	0.077
-69.451	800.000	0.059	-0.218
-68.436	-70.079	0.301	0.114
-67.422	-84.861	0.371	0.116
-66.407	-45.349	-0.207	0.102
-65.392	8.054	0.041	0.030
-64.378	-200.000	0.016	-0.086
-63.363	800.000	-0.123	0.357
-62.349	-51.424	-0.105	-0.049
-61.334	8.702	-0.943	-0.706
-60.319	270.125	-0.247	0.432
-59.305	800.000	-0.269	-0.781
-58.290	-200.000	0.153	1.006
-57.276	670.852	0.595	1.531
-56.261	-200.000	86.447	495.146
-55.246	449.064	1395.756	3058.748
-54.232	144.898	2609.254	3468.369
-53.217	109.612	2226.264	2652.439
-52.203	47.787	1670.424	1550.303
-51.188	40.358	1400.941	1253.372
-50.173	37.307	1356.360	1194.715
-49.159	56.169	1399.763	1351.090
-48.144	60.666	1418.749	1397.440
-47.130	41.026	1376.358	1235.336
-46.115	37.283	1358.784	1196.511
-45.100	37.111	1353.665	1190.899
-44.086	37.063	1351.272	1188.455
-43.071	36.893	1349.364	1185.685
-42.057	37.076	1346.445	1184.195
-41.042	36.919	1345.463	1182.325
-40.027	37.072	1343.607	1181.576
-39.013	37.064	1341.610	1179.725
-37.998	37.038	1340.032	1178.133
-36.984	37.159	1337.996	1177.030
-35.969	37.128	1336.132	1175.157
-34.954	37.188	1334.157	1173.738
-33.940	37.262	1332.251	1172.462
-32.925	37.223	1331.486	1171.504
-31.911	37.178	1330.453	1170.276
-30.896	37.222	1328.518	1168.794
-29.881	37.140	1327.734	1167.562
-28.867	37.276	1325.641	1166.496
-27.852	37.312	1324.282	1165.471
-26.838	37.226	1323.282	1164.026
-25.823	37.201	1321.830	1162.554
-24.809	37.336	1320.309	1161.976
-23.794	37.198	1318.704	1159.693
-22.779	37.217	1317.268	1158.496
-21.765	37.258	1315.657	1157.277
-20.750	37.186	1314.748	1156.003
-19.736	37.159	1313.175	1154.420
-18.721	37.123	1311.886	1153.022
-17.706	37.049	1311.067	1151.821
-16.692	37.040	1309.819	1150.623
-15.677	37.173	1308.579	1150.278
-14.663	37.183	1307.535	1149.369
-13.648	37.125	1306.126	1147.745
-12.633	37.121	1305.019	1146.700
-11.619	37.092	1304.125	1145.701
-10.604	36.976	1303.949	1144.816
-9.590	37.018	1302.319	1143.586
-8.575	37.011	1301.607	1142.876
-7.560	37.071	1300.670	1142.361
-6.546	37.002	1300.141	1141.444
-5.531	37.069	1299.016	1140.806
-4.517	36.991	1297.657	1139.108
-3.502	37.094	1296.999	1139.092
-2.487	37.022	1295.822	1137.591
-1.473	37.152	1292.347	1135.256
-0.458	36.211	1277.792	1116.979
0.556	33.105	1258.786	1079.413
1.571	29.541	1262.396	1061.959
2.586	28.484	1276.769	1067.804
3.600	26.998	1264.988	1049.277
4.615	18.875	1186.564	939.902
5.629	7.143	1103.859	814.289
6.644	2.281	1080.889	772.744
7.659	1.900	1077.835	768.571
8.673	1.638	1076.913	766.527
9.688	1.614	1075.250	765.153
10.702	1.918	1073.876	765.638
11.717	8.530	1083.876	806.119
12.731	19.502	1099.810	873.742
13.746	24.503	1105.844	903.844
14.761	25.044	1106.642	907.157
15.775	25.118	1105.862	906.811
16.790	24.904	1105.126	905.044
17.804	24.810	1104.460	903.946
18.819	24.890	1104.103	903.976
19.834	25.026	1103.600	904.172
20.848	25.063	1103.347	904.072
21.863	25.075	1102.792	903.595
22.877	25.016	1101.900	902.486
23.892	24.988	1101.134	901.642
24.907	24.980	1100.970	901.387
25.921	24.983	1099.552	900.159
26.936	24.973	1098.045	898.796
27.950	24.879	1096.245	896.776
28.965	24.709	1095.079	894.887
29.980	24.858	1093.105	893.941
30.994	25.075	1092.266	894.259
32.009	25.063	1091.377	893.389
33.023	24.818	1090.082	891.031
34.038	25.074	1088.982	891.328
35.053	25.187	1088.379	891.316
36.067	25.058	1088.020	890.304
37.082	25.056	1087.434	889.735
38.096	25.222	1086.309	889.559
39.111	25.355	1085.503	889.480
40.126	25.036	1084.432	886.947
41.140	24.785	1082.431	883.988
42.155	24.577	1081.246	881.918
43.169	24.601	1080.350	881.225
44.184	24.651	1079.386	880.606
45.199	24.551	1078.410	879.242
46.213	24.593	1077.613	878.722
47.228	24.832	1076.715	879.084
48.242	24.937	1075.744	878.728
49.257	24.897	1075.140	877.962
50.271	24.908	1074.563	877.468
51.286	25.106	1073.076	877.144
52.301	25.146	1072.040	876.416
53.315	25.131	1071.210	875.585
54.330	25.029	1070.472	874.409
55.344	25.055	1069.651	873.785
56.359	24.851	1069.156	872.308
57.374	24.760	1068.446	871.213
58.388	24.776	1067.485	870.429
59.403	24.703	1066.405	869.115
60.417	24.540	1065.617	867.604
61.432	24.585	1065.417	867.581
62.447	24.778	1064.323	867.551
63.461	24.809	1063.294	866.786
64.476	24.688	1062.399	865.393
65.490	24.658	1061.124	864.134
66.505	24.726	1060.818	864.137
67.520	24.786	1060.254	863.894
68.534	24.610	1058.998	861.942
69.549	24.253	1057.828	859.196
70.563	24.267	1057.087	858.585
71.578	24.269	1056.080	857.699
72.593	24.188	1055.117	856.455
73.607	24.178	1055.281	856.461
74.622	24.513	1054.343	857.231
75.636	24.533	1053.773	856.791
76.651	24.391	1053.057	855.450
77.666	24.379	1052.163	854.591
78.680	24.507	1051.401	854.508
79.695	24.561	1050.871	854.262
80.709	24.598	1050.301	853.900
81.724	24.528	1049.507	852.844
82.739	24.709	1048.591	852.890
83.753	25.058	1048.357	854.284
84.768	25.290	1047.706	854.787
85.782	25.384	1046.452	854.131
86.797	25.357	1044.963	852.713
87.812	25.216	1043.927	851.123
88.826	25.215	1043.356	850.577
89.841	25.285	1042.398	850.054
90.855	25.265	1041.585	849.221
91.870	25.271	1040.408	848.215
92.884	25.047	1039.893	846.661
93.899	25.052	1038.913	845.811
94.914	25.241	1037.975	845.865
95.928	25.079	1036.831	844.095
96.943	24.871	1035.521	841.977
97.957	24.524	1034.596	839.517
98.972	24.434	1033.692	838.287
99.987	24.858	1032.687	839.385
101.001	25.018	1031.778	839.325
102.016	25.008	1031.117	838.666
103.030	25.000	1030.069	837.703
104.045	24.885	1028.805	836.061
105.060	24.570	1028.333	834.132
106.074	24.612	1027.782	833.810
107.089	25.010	1026.968	834.931
108.103	24.948	1025.827	833.640
109.118	24.788	1024.311	831.592
110.133	24.791	1023.283	830.697
111.147	24.535	1021.957	828.361
112.162	24.442	1021.106	827.164
113.176	24.683	1020.939	828.071
114.191	24.504	1020.024	826.429
115.206	24.207	1018.657	823.877
116.220	24.195	1018.085	823.284
117.235	24.331	1016.917	822.897
118.249	24.457	1016.096	822.740
119.264	24.195	1015.630	821.082
120.279	24.564	1014.554	821.838
121.293	24.438	1014.172	820.876
122.308	24.294	1013.300	819.437
123.322	24.361	1011.801	818.459
124.337	24.275	1010.480	816.922
125.352	23.695	1008.837	812.869
126.366	23.662	1008.189	812.124
127.381	24.474	1008.209	815.779
128.395	24.740	1007.911	816.683
129.410	25.019	1006.617	816.836
130.424	24.978	1005.998	816.074
131.439	24.891	1005.213	814.969
132.454	24.967	1004.255	814.462
133.468	24.989	1003.002	813.474
134.483	24.986	1002.973	813.367
135.497	25.051	1002.355	813.090
136.512	25.158	1001.502	812.810
137.527	25.321	999.812	812.103
138.541	25.238	999.539	811.433
139.556	25.208	998.771	810.602
140.570	25.335	997.966	810.451
141.585	25.446	996.862	809.986
142.600	25.484	995.486	808.966
143.614	25.471	995.057	808.488
144.629	25.532	994.318	808.090
145.643	25.264	992.925	805.681
146.658	25.162	991.682	804.145
147.673	25.176	990.697	803.339
148.687	25.035	989.734	801.856
149.702	24.953	989.027	800.843
150.716	24.992	987.740	799.904
151.731	24.967	987.584	799.597
152.746	25.231	986.707	799.993
153.760	25.373	986.269	800.198
154.775	25.334	985.540	799.364
155.789	25.346	984.646	798.620
156.804	25.318	983.360	797.383
157.819	25.377	982.811	797.130
158.833	25.457	982.365	797.051
159.848	25.396	981.668	796.147
160.862	25.315	979.846	794.239
161.877	25.326	978.731	793.315
162.892	25.379	978.057	792.934
163.906	25.295	976.743	791.425
164.921	25.192	976.527	790.727
165.935	25.288	975.471	790.224
166.950	25.301	974.534	789.455
167.964	25.316	973.522	788.631
168.979	25.104	972.761	787.013
169.994	25.250	971.280	786.385
171.008	25.389	970.896	786.613
172.023	25.370	970.066	785.790
173.037	25.311	968.678	784.336
174.052	25.028	967.921	782.420
175.067	25.058	967.304	781.982
176.081	25.125	966.754	781.758
177.096	25.243	966.106	781.681
178.110	24.763	965.382	778.937
179.125	24.711	964.348	777.805
180.140	24.707	964.119	777.537
181.154	24.858	964.308	778.275
182.169	25.094	963.958	778.949
183.183	25.255	963.487	779.198
184.198	25.272	962.224	778.183
185.213	25.361	961.234	777.698
186.227	25.365	960.922	777.396
187.242	25.449	960.006	776.950
188.256	25.588	959.178	776.808
189.271	25.520	958.775	776.122
190.286	25.240	957.287	773.640
191.300	24.669	955.641	769.784
192.315	23.513	954.648	763.940
193.329	23.529	953.908	763.350
194.344	24.593	954.622	768.430
195.359	25.131	954.515	770.591
196.373	25.211	954.101	770.530
197.388	25.128	953.419	769.556
198.402	25.173	952.839	769.214
199.417	25.317	951.925	769.023
200.432	24.905	951.003	766.448
201.446	24.928	950.372	765.968
202.461	24.860	949.705	765.074
203.475	24.037	947.786	759.947
204.490	23.331	945.929	755.382
205.504	24.290	946.477	759.844
206.519	24.806	946.722	762.169
207.534	24.871	946.586	762.270
208.548	25.196	946.650	763.638
209.563	25.126	944.943	761.899
210.577	24.982	944.358	760.747
211.592	25.535	943.834	762.604
212.607	25.441	942.954	761.428
213.621	25.481	942.556	761.209
214.636	25.358	942.239	760.362
215.650	25.430	941.179	759.743
216.665	25.638	940.462	759.977
217.680	25.364	940.055	758.424
218.694	24.934	938.645	755.407
219.709	24.765	938.042	754.141
220.723	25.191	937.875	755.736
221.738	25.259	937.234	755.440
222.753	25.177	936.363	754.325
223.767	25.164	936.460	754.283
224.782	25.379	936.021	754.766
225.796	25.460	935.241	754.408
226.811	24.904	933.801	750.849
227.826	24.123	932.616	746.559
228.840	24.240	931.799	746.328
229.855	24.497	931.201	746.857
230.869	24.117	929.856	744.128
231.884	24.450	929.884	745.473
232.899	25.242	930.135	748.916
233.913	25.100	929.653	747.870
234.928	25.145	928.969	747.441
235.942	24.998	928.119	746.077
236.957	24.639	927.485	744.008
237.972	24.874	926.352	744.011
238.986	24.921	926.348	744.137
240.001	24.919	925.525	743.404
241.015	25.004	925.342	743.542
242.030	25.137	924.327	743.213
243.045	25.262	924.103	743.485
244.059	25.299	923.783	743.316
245.074	25.143	922.556	741.617
246.088	24.991	921.501	740.076
247.103	25.045	921.562	740.281
248.117	25.591	921.903	742.743
249.132	25.820	921.363	743.189
250.147	26.049	920.729	743.556
251.161	26.184	919.977	743.438
252.176	26.127	919.244	742.546
253.190	26.160	918.903	742.340
254.205	26.258	918.438	742.301
255.220	26.346	917.694	741.995
256.234	26.115	917.010	740.430
257.249	26.041	916.013	739.255
258.263	26.085	915.616	739.049
259.278	26.205	914.753	738.780
260.293	26.205	914.351	738.387
261.307	26.095	913.318	737.038
262.322	25.924	912.536	735.646
263.336	25.247	910.572	731.239
264.351	24.177	908.509	725.167
265.366	24.258	908.285	725.251
266.380	25.375	909.251	730.508
267.395	25.635	909.231	731.482
268.409	25.675	908.783	731.220
269.424	25.974	907.778	731.559
270.439	25.900	907.293	730.804
271.453	25.885	907.046	730.479
272.468	26.048	906.397	730.553
273.482	26.217	906.070	730.909
274.497	25.757	904.678	727.863
275.512	25.414	903.589	725.535
276.526	25.861	903.773	727.424
277.541	25.927	903.517	727.421
278.555	25.794	902.636	726.111
279.570	25.688	901.619	724.802
280.585	25.804	901.219	724.883
281.599	25.796	900.330	724.073
282.614	25.159	899.131	720.484
283.628	25.039	898.694	719.590
284.643	25.532	898.397	721.266
285.657	25.100	897.347	718.628
286.672	24.792	896.563	716.702
287.687	25.474	896.332	719.184
288.701	25.578	895.648	718.987
289.716	25.055	894.857	716.201
290.730	25.264	894.167	716.418
291.745	24.801	893.334	713.841
292.760	25.294	892.694	715.230
293.774	26.126	893.443	719.085
294.789	26.483	893.298	720.327
295.803	26.442	892.685	719.604
296.818	26.489	892.023	719.196
297.833	26.133	890.614	716.583
298.847	25.859	890.147	715.056
299.862	26.287	890.241	716.767
300.876	26.504	889.224	716.741
301.891	26.374	888.622	715.681
302.906	25.941	888.079	713.466
303.920	25.993	887.785	713.373
304.935	26.451	887.318	714.744
305.949	26.548	886.090	714.073
306.964	26.205	885.735	712.371
307.979	26.288	885.529	712.470
308.993	26.674	885.109	713.592
310.008	26.561	884.699	712.751
311.022	26.247	883.703	710.652
312.037	26.216	883.059	709.950
313.052	25.948	882.111	708.071
314.066	25.049	880.602	703.271
315.081	24.661	879.741	701.002
316.095	25.646	880.082	705.070
317.110	26.001	879.979	706.319
318.125	25.244	878.238	701.900
319.139	24.205	876.353	696.273
320.154	24.052	876.317	695.583
321.168	25.045	876.946	699.903
322.183	25.928	876.746	703.125
323.197	26.021	876.706	703.395
324.212	26.306	876.533	704.303
325.227	26.210	875.474	703.017
326.241	26.121	874.950	702.189
327.256	25.902	874.371	700.810
328.270	25.884	873.571	700.039
329.285	25.724	872.748	698.693
330.300	25.501	871.837	697.037
331.314	25.769	871.645	697.861
332.329	26.101	871.838	699.242
333.343	26.419	871.427	700.082
334.358	26.380	870.593	699.199
335.373	26.412	870.316	699.040
336.387	26.644	870.563	700.070
337.402	26.775	870.236	700.253
338.416	26.705	869.930	699.673
339.431	26.758	869.693	699.627
340.446	26.978	869.144	699.971
341.460	26.801	868.571	698.764
342.475	26.678	867.966	697.742
343.489	26.842	867.344	697.814
344.504	26.893	867.607	698.160
345.519	27.078	867.251	698.524
346.533	27.141	866.663	698.228
347.548	27.142	865.888	697.547
348.562	27.184	865.281	697.156
349.577	27.057	864.757	696.186
350.592	27.090	863.863	695.530
351.606	26.899	863.335	694.315
352.621	26.956	862.548	693.838
353.635	26.915	861.654	692.900
354.650	26.152	859.909	688.529
355.665	25.284	858.684	684.177
356.679	25.657	858.719	685.567
357.694	25.991	858.233	686.390
358.708	25.950	857.763	685.797
359.723	26.443	857.266	687.213
360.738	26.760	856.976	688.125
361.752	26.828	856.492	687.930
362.767	27.132	856.485	689.017
363.781	27.373	856.334	689.749
364.796	27.467	855.520	689.387
365.810	27.588	854.963	689.337
366.825	27.473	854.517	688.480
367.840	27.215	853.880	686.934
368.854	26.664	852.832	683.949
369.869	26.759	852.709	684.149
370.883	26.739	852.296	683.680
371.898	26.778	851.722	683.307
372.913	26.879	851.240	683.239
373.927	26.927	850.720	682.941
374.942	27.056	850.243	682.985
375.956	27.228	849.833	683.240
376.971	27.378	849.261	683.282
377.986	27.390	849.440	683.414
379.000	27.401	848.806	682.885
380.015	27.162	848.273	681.499
381.029	27.300	847.332	681.199
382.044	27.448	846.685	681.172
383.059	27.433	846.301	680.745
384.073	27.476	845.618	680.297
385.088	27.463	844.846	679.568
386.102	27.197	844.262	678.047
387.117	27.169	843.515	677.283
388.132	26.768	842.420	674.851
389.146	26.320	841.545	672.423
390.161	26.748	841.472	673.897
391.175	27.095	841.390	675.060
392.190	26.887	840.295	673.351
393.205	25.549	837.976	666.477
394.219	23.926	836.241	659.031
395.234	23.852	836.598	658.980
396.248	25.351	837.925	665.527
397.263	27.025	838.343	672.002
398.278	26.805	838.192	671.006
399.292	26.703	837.065	669.668
400.307	26.654	836.506	668.981
401.321	26.833	836.375	669.478
402.336	27.119	836.439	670.522
403.350	27.620	836.402	672.283
404.365	27.823	836.410	672.977
405.380	28.016	835.812	673.150
406.394	28.193	835.093	673.161
407.409	28.073	834.697	672.339
408.423	28.141	834.135	672.079
409.438	28.055	834.417	671.931
410.453	28.212	833.589	671.781
411.467	28.087	832.714	670.559
412.482	28.122	832.384	670.362
413.496	28.288	832.246	670.798
414.511	28.150	831.685	669.782
415.526	28.146	831.184	669.304
416.540	28.040	830.603	668.390
417.555	27.852	829.707	666.924
418.569	27.817	829.676	666.713
419.584	27.855	828.806	666.093
420.599	27.664	828.349	664.971
421.613	101.555	1278.150	1420.383
422.628	87.971	1343.675	1420.510
