DTS Sentinel unit serial number:	SN413079Multiplexer serial number:	ORYXHardware model number:	OX4-SRSoftware version number:	ORYX F/W v4.00 Oryx Data Collector v3.7.2.0data status	okinstallation	princeton_trtdifferential loss correction	single-endedforward channel	channel 1reverse channel	N/Adate	2019/09/12time	12:04:11forward acquisition time	60.00reverse acquisition time	0.00gamma	496.2192k internal	0.2292k external	0.2292temperature offset calibration	1.0040default loss term (dB/km)	0.3790temperature slope calibration	1.0000multiplexer offset coefficient	1.0000multiplexer slope coefficient	1.0000fibre end	0.00T internal ref (°C)	40.45T ext. ref 1 (°C)	2.02T ext. ref 2 (°C)	37.76length (m)	temperature (°C)	Stokes	anti-Stokes-747.200	-52.061	-0.131	-0.062
-746.185	800.000	0.072	0.296
-745.171	28.229	0.113	0.097
-744.156	-104.567	0.204	0.048
-743.142	-144.169	-0.246	0.024
-742.127	-200.000	-0.006	0.339
-741.112	-157.546	0.212	0.013
-740.098	-200.000	0.059	0.288
-739.083	14.130	-0.203	0.161
-738.069	-93.185	-0.214	0.061
-737.054	-21.761	-0.343	-0.214
-736.039	-91.367	-0.349	-0.102
-735.025	5.478	0.082	0.062
-734.010	403.084	-0.148	-0.319
-732.996	-5.339	0.165	-0.116
-731.981	-46.873	-0.275	0.138
-730.966	-172.246	-0.215	-0.007
-729.952	195.507	-0.242	0.376
-728.937	-158.784	0.311	0.018
-727.923	-116.283	-0.113	-0.021
-726.908	464.579	0.112	-0.256
-725.894	-6.285	-0.103	0.072
-724.879	-111.151	-0.481	0.101
-723.864	-131.966	0.144	-0.019
-722.850	-24.390	-0.242	0.148
-721.835	-111.115	-0.098	0.020
-720.821	-14.760	-0.301	0.198
-719.806	72.213	0.159	0.169
-718.791	6.502	-0.208	-0.158
-717.777	29.942	0.029	-0.025
-716.762	191.922	0.286	-0.441
-715.748	70.424	-0.250	-0.264
-714.733	69.928	0.082	0.086
-713.718	169.310	-0.062	0.091
-712.704	174.027	0.096	-0.142
-711.689	12.472	0.150	0.118
-710.675	-52.978	-0.510	0.240
-709.660	-149.703	-0.162	0.013
-708.645	189.942	-0.202	0.309
-707.631	-147.252	-0.399	0.035
-706.616	109.464	0.155	-0.190
-705.602	72.379	0.238	-0.254
-704.587	-55.943	0.093	0.043
-703.572	295.018	0.185	0.346
-702.558	-63.038	0.180	0.076
-701.543	-75.531	0.443	-0.161
-700.529	26.669	-0.045	-0.039
-699.514	505.232	0.157	0.371
-698.499	130.399	-0.163	0.213
-697.485	-200.000	0.011	0.247
-696.470	167.771	0.085	0.123
-695.456	-124.767	0.253	0.040
-694.441	364.626	0.103	-0.212
-693.426	-94.136	-0.488	0.137
-692.412	532.269	0.049	-0.119
-691.397	-200.000	0.009	0.232
-690.383	-61.527	0.166	0.071
-689.368	101.357	0.049	-0.058
-688.354	-17.258	-0.333	-0.214
-687.339	9.372	0.225	-0.174
-686.324	603.879	0.105	-0.266
-685.310	752.926	-0.109	-0.300
-684.295	-113.625	0.149	0.030
-683.281	200.224	-0.067	0.106
-682.266	103.262	0.103	0.124
-681.251	652.789	0.104	-0.273
-680.237	150.998	-0.108	-0.150
-679.222	384.137	-0.141	0.296
-678.208	10.747	-0.295	-0.230
-677.193	247.620	0.053	0.091
-676.178	-75.379	0.057	0.021
-675.164	-97.365	0.188	-0.050
-674.149	-56.595	-0.221	-0.100
-673.135	-200.000	0.068	-0.382
-672.120	-200.000	-0.002	-0.046
-671.105	-200.000	0.008	0.098
-670.091	105.226	-0.110	0.132
-669.076	544.650	-0.059	0.143
-668.062	-97.048	-0.103	-0.028
-667.047	43.908	-0.112	0.104
-666.032	189.710	0.004	-0.006
-665.018	-200.000	-0.009	-0.196
-664.003	-27.076	-0.271	-0.161
-662.989	-200.000	-0.008	-0.085
-661.974	-5.590	-0.283	-0.198
-660.959	252.159	-0.083	-0.145
-659.945	-23.789	0.260	-0.159
-658.930	-20.455	-0.184	-0.115
-657.916	-200.000	-0.019	-0.162
-656.901	800.000	0.104	0.397
-655.886	254.931	-0.115	0.201
-654.872	153.369	0.088	-0.123
-653.857	130.217	0.181	-0.236
-652.843	-123.423	-0.260	0.042
-651.828	-180.685	0.032	-0.001
-650.814	712.782	0.029	0.079
-649.799	418.602	0.116	-0.254
-648.784	647.145	-0.067	-0.174
-647.770	-159.994	0.204	0.011
-646.755	800.000	-0.040	0.153
-645.741	-200.000	0.039	0.376
-644.726	-37.884	-0.101	-0.055
-643.711	800.000	-0.058	0.255
-642.697	-156.108	-0.354	0.023
-641.682	-119.536	-0.106	-0.019
-640.668	663.391	0.047	-0.123
-639.653	-200.000	-0.001	-0.120
-638.638	-77.020	0.194	0.069
-637.624	36.660	-0.031	-0.028
-636.609	-101.291	0.178	0.044
-635.595	-200.000	0.024	-0.355
-634.580	800.000	-0.040	0.140
-633.565	288.898	-0.136	0.251
-632.551	-200.000	-0.028	-0.331
-631.536	-200.000	-0.042	-0.334
-630.522	-61.459	-0.218	0.093
-629.507	122.592	-0.031	0.040
-628.492	-200.000	0.014	0.350
-627.478	-3.341	-0.201	0.143
-626.463	-200.000	0.032	-0.228
-625.449	-200.000	0.011	-0.438
-624.434	-123.084	-0.307	0.050
-623.419	21.778	0.173	-0.144
-622.405	36.839	-0.134	0.121
-621.390	-65.153	-0.196	-0.080
-620.376	188.346	0.102	-0.155
-619.361	-87.812	-0.313	0.096
-618.346	7.763	-0.096	0.074
-617.332	-187.387	-0.374	0.005
-616.317	-36.378	-0.192	-0.105
-615.303	291.051	0.066	-0.123
-614.288	412.807	0.119	-0.258
-613.273	-38.234	-0.321	-0.173
-612.259	313.619	0.145	-0.278
-611.244	-148.391	0.129	-0.011
-610.230	-200.000	-0.039	0.195
-609.215	-162.311	0.455	-0.023
-608.201	-120.467	-0.244	0.042
-607.186	86.782	-0.119	0.134
-606.171	61.921	-0.244	-0.248
-605.157	183.460	0.146	-0.219
-604.142	-200.000	-0.036	0.370
-603.128	-20.000	-0.124	0.078
-602.113	70.773	0.072	-0.076
-601.098	-200.000	-0.002	0.143
-600.084	-200.000	-0.018	-0.306
-599.069	-200.000	0.051	-0.227
-598.055	-62.130	0.313	-0.133
-597.040	-109.486	-0.111	0.024
-596.025	45.503	0.233	-0.218
-595.011	-200.000	-0.021	-0.281
-593.996	53.438	-0.092	0.090
-592.982	140.811	-0.225	0.303
-591.967	91.133	0.053	0.060
-590.952	326.007	-0.167	0.326
-589.938	356.611	-0.154	0.312
-588.923	467.955	0.074	0.168
-587.909	-99.967	-0.236	0.060
-586.894	-200.000	-0.024	0.450
-585.879	20.818	-0.261	-0.215
-584.865	234.397	0.036	-0.061
-583.850	-59.181	0.078	0.034
-582.836	800.000	0.039	-0.116
-581.821	23.422	-0.282	0.236
-580.806	329.094	0.060	0.118
-579.792	-36.656	0.180	0.099
-578.777	-200.000	0.019	-0.155
-577.763	-41.199	-0.057	-0.030
-576.748	-140.879	0.411	0.043
-575.733	61.853	0.118	-0.119
-574.719	-48.113	-0.104	0.051
-573.704	88.317	-0.149	0.168
-572.690	295.935	-0.190	-0.353
-571.675	-114.669	0.094	-0.018
-570.661	31.485	-0.143	0.125
-569.646	353.488	0.121	0.244
-568.631	800.000	-0.044	-0.157
-567.617	-200.000	0.042	0.413
-566.602	51.045	-0.127	-0.122
-565.588	-200.000	0.296	0.000
-564.573	73.471	0.086	-0.092
-563.558	800.000	-0.063	-0.194
-562.544	-59.081	-0.213	-0.093
-561.529	-200.000	-0.035	-0.163
-560.515	800.000	0.084	-0.251
-559.500	-170.793	0.156	0.005
-558.485	800.000	-0.135	0.379
-557.471	-4.159	0.139	0.098
-556.456	-200.000	0.077	-0.342
-555.442	-128.616	0.159	0.023
-554.427	-200.000	-0.027	0.157
-553.412	111.612	-0.183	-0.225
-552.398	-200.000	0.056	0.267
-551.383	-200.000	-0.004	0.102
-550.369	-66.673	-0.264	-0.106
-549.354	-122.295	-0.285	0.047
-548.339	190.148	0.188	-0.286
-547.325	-112.920	0.071	-0.014
-546.310	-134.563	-0.154	-0.019
-545.296	-200.000	0.029	-0.248
-544.281	-110.151	-0.097	-0.021
-543.266	-200.000	0.035	0.341
-542.252	127.046	-0.160	-0.205
-541.237	-60.119	-0.066	-0.028
-540.223	11.298	0.167	0.130
-539.208	544.575	-0.088	0.215
-538.193	107.932	-0.227	-0.275
-537.179	474.261	-0.053	0.122
-536.164	-88.578	-0.139	-0.042
-535.150	800.000	-0.042	-0.141
-534.135	-60.660	0.204	0.088
-533.121	101.053	-0.174	-0.205
-532.106	-200.000	-0.001	0.142
-531.091	71.504	-0.170	-0.179
-530.077	187.843	-0.212	-0.321
-529.062	800.000	0.070	-0.269
-528.048	-33.877	0.109	0.061
-527.033	-173.985	-0.560	0.017
-526.018	-38.895	0.250	-0.134
-525.004	-182.384	0.132	0.002
-523.989	-22.508	-0.078	-0.048
-522.975	587.905	0.121	0.302
-521.960	-68.993	-0.277	0.108
-520.945	229.883	-0.066	0.109
-519.931	463.253	0.135	0.307
-518.916	-139.998	-0.123	-0.013
-517.902	-112.462	-0.316	0.064
-516.887	-64.970	0.236	-0.097
-515.872	44.646	-0.053	-0.049
-514.858	83.376	0.070	0.077
-513.843	189.911	0.202	0.308
-512.829	-20.865	0.198	0.123
-511.814	-129.452	-0.360	0.051
-510.799	34.003	-0.039	-0.034
-509.785	-29.393	-0.283	0.164
-508.770	23.389	-0.113	-0.094
-507.756	800.000	0.081	0.233
-506.741	-12.358	0.130	0.086
-505.726	-135.572	0.182	0.022
-504.712	-200.000	-0.005	0.258
-503.697	-85.947	-0.266	0.084
-502.683	-9.991	-0.354	-0.238
-501.668	-200.000	-0.025	0.156
-500.653	-136.616	0.146	0.017
-499.639	42.798	0.103	-0.095
-498.624	232.082	-0.191	0.318
-497.610	-24.263	0.100	0.060
-496.595	530.737	0.144	-0.344
-495.581	46.029	-0.099	0.092
-494.566	800.000	0.050	-0.189
-493.551	123.056	-0.202	0.257
-492.537	-33.316	0.119	-0.067
-491.522	719.515	-0.073	0.196
-490.508	12.439	-0.077	0.061
-489.493	800.000	-0.044	-0.144
-488.478	-200.000	0.043	0.192
-487.464	-200.000	-0.017	0.258
-486.449	800.000	-0.060	0.215
-485.435	234.282	0.124	-0.207
-484.420	-4.194	0.052	-0.037
-483.405	-94.003	-0.136	0.038
-482.391	-33.507	0.120	-0.067
-481.376	800.000	0.038	-0.112
-480.362	-49.880	-0.083	0.040
-479.347	211.799	-0.066	0.105
-478.332	49.136	-0.106	-0.101
-477.318	223.995	0.183	-0.299
-476.303	-65.208	-0.156	0.064
-475.289	-200.000	-0.014	-0.175
-474.274	525.936	-0.101	0.240
-473.259	61.360	0.091	0.092
-472.245	171.012	-0.149	0.217
-471.230	192.954	-0.065	-0.100
-470.216	543.204	0.152	-0.367
-469.201	698.208	0.180	0.480
-468.186	-23.675	0.190	0.115
-467.172	-83.252	-0.103	0.034
-466.157	65.233	-0.271	0.277
-465.143	-54.690	0.108	0.049
-464.128	800.000	-0.036	-0.159
-463.113	-162.648	0.067	0.003
-462.099	800.000	0.106	-0.398
-461.084	-101.773	-0.309	-0.076
-460.070	800.000	-0.093	0.286
-459.055	-13.421	-0.065	0.043
-458.040	-11.348	-0.333	-0.222
-457.026	745.808	-0.039	-0.107
-456.011	-200.000	0.008	-0.375
-454.997	38.776	-0.214	-0.193
-453.982	-103.115	0.176	-0.042
-452.968	734.142	0.076	0.206
-451.953	36.333	-0.238	0.212
-450.938	-112.922	-0.186	0.037
-449.924	-21.242	-0.186	-0.115
-448.909	2.903	0.104	0.076
-447.895	800.000	-0.020	0.059
-446.880	-115.926	-0.243	0.046
-445.865	-200.000	-0.010	-0.285
-444.851	-200.000	-0.047	-0.257
-443.836	44.896	0.204	0.190
-442.822	203.703	0.119	0.186
-441.807	800.000	0.095	-0.365
-440.792	119.103	0.219	0.273
-439.778	189.476	-0.144	0.218
-438.763	224.757	-0.039	-0.063
-437.749	225.299	-0.083	0.135
-436.734	-70.344	-0.319	-0.122
-435.719	127.184	0.165	0.212
-434.705	-200.000	-0.027	0.366
-433.690	-69.925	-0.090	-0.035
-432.676	189.157	0.173	-0.262
-431.661	44.458	0.049	0.046
-430.646	-13.918	-0.123	-0.081
-429.632	-46.077	-0.118	-0.059
-428.617	-108.927	-0.240	-0.052
-427.603	77.591	-0.208	0.224
-426.588	-52.528	0.180	0.084
-425.573	-44.590	-0.254	0.128
-424.559	-124.014	0.046	0.007
-423.544	-130.867	-0.058	0.008
-422.530	56.745	-0.148	-0.146
-421.515	800.000	0.047	0.193
-420.500	-200.000	-0.056	-0.385
-419.486	800.000	0.068	-0.278
-418.471	-72.021	-0.248	0.093
-417.457	-110.752	0.093	-0.019
-416.442	83.176	-0.068	0.075
-415.428	-200.000	-0.038	-0.203
-414.413	69.443	-0.141	-0.146
-413.398	-84.656	0.250	-0.079
-412.384	0.550	0.431	0.311
-411.369	119.829	0.148	-0.185
-410.355	-162.388	0.306	0.015
-409.340	-131.350	0.301	-0.040
-408.325	509.030	0.049	0.115
-407.311	-127.110	0.182	0.027
-406.296	66.335	-0.228	0.234
-405.282	-35.206	-0.293	-0.161
-404.267	-37.993	-0.046	-0.025
-403.252	-55.437	0.193	-0.088
-402.238	-123.902	0.445	0.071
-401.223	800.000	-0.087	-0.371
-400.209	-156.571	0.162	-0.010
-399.194	10.636	0.097	-0.074
-398.179	49.705	-0.168	0.160
-397.165	-79.837	-0.143	0.049
-396.150	-47.599	0.124	0.061
-395.136	131.941	0.140	-0.182
-394.121	45.138	-0.134	-0.125
-393.106	215.935	-0.128	-0.205
-392.092	-114.246	0.125	-0.024
-391.077	-31.951	-0.129	-0.073
-390.063	800.000	-0.045	0.145
-389.048	-88.824	0.214	0.064
-388.033	384.719	0.090	-0.188
-387.019	262.074	-0.141	0.246
-386.004	800.000	0.033	-0.114
-384.990	-200.000	-0.033	0.215
-383.975	-81.441	0.223	-0.074
-382.960	-200.000	0.020	-0.356
-381.946	-200.000	0.132	0.000
-380.931	3.147	0.085	0.062
-379.917	27.466	0.393	0.333
-378.902	334.047	-0.078	0.152
-377.888	315.979	0.080	0.151
-376.873	-2.484	0.049	-0.035
-375.858	-140.330	0.130	-0.014
-374.844	-181.873	0.064	-0.001
-373.829	12.671	-0.230	0.179
-372.815	-51.052	0.094	0.044
-371.800	-124.042	-0.126	0.020
-370.785	-200.000	0.005	-0.040
-369.771	30.788	0.182	0.157
-368.756	24.788	0.164	0.137
-367.742	-15.200	-0.108	-0.070
-366.727	-4.612	-0.225	-0.157
-365.712	-46.887	0.078	0.039
-364.698	23.634	-0.340	0.282
-363.683	386.752	-0.081	-0.170
-362.669	-200.000	-0.009	-0.042
-361.654	402.749	0.131	-0.277
-360.639	394.496	-0.053	-0.111
-359.625	-102.655	-0.186	0.045
-358.610	161.874	0.167	0.235
-357.596	190.262	-0.168	-0.255
-356.581	-133.386	-0.307	-0.039
-355.566	-200.000	-0.006	-0.035
-354.552	-144.169	0.028	0.003
-353.537	-164.971	0.061	0.003
-352.523	15.568	-0.226	-0.179
-351.508	-33.363	-0.015	-0.008
-350.493	77.812	0.091	-0.097
-349.479	-200.000	-0.018	-0.185
-348.464	-84.504	-0.045	0.014
-347.450	42.811	0.393	0.361
-346.435	322.730	-0.178	-0.342
-345.420	291.850	-0.148	0.271
-344.406	334.032	-0.119	-0.232
-343.391	720.222	-0.025	0.068
-342.377	800.000	-0.009	-0.029
-341.362	12.496	0.154	0.119
-340.348	-94.002	-0.224	-0.062
-339.333	-70.919	0.044	-0.017
-338.318	16.536	0.131	-0.104
-337.304	-41.383	-0.319	-0.165
-336.289	-200.000	0.006	-0.132
-335.275	71.634	-0.042	0.043
-334.260	-4.011	0.109	0.076
-333.245	-37.274	0.082	-0.044
-332.231	-35.167	-0.105	0.058
-331.216	-200.000	-0.001	-0.407
-330.202	800.000	0.083	-0.321
-329.187	253.764	-0.059	-0.101
-328.172	-138.033	-0.033	0.004
-327.158	-17.052	0.258	-0.164
-326.143	-200.000	0.002	0.015
-325.129	800.000	0.039	-0.112
-324.114	-9.325	0.073	-0.049
-323.099	-35.554	-0.278	0.152
-322.085	-200.000	0.007	-0.103
-321.070	85.869	-0.220	-0.244
-320.056	151.086	0.153	0.209
-319.041	30.575	-0.249	0.214
-318.026	-36.148	0.041	0.022
-317.012	-115.575	0.077	-0.014
-315.997	800.000	0.076	-0.330
-314.983	16.958	-0.143	0.114
-313.968	-186.995	-0.185	-0.003
-312.953	147.046	-0.174	-0.236
-311.939	34.525	0.110	0.096
-310.924	25.565	-0.158	0.132
-309.910	-41.201	0.177	-0.092
-308.895	-160.138	-0.110	0.006
-307.880	-134.957	0.240	-0.029
-306.866	184.515	0.059	-0.088
-305.851	107.875	-0.051	0.062
-304.837	-122.126	-0.163	-0.027
-303.822	-155.622	0.171	-0.011
-302.807	-200.000	0.001	-0.208
-301.793	-44.777	0.146	-0.073
-300.778	26.422	-0.205	-0.173
-299.764	-126.632	-0.202	-0.030
-298.749	-200.000	-0.005	-0.052
-297.735	9.790	0.115	-0.088
-296.720	800.000	0.059	-0.178
-295.705	26.672	0.023	-0.020
-294.691	15.797	0.081	0.064
-293.676	149.687	-0.115	0.156
-292.662	43.324	0.215	0.197
-291.647	-200.000	-0.038	0.221
-290.632	287.234	-0.060	0.109
-289.618	70.378	0.058	-0.060
-288.603	258.947	-0.078	0.136
-287.589	-3.289	0.262	-0.184
-286.574	221.378	-0.164	-0.266
-285.559	800.000	-0.123	-0.410
-284.545	257.552	-0.118	-0.204
-283.530	-200.000	-0.015	0.255
-282.516	-62.926	0.210	-0.087
-281.501	-39.143	-0.215	-0.113
-280.486	195.005	0.025	0.038
-279.472	800.000	-0.022	-0.071
-278.457	-200.000	0.025	0.249
-277.443	53.216	0.182	-0.175
-276.428	92.020	-0.121	0.137
-275.413	-106.995	-0.153	-0.034
-274.399	-189.559	0.121	-0.001
-273.384	800.000	-0.015	-0.047
-272.370	219.194	0.087	-0.139
-271.355	633.155	-0.176	0.449
-270.340	800.000	0.054	-0.156
-269.326	-53.115	-0.409	-0.189
-268.311	291.521	0.132	0.242
-267.297	-48.672	-0.092	0.044
-266.282	-8.425	0.445	-0.300
-265.267	623.806	0.125	0.317
-264.253	-200.000	0.069	0.435
-263.238	-152.494	-0.058	-0.004
-262.224	27.979	0.111	-0.094
-261.209	-94.822	0.342	0.093
-260.195	-200.000	-0.009	0.094
-259.180	-52.042	0.127	-0.059
-258.165	-60.363	0.061	0.026
-257.151	-200.000	-0.023	0.334
-256.136	-167.815	0.384	-0.015
-255.122	-200.000	0.043	0.314
-254.107	167.855	-0.118	-0.168
-253.092	130.051	0.181	-0.233
-252.078	800.000	-0.043	0.139
-251.063	110.195	0.181	0.218
-250.049	79.034	0.234	0.251
-249.034	167.898	0.116	0.166
-248.019	316.107	0.125	-0.236
-247.005	-114.435	0.427	-0.082
-245.990	-200.000	-0.026	0.212
-244.976	800.000	0.046	0.202
-243.961	-191.446	0.506	0.005
-242.946	171.222	-0.198	0.284
-241.932	-167.462	-0.161	0.006
-240.917	45.048	0.121	-0.112
-239.903	-106.648	0.232	0.052
-238.888	-74.883	0.043	-0.015
-237.873	-3.689	-0.165	-0.115
-236.859	209.554	0.228	0.358
-235.844	279.002	0.161	0.288
-234.830	-101.666	-0.091	0.022
-233.815	-200.000	-0.012	0.169
-232.800	-196.487	-0.358	-0.002
-231.786	13.533	-0.201	0.157
-230.771	-121.354	-0.244	-0.041
-229.757	-200.000	-0.007	0.033
-228.742	42.707	0.164	-0.150
-227.727	349.029	0.220	-0.435
-226.713	86.900	0.166	0.184
-225.698	-33.840	0.091	0.050
-224.684	26.675	-0.188	0.158
-223.669	-18.549	-0.134	0.084
-222.655	-16.882	0.226	-0.143
-221.640	-89.081	-0.194	-0.057
-220.625	270.183	-0.103	-0.181
-219.611	800.000	0.055	-0.208
-218.596	85.530	0.103	-0.113
-217.582	117.860	-0.445	0.550
-216.567	-200.000	0.013	0.113
-215.552	-200.000	0.013	-0.160
-214.538	-200.000	0.002	0.124
-213.523	-200.000	-0.036	-0.376
-212.509	-200.000	0.008	0.090
-211.494	27.722	-0.181	-0.153
-210.479	-54.267	0.189	-0.086
-209.465	-3.854	0.088	-0.061
-208.450	-36.479	0.053	0.028
-207.436	-12.274	-0.112	-0.073
-206.421	25.456	-0.090	-0.075
-205.406	102.465	-0.161	0.188
-204.392	-27.873	0.145	0.084
-203.377	98.068	-0.106	-0.122
-202.363	246.855	0.103	0.174
-201.348	142.850	-0.082	0.109
-200.333	-83.551	-0.203	-0.065
-199.319	800.000	-0.027	0.091
-198.304	443.898	0.021	0.047
-197.290	800.000	0.049	-0.195
-196.275	45.287	0.056	0.051
-195.260	-55.236	-0.081	0.037
-194.246	-200.000	0.011	0.201
-193.231	-45.142	0.088	0.044
-192.217	32.814	-0.200	0.173
-191.202	-160.753	0.141	0.007
-190.187	113.890	0.157	-0.191
-189.173	-60.557	0.254	0.108
-188.158	-200.000	0.006	-0.168
-187.144	-200.000	0.376	-0.001
-186.129	-77.260	0.321	0.112
-185.114	-157.794	0.189	0.011
-184.100	194.345	-0.104	0.158
-183.085	64.118	-0.100	-0.101
-182.071	-200.000	0.014	0.150
-181.056	-200.000	0.001	-0.212
-180.042	228.937	0.096	-0.156
-179.027	396.723	0.063	-0.131
-178.012	36.936	-0.313	0.277
-176.998	-66.417	0.336	0.134
-175.983	173.193	0.129	0.186
-174.969	39.070	0.164	-0.147
-173.954	-107.245	0.221	0.049
-172.939	43.120	0.192	-0.175
-171.925	-118.662	0.433	-0.077
-170.910	51.864	0.206	0.197
-169.896	391.152	0.151	-0.315
-168.881	-59.520	0.274	0.118
-167.866	211.638	-0.114	0.180
-166.852	-77.668	0.038	0.013
-165.837	551.579	0.106	0.256
-164.823	800.000	0.056	0.208
-163.808	328.980	-0.150	0.288
-162.793	148.804	0.124	0.168
-161.779	-86.953	0.153	-0.047
-160.764	-200.000	0.022	-0.164
-159.750	-109.248	0.067	-0.014
-158.735	-32.009	-0.162	0.091
-157.720	800.000	-0.026	-0.099
-156.706	-160.625	0.171	0.009
-155.691	800.000	0.067	-0.260
-154.677	-192.829	0.367	-0.003
-153.662	72.694	0.168	-0.175
-152.647	276.112	-0.189	-0.336
-151.633	-148.063	0.300	0.025
-150.618	-3.408	-0.129	-0.089
-149.604	15.229	-0.094	0.074
-148.589	-23.615	0.192	-0.115
-147.574	-53.056	-0.197	-0.090
-146.560	-200.000	0.076	0.370
-145.545	-77.183	-0.240	0.084
-144.531	173.615	0.143	0.206
-143.516	175.097	-0.147	-0.213
-142.502	-141.318	0.081	0.008
-141.487	800.000	0.089	-0.273
-140.472	458.677	0.124	0.276
-139.458	-200.000	0.066	0.495
-138.443	375.044	0.047	-0.095
-137.429	-78.905	-0.107	0.036
-136.414	162.682	-0.335	-0.470
-135.399	-37.265	0.237	-0.127
-134.385	-200.000	-0.010	-0.088
-133.370	800.000	0.059	0.252
-132.356	-103.047	-0.454	-0.108
-131.341	-200.000	0.006	-0.226
-130.326	-44.368	0.111	0.056
-129.312	11.142	0.075	-0.058
-128.297	-88.594	0.267	-0.079
-127.283	-119.772	0.012	0.002
-126.268	57.712	0.154	-0.150
-125.253	69.227	0.312	0.320
-124.239	10.639	-0.214	-0.163
-123.224	-200.000	0.008	0.260
-122.210	59.909	-0.110	0.108
-121.195	69.084	-0.105	0.108
-120.180	146.807	0.014	0.019
-119.166	162.962	0.162	0.227
-118.151	348.208	-0.041	-0.081
-117.137	218.987	-0.206	0.328
-116.122	176.329	0.207	-0.300
-115.107	-133.744	0.111	0.014
-114.093	-200.000	-0.011	-0.070
-113.078	288.084	0.220	0.397
-112.064	294.056	-0.113	-0.205
-111.049	392.338	0.119	0.246
-110.034	41.159	0.105	0.094
-109.020	435.055	0.100	0.218
-108.005	-200.000	-0.057	0.328
-106.991	-200.000	0.041	-0.204
-105.976	14.741	-0.173	-0.135
-104.962	-50.148	-0.423	0.200
-103.947	-200.000	0.049	-0.231
-102.932	-42.992	0.181	-0.092
-101.918	-200.000	0.024	0.382
-100.903	-200.000	-0.009	0.052
-99.889	-51.812	0.163	-0.076
-98.874	-200.000	-0.012	0.381
-97.859	-200.000	-0.029	-0.159
-96.845	296.483	0.236	0.432
-95.830	48.236	-0.168	-0.156
-94.816	-200.000	-0.047	-0.346
-93.801	680.866	-0.137	0.357
-92.786	594.499	0.015	0.038
-91.772	142.377	0.149	0.197
-90.757	-74.064	0.214	-0.077
-89.743	-59.678	0.391	0.167
-88.728	302.146	-0.074	0.136
-87.713	-105.122	-0.175	0.040
-86.699	381.502	0.099	-0.203
-85.684	-26.855	0.164	-0.095
-84.670	-43.723	-0.027	-0.014
-83.655	428.386	0.020	-0.043
-82.640	800.000	0.021	0.088
-81.626	-200.000	-0.006	-0.397
-80.611	374.365	0.073	-0.148
-79.597	800.000	-0.034	-0.141
-78.582	800.000	-0.057	0.180
-77.567	766.281	-0.080	-0.216
-76.553	-90.994	-0.289	-0.083
-75.538	128.677	0.133	0.169
-74.524	-112.641	-0.366	-0.073
-73.509	118.363	0.023	0.028
-72.494	251.242	0.067	0.113
-71.480	-200.000	-0.018	-0.530
-70.465	-200.000	-0.001	-0.235
-69.451	-78.317	0.097	0.033
-68.436	589.407	0.041	0.100
-67.422	800.000	0.055	0.203
-66.407	800.000	-0.071	0.289
-65.392	159.746	-0.208	0.288
-64.378	91.916	-0.107	0.120
-63.363	-200.000	0.021	0.112
-62.349	-104.172	0.137	-0.032
-61.334	261.030	-0.495	-0.854
-60.319	262.003	0.171	0.296
-59.305	-200.000	0.163	-0.799
-58.290	366.817	0.431	0.867
-57.276	800.000	0.558	1.577
-56.261	-200.000	76.100	506.750
-55.246	509.351	1338.786	3099.435
-54.232	144.409	2575.246	3425.088
-53.217	116.418	2236.496	2730.996
-52.203	52.188	1678.511	1593.843
-51.188	44.231	1401.208	1280.556
-50.173	40.594	1355.683	1216.653
-49.159	59.059	1390.876	1362.885
-48.144	65.604	1409.423	1421.439
-47.130	44.735	1372.279	1257.031
-46.115	40.619	1356.011	1216.909
-45.100	40.402	1350.981	1211.017
-44.086	40.262	1348.919	1208.265
-43.071	40.211	1346.809	1206.016
-42.057	40.299	1344.223	1204.193
-41.042	40.151	1342.651	1201.836
-40.027	40.342	1341.020	1201.488
-39.013	40.327	1339.019	1199.556
-37.998	40.381	1337.185	1198.189
-36.984	40.464	1335.138	1196.812
-35.969	40.402	1333.507	1194.926
-34.954	40.568	1331.568	1194.143
-33.940	40.460	1330.639	1192.615
-32.925	40.586	1329.113	1191.952
-31.911	40.536	1327.711	1190.350
-30.896	40.593	1325.814	1188.943
-29.881	40.584	1324.650	1187.800
-28.867	40.555	1323.223	1186.297
-27.852	40.652	1321.638	1185.407
-26.838	40.532	1320.453	1183.581
-25.823	40.512	1319.137	1182.235
-24.809	40.584	1317.396	1181.056
-23.794	40.614	1315.919	1179.869
-22.779	40.561	1314.628	1178.348
-21.765	40.555	1313.520	1177.270
-20.750	40.540	1311.960	1175.741
-19.736	40.405	1310.931	1173.967
-18.721	40.432	1309.215	1172.547
-17.706	40.378	1308.245	1171.311
-16.692	40.408	1307.436	1170.717
-15.677	40.394	1306.234	1169.515
-14.663	40.414	1304.723	1168.229
-13.648	40.439	1303.709	1167.422
-12.633	40.387	1302.874	1166.323
-11.619	40.374	1301.911	1165.342
-10.604	40.343	1301.481	1164.724
-9.590	40.362	1300.258	1163.696
-8.575	40.363	1299.068	1162.590
-7.560	40.358	1298.291	1161.821
-6.546	40.327	1297.646	1161.013
-5.531	40.256	1296.895	1159.884
-4.517	40.399	1295.201	1159.158
-3.502	40.443	1294.545	1158.783
-2.487	40.329	1293.749	1157.360
-1.473	40.436	1290.198	1154.756
-0.458	39.646	1275.379	1136.897
0.556	36.003	1256.050	1096.141
1.571	31.970	1259.270	1075.788
2.586	30.558	1273.859	1079.958
3.600	28.867	1263.135	1061.023
4.615	20.861	1185.014	951.762
5.629	8.255	1099.944	819.037
6.644	2.457	1075.385	771.520
7.659	2.059	1072.597	767.448
8.673	1.830	1071.026	765.106
9.688	1.737	1069.571	763.533
10.702	2.103	1068.543	764.566
11.717	9.076	1079.261	807.336
12.731	20.293	1095.218	876.151
13.746	25.133	1100.637	904.903
14.761	25.346	1100.985	906.183
15.775	25.314	1100.526	905.563
16.790	25.153	1099.508	903.833
17.804	25.180	1098.305	902.902
18.819	25.209	1098.014	902.729
19.834	25.247	1098.169	902.967
20.848	25.353	1097.490	902.863
21.863	25.310	1097.018	902.178
22.877	25.240	1096.251	901.116
23.892	25.179	1095.408	900.034
24.907	25.210	1094.888	899.686
25.921	25.191	1093.831	898.641
26.936	25.155	1092.406	897.211
27.950	25.313	1090.438	896.306
28.965	25.091	1088.893	893.846
29.980	25.169	1087.432	892.956
30.994	25.196	1086.883	892.562
32.009	25.221	1085.891	891.794
33.023	25.136	1084.326	890.009
34.038	25.100	1083.899	889.397
35.053	25.278	1083.049	889.507
36.067	25.157	1082.545	888.414
37.082	25.288	1081.550	888.167
38.096	25.445	1081.307	888.666
39.111	25.481	1080.365	887.992
40.126	25.328	1078.744	885.823
41.140	25.023	1076.774	882.625
42.155	24.795	1075.740	880.577
43.169	24.849	1074.818	880.014
44.184	24.852	1073.912	879.204
45.199	24.841	1072.640	878.036
46.213	24.828	1071.927	877.310
47.228	25.000	1071.565	877.777
48.242	25.044	1070.562	877.092
49.257	25.150	1069.575	876.727
50.271	25.287	1068.938	876.795
51.286	25.247	1068.568	876.221
52.301	25.313	1067.136	875.290
53.315	25.188	1066.538	874.112
54.330	25.117	1065.291	872.666
55.344	25.162	1064.934	872.514
56.359	25.269	1063.327	871.642
57.374	24.878	1062.891	869.309
58.388	24.892	1062.218	868.750
59.403	24.921	1061.202	867.983
60.417	24.747	1060.353	866.371
61.432	24.811	1059.691	866.062
62.447	25.010	1059.330	866.652
63.461	24.846	1058.700	865.266
64.476	25.024	1057.211	864.832
65.490	24.720	1056.713	862.884
66.505	24.940	1055.788	863.110
67.520	24.912	1055.368	862.554
68.534	24.669	1054.318	860.451
69.549	24.426	1052.857	858.017
70.563	24.462	1052.187	857.564
71.578	24.391	1051.488	856.579
72.593	24.307	1050.589	855.369
73.607	24.411	1049.959	855.280
74.622	24.711	1049.662	856.397
75.636	24.740	1049.135	856.032
76.651	24.577	1048.152	854.371
77.666	24.464	1047.391	853.138
78.680	24.514	1046.736	852.769
79.695	24.654	1046.136	852.872
80.709	24.845	1045.205	852.948
81.724	24.691	1044.628	851.667
82.739	24.786	1043.834	851.396
83.753	25.136	1043.427	852.655
84.768	25.507	1042.320	853.438
85.782	25.622	1041.384	853.140
86.797	25.546	1040.805	852.232
87.812	25.430	1039.210	850.300
88.826	25.537	1037.981	849.723
89.841	25.514	1037.462	849.114
90.855	25.478	1036.799	848.327
91.870	25.300	1036.357	847.051
92.884	25.355	1035.006	846.131
93.899	25.320	1033.590	844.734
94.914	25.605	1032.672	845.249
95.928	25.296	1031.831	843.035
96.943	25.157	1030.601	841.302
97.957	24.803	1029.576	838.734
98.972	24.784	1028.193	837.443
99.987	24.979	1028.106	838.212
101.001	25.086	1027.128	837.840
102.016	25.233	1026.172	837.674
103.030	25.062	1025.290	836.080
104.045	24.981	1024.410	834.912
105.060	24.777	1023.314	832.992
106.074	24.995	1022.776	833.498
107.089	25.270	1021.953	834.032
108.103	25.249	1020.927	833.021
109.118	25.043	1019.546	830.864
110.133	24.962	1018.754	829.774
111.147	24.715	1017.724	827.718
112.162	24.584	1016.983	826.437
113.176	24.915	1016.119	827.190
114.191	24.675	1015.506	825.508
115.206	24.496	1014.098	823.465
116.220	24.470	1013.673	822.929
117.235	24.547	1012.239	822.047
118.249	24.682	1011.405	821.917
119.264	24.545	1010.829	820.745
120.279	24.618	1010.130	820.442
121.293	24.658	1009.331	819.904
122.308	24.631	1008.508	819.036
123.322	24.481	1007.197	817.212
124.337	24.432	1005.782	815.771
125.352	23.876	1004.498	812.116
126.366	23.812	1003.564	810.998
127.381	24.605	1003.327	814.353
128.395	25.085	1003.121	816.299
129.410	25.214	1002.477	816.290
130.424	25.074	1001.166	814.513
131.439	25.207	1000.197	814.255
132.454	25.175	999.443	813.426
133.468	25.025	998.631	812.010
134.483	25.227	997.925	812.282
135.497	25.406	996.829	812.126
136.512	25.354	996.678	811.699
137.527	25.443	994.995	810.656
138.541	25.414	994.479	810.032
139.556	25.271	994.048	808.967
140.570	25.540	992.872	809.148
141.585	25.549	992.050	808.449
142.600	25.396	991.108	806.922
143.614	25.559	990.594	807.161
144.629	25.701	989.986	807.232
145.643	25.666	988.487	805.785
146.658	25.469	986.897	803.532
147.673	25.366	985.637	801.979
148.687	25.205	984.649	800.384
149.702	25.097	983.838	799.172
150.716	25.126	982.920	798.486
151.731	25.185	982.314	798.185
152.746	25.447	981.619	798.714
153.760	25.581	981.061	798.785
154.775	25.575	980.678	798.376
155.789	25.529	979.651	797.263
156.804	25.499	978.515	796.139
157.819	25.555	978.114	795.988
158.833	25.706	977.079	795.746
159.848	25.567	976.641	794.704
160.862	25.504	974.847	792.895
161.877	25.509	974.277	792.381
162.892	25.490	973.390	791.506
163.906	25.655	971.663	790.757
164.921	25.565	971.015	789.767
165.935	25.457	970.406	788.726
166.950	25.528	969.434	788.178
167.964	25.540	968.312	787.250
168.979	25.362	967.119	785.432
169.994	25.339	966.483	784.743
171.008	25.597	965.846	785.285
172.023	25.696	965.205	785.127
173.037	25.440	963.940	782.912
174.052	25.031	963.349	780.580
175.067	25.187	962.938	780.856
176.081	25.447	962.197	781.318
177.096	25.209	961.541	779.681
178.110	25.026	960.488	777.966
179.125	24.804	959.785	776.362
180.140	24.798	959.221	775.811
181.154	25.009	959.005	776.483
182.169	25.340	958.772	777.659
183.183	25.542	958.418	778.181
184.198	25.355	957.460	776.524
185.213	25.496	956.377	776.184
186.227	25.462	956.088	775.736
187.242	25.464	955.525	775.221
188.256	25.511	954.604	774.606
189.271	25.782	953.641	774.924
190.286	25.231	952.927	771.904
191.300	24.729	950.996	768.113
192.315	23.867	949.680	763.286
193.329	23.658	949.018	761.790
194.344	24.681	949.802	766.740
195.359	25.336	949.635	769.348
196.373	25.455	949.223	769.455
197.388	25.335	948.542	768.321
198.402	25.447	947.616	767.980
199.417	25.400	947.475	767.598
200.432	25.206	946.058	765.556
201.446	25.092	945.516	764.561
202.461	25.034	945.158	763.957
203.475	24.352	943.203	759.406
204.490	23.343	941.761	753.890
205.504	24.253	942.229	758.068
206.519	24.944	942.315	761.006
207.534	25.070	941.400	760.735
208.548	25.564	941.076	762.502
209.563	25.210	940.407	760.393
210.577	25.196	939.801	759.776
211.592	25.548	939.604	761.040
212.607	25.676	938.526	760.642
213.621	25.541	938.151	759.698
214.636	25.742	937.265	759.763
215.650	25.711	936.329	758.806
216.665	25.653	936.190	758.380
217.680	25.657	935.213	757.540
218.694	25.196	934.040	754.583
219.709	25.079	933.154	753.311
220.723	25.295	933.351	754.309
221.738	25.440	932.529	754.186
222.753	25.397	931.973	753.491
223.767	25.352	931.846	753.130
224.782	25.709	931.218	754.054
225.796	25.770	930.590	753.733
226.811	25.198	928.780	749.812
227.826	24.370	927.651	745.375
228.840	24.600	926.865	745.638
229.855	24.712	925.892	745.255
230.869	24.405	925.174	743.335
231.884	24.666	925.664	744.750
232.899	25.343	925.651	747.492
233.913	25.306	925.173	746.888
234.928	25.374	924.477	746.541
235.942	25.310	923.790	745.652
236.957	25.062	922.885	743.829
237.972	24.918	922.362	742.745
238.986	25.120	921.715	742.994
240.001	25.047	921.310	742.300
241.015	25.245	920.731	742.588
242.030	25.368	920.352	742.726
243.045	25.414	920.136	742.675
244.059	25.560	919.532	742.726
245.074	25.306	918.606	740.863
246.088	25.000	917.389	738.553
247.103	25.399	916.802	739.659
248.117	25.844	917.460	741.956
249.132	26.026	917.152	742.393
250.147	26.214	916.683	742.723
251.161	26.342	916.082	742.693
252.176	26.280	915.374	741.801
253.190	26.329	915.065	741.684
254.205	26.460	914.362	741.586
255.220	26.466	913.753	741.050
256.234	26.393	912.454	739.636
257.249	26.150	912.084	738.274
258.263	26.166	911.595	737.880
259.278	26.331	910.484	737.589
260.293	26.441	910.375	737.882
261.307	26.262	909.534	736.405
262.322	26.038	908.921	734.933
263.336	25.362	906.742	730.357
264.351	24.410	904.637	724.732
265.366	24.436	904.447	724.620
266.380	25.532	905.409	729.780
267.395	25.953	904.910	731.021
268.409	25.871	904.569	730.349
269.424	26.090	903.959	730.676
270.439	26.142	903.553	730.496
271.453	26.136	902.501	729.557
272.468	26.301	902.339	730.029
273.482	26.416	901.732	729.935
274.497	25.962	900.596	727.120
275.512	25.711	899.534	725.190
276.526	25.903	899.474	725.848
277.541	26.089	899.609	726.642
278.555	25.887	898.728	725.055
279.570	25.701	897.886	723.563
280.585	25.944	897.346	724.041
281.599	25.907	896.432	723.090
282.614	25.507	894.815	720.121
283.628	25.386	894.583	719.385
284.643	25.760	894.542	720.787
285.657	25.350	892.956	717.806
286.672	25.018	892.614	716.139
287.687	25.689	892.191	718.418
288.701	25.830	891.448	718.319
289.716	25.358	890.879	715.913
290.730	25.374	889.960	715.177
291.745	25.046	889.155	713.163
292.760	25.158	889.302	713.662
293.774	26.438	889.251	718.646
294.789	26.701	889.185	719.576
295.803	26.593	888.879	718.836
296.818	26.678	888.372	718.696
297.833	26.259	887.123	715.963
298.847	26.199	885.917	714.688
299.862	26.438	886.019	715.656
300.876	26.663	885.921	716.404
301.891	26.602	884.999	715.351
302.906	26.329	884.075	713.463
303.920	26.266	883.955	713.054
304.935	26.815	883.596	714.869
305.949	26.601	882.885	713.388
306.964	26.365	882.019	711.696
307.979	26.446	881.448	711.491
308.993	26.793	881.619	712.928
310.008	26.792	880.945	712.316
311.022	26.489	879.960	710.271
312.037	26.347	879.606	709.361
313.052	25.960	878.884	707.199
314.066	25.280	877.053	703.003
315.081	24.817	876.437	700.633
316.095	25.695	876.818	704.316
317.110	26.233	876.567	706.152
318.125	25.423	874.898	701.586
319.139	24.437	873.279	696.379
320.154	24.349	872.888	695.664
321.168	25.280	873.402	699.643
322.183	25.991	873.823	702.689
323.197	26.247	873.052	703.001
324.212	26.417	872.518	703.172
325.227	26.390	872.244	702.785
326.241	26.202	871.558	701.438
327.256	26.144	870.807	700.545
328.270	26.194	869.818	699.884
329.285	25.828	869.396	698.064
330.300	25.625	868.604	696.580
331.314	25.930	868.396	697.532
332.329	26.402	868.447	699.337
333.343	26.534	867.911	699.352
334.358	26.542	867.081	698.655
335.373	26.513	867.252	698.619
336.387	26.849	867.163	699.783
337.402	26.897	867.052	699.814
338.416	26.947	866.246	699.295
339.431	26.918	866.370	699.220
340.446	27.141	866.159	699.847
341.460	27.000	864.991	698.300
342.475	26.900	864.323	697.315
343.489	26.975	863.906	697.206
344.504	26.979	864.171	697.372
345.519	27.407	863.500	698.411
346.533	27.327	863.306	697.887
347.548	27.195	863.009	697.079
348.562	27.207	862.006	696.251
349.577	27.209	861.398	695.707
350.592	27.139	860.775	694.876
351.606	27.265	859.806	694.512
352.621	27.021	859.031	692.893
353.635	26.983	858.613	692.351
354.650	26.372	857.330	688.929
355.665	25.635	854.931	684.139
356.679	25.813	855.074	684.867
357.694	26.282	854.691	686.282
358.708	26.205	854.322	685.634
359.723	26.585	854.142	686.871
360.738	27.078	853.574	688.222
361.752	26.975	853.079	687.369
362.767	27.400	852.812	688.703
363.781	27.551	852.781	689.190
364.796	27.592	852.644	689.170
365.810	27.665	851.652	688.584
366.825	27.754	851.511	688.747
367.840	27.522	850.381	686.898
368.854	26.966	849.613	684.121
369.869	26.963	849.340	683.828
370.883	27.088	848.813	683.816
371.898	26.989	848.006	682.733
372.913	27.212	847.751	683.304
373.927	27.168	847.494	682.870
374.942	27.297	847.158	683.022
375.956	27.475	846.726	683.283
376.971	27.521	846.459	683.181
377.986	27.629	846.344	683.431
379.000	27.746	845.256	682.929
380.015	27.383	844.979	681.287
381.029	27.624	844.204	681.503
382.044	27.690	843.844	681.399
383.059	27.662	843.021	680.571
384.073	27.590	843.010	680.233
385.088	27.504	842.362	679.326
386.102	27.477	840.879	677.970
387.117	27.410	840.383	677.261
388.132	27.024	839.104	674.739
389.146	26.515	838.324	672.162
390.161	27.001	838.202	673.806
391.175	27.356	838.438	675.256
392.190	27.005	837.419	673.075
393.205	25.688	835.054	666.241
394.219	24.193	833.039	659.050
395.234	24.058	833.017	658.474
396.248	25.628	834.357	665.289
397.263	27.159	835.444	671.760
398.278	27.042	834.984	670.897
399.292	26.751	834.383	669.280
400.307	27.000	833.466	669.406
401.321	27.063	833.139	669.316
402.336	27.318	833.412	670.414
403.350	27.779	833.192	671.876
404.365	27.886	833.271	672.275
405.380	28.349	832.608	673.383
406.394	28.547	832.080	673.623
407.409	28.235	831.760	672.158
408.423	28.141	831.585	671.613
409.438	28.382	830.746	671.757
410.453	28.368	830.351	671.330
411.467	28.255	829.981	670.554
412.482	28.354	829.403	670.394
413.496	28.256	829.630	670.159
414.511	28.481	829.015	670.425
415.526	28.388	828.234	669.393
416.540	28.374	827.466	668.661
417.555	28.005	826.710	666.647
418.569	28.121	826.560	666.891
419.584	27.843	826.400	665.689
420.599	27.884	825.017	664.665
421.613	94.953	1265.878	1376.984
422.628	81.954	1330.170	1377.130
