DTS Sentinel unit serial number:	SN413079Multiplexer serial number:	ORYXHardware model number:	OX4-SRSoftware version number:	ORYX F/W v4.00 Oryx Data Collector v3.7.2.0data status	okinstallation	princeton_trtdifferential loss correction	single-endedforward channel	channel 1reverse channel	N/Adate	2019/09/17time	13:54:36forward acquisition time	60.00reverse acquisition time	0.00gamma	496.2192k internal	0.2302k external	0.2302temperature offset calibration	0.9967default loss term (dB/km)	0.3790temperature slope calibration	1.0000multiplexer offset coefficient	1.0000multiplexer slope coefficient	1.0000fibre end	0.00T internal ref (°C)	35.37T ext. ref 1 (°C)	0.42T ext. ref 2 (°C)	32.50length (m)	temperature (°C)	Stokes	anti-Stokes-747.200	490.563	-0.074	-0.173
-746.185	-200.000	-0.015	0.201
-745.171	217.425	-0.060	0.097
-744.156	800.000	0.097	0.316
-743.142	-200.000	0.063	-0.299
-742.127	-44.501	0.266	0.135
-741.112	84.654	-0.157	-0.175
-740.098	-120.333	0.199	-0.035
-739.083	208.251	0.078	0.125
-738.069	800.000	0.097	0.368
-737.054	800.000	-0.062	-0.219
-736.039	514.335	-0.063	-0.149
-735.025	11.940	0.263	-0.206
-734.010	-157.910	-0.295	-0.018
-732.996	144.008	-0.113	0.153
-731.981	-134.131	0.142	0.018
-730.966	628.022	0.075	0.194
-729.952	793.396	-0.042	0.117
-728.937	311.570	-0.307	-0.586
-727.923	800.000	-0.031	-0.129
-726.908	-85.753	-0.250	-0.079
-725.894	-64.200	0.202	0.084
-724.879	-200.000	-0.022	0.179
-723.864	257.932	-0.160	-0.280
-722.850	-2.396	-0.136	-0.097
-721.835	800.000	0.080	-0.228
-720.821	24.035	-0.169	0.142
-719.806	-58.537	0.081	0.036
-718.791	-200.000	0.021	-0.102
-717.777	-146.730	-0.327	-0.029
-716.762	357.897	0.192	0.389
-715.748	-87.876	-0.287	0.088
-714.733	-61.892	-0.127	-0.054
-713.718	-137.587	-0.143	-0.016
-712.704	-85.097	0.126	0.040
-711.689	-38.229	-0.058	-0.031
-710.675	-18.794	0.119	0.075
-709.660	-112.523	0.240	0.049
-708.645	362.842	-0.186	-0.381
-707.631	-142.057	0.149	0.015
-706.616	621.679	-0.091	-0.233
-705.602	-200.000	-0.002	0.197
-704.587	-200.000	-0.000	-0.492
-703.572	800.000	0.059	0.258
-702.558	-14.037	-0.123	0.081
-701.543	163.927	0.162	-0.231
-700.529	19.153	0.175	0.142
-699.514	-120.053	-0.217	-0.038
-698.499	800.000	-0.022	-0.092
-697.485	-9.650	0.095	0.064
-696.470	-176.138	-0.257	0.007
-695.456	-200.000	-0.012	-0.156
-694.441	-185.231	-0.304	0.005
-693.426	-200.000	-0.026	0.136
-692.412	800.000	0.068	-0.281
-691.397	331.742	-0.027	0.054
-690.383	-97.154	-0.348	0.093
-689.368	-50.323	0.088	-0.042
-688.354	28.551	-0.170	0.146
-687.339	13.770	-0.292	-0.230
-686.324	800.000	0.088	-0.321
-685.310	179.649	-0.185	-0.275
-684.295	25.972	0.169	0.143
-683.281	800.000	0.056	0.183
-682.266	55.782	-0.267	0.263
-681.251	17.473	-0.235	0.190
-680.237	-200.000	-0.046	-0.219
-679.222	-200.000	-0.030	-0.337
-678.208	800.000	0.030	-0.127
-677.193	-158.914	-0.454	-0.026
-676.178	-116.936	-0.280	-0.052
-675.164	-167.627	0.350	0.014
-674.149	-1.037	-0.079	-0.057
-673.135	39.337	-0.183	-0.166
-672.120	212.003	0.059	0.095
-671.105	54.500	-0.187	0.183
-670.091	107.914	0.097	0.117
-669.076	-200.000	-0.004	0.670
-668.062	-21.098	0.294	-0.183
-667.047	-106.764	0.441	-0.100
-666.032	-120.040	0.060	-0.011
-665.018	-175.451	-0.189	0.005
-664.003	-94.862	0.264	0.073
-662.989	-200.000	-0.223	-0.001
-661.974	-150.887	0.088	-0.007
-660.959	-200.000	0.039	-0.419
-659.945	127.454	0.096	0.124
-658.930	-111.250	-0.188	0.039
-657.916	88.621	-0.042	0.048
-656.901	800.000	-0.115	-0.368
-655.886	800.000	-0.055	-0.190
-654.872	66.625	-0.315	0.326
-653.857	-170.519	-0.301	-0.011
-652.843	121.626	-0.184	-0.233
-651.828	-136.303	-0.042	0.005
-650.814	354.010	-0.135	0.273
-649.799	-200.000	0.027	-0.284
-648.784	-179.405	-0.381	0.009
-647.770	-94.463	0.066	0.018
-646.755	-116.794	-0.290	-0.054
-645.741	-90.168	-0.143	0.042
-644.726	-142.176	0.124	0.013
-643.711	243.856	-0.023	-0.039
-642.697	-38.635	0.085	-0.045
-641.682	-200.000	-0.019	-0.086
-640.668	-130.087	0.078	-0.011
-639.653	-200.000	-0.011	-0.375
-638.638	779.523	0.062	0.173
-637.624	-3.036	0.177	0.125
-636.609	460.571	0.127	0.288
-635.595	616.580	0.010	-0.025
-634.580	128.958	-0.176	0.228
-633.565	-65.078	-0.209	-0.086
-632.551	-97.377	-0.199	0.052
-631.536	31.199	0.029	-0.026
-630.522	113.083	-0.079	-0.098
-629.507	60.338	0.156	0.157
-628.492	93.406	-0.274	-0.315
-627.478	102.053	0.115	-0.136
-626.463	-102.411	-0.165	-0.040
-625.449	169.006	-0.036	-0.051
-624.434	38.005	0.227	0.205
-623.419	685.411	0.023	0.061
-622.405	-200.000	-0.015	-0.154
-621.390	-82.925	-0.221	-0.072
-620.376	800.000	-0.062	0.220
-619.361	-130.407	0.085	-0.012
-618.346	22.295	-0.062	0.051
-617.332	-200.000	-0.064	-0.344
-616.317	5.578	0.285	-0.214
-615.303	800.000	0.035	-0.121
-614.288	-89.112	0.384	0.115
-613.273	-200.000	-0.021	-0.177
-612.259	33.878	-0.274	-0.242
-611.244	-84.269	0.292	0.094
-610.230	-34.159	-0.250	-0.139
-609.215	-200.000	-0.016	0.285
-608.201	-24.789	0.238	0.143
-607.186	-200.000	0.045	0.232
-606.171	47.790	0.333	-0.315
-605.157	-53.838	-0.126	-0.058
-604.142	-128.178	-0.277	-0.040
-603.128	-200.000	-0.024	0.469
-602.113	-200.000	-0.011	0.322
-601.098	-167.527	-0.184	0.007
-600.084	-99.031	0.060	0.015
-599.069	-32.692	-0.174	0.098
-598.055	63.473	-0.108	-0.109
-597.040	-200.000	0.001	0.228
-596.025	-3.233	-0.246	0.173
-595.011	38.294	-0.294	0.265
-593.996	-147.500	-0.133	0.011
-592.982	-158.873	-0.493	-0.028
-591.967	1.435	0.241	-0.175
-590.952	71.150	0.126	-0.132
-589.938	128.345	0.095	0.122
-588.923	-200.000	0.018	-0.218
-587.909	-118.709	0.241	-0.043
-586.894	-110.823	0.166	-0.035
-585.879	466.122	-0.082	0.186
-584.865	378.337	-0.292	0.606
-583.850	-56.876	0.240	-0.107
-582.836	146.355	-0.078	0.106
-581.821	2.775	-0.246	-0.180
-580.806	399.926	-0.035	0.074
-579.792	800.000	-0.087	-0.278
-578.777	-135.237	-0.082	0.010
-577.763	-128.753	0.465	0.066
-576.748	-54.396	-0.006	-0.003
-575.733	14.681	-0.305	0.241
-574.719	-56.792	0.162	-0.073
-573.704	-141.657	-0.215	0.022
-572.690	-200.000	-0.013	-0.166
-571.675	-55.206	-0.184	-0.084
-570.661	54.922	-0.194	-0.190
-569.646	2.546	-0.126	0.093
-568.631	660.766	0.059	-0.155
-567.617	-20.690	0.068	-0.042
-566.602	-194.669	-0.191	0.002
-565.588	300.721	0.178	0.333
-564.573	-145.032	-0.124	-0.011
-563.558	14.803	0.208	0.165
-562.544	-20.454	0.235	-0.146
-561.529	-200.000	0.001	0.143
-560.515	23.081	-0.314	0.261
-559.500	30.213	0.156	-0.135
-558.485	105.686	0.104	0.124
-557.471	69.509	-0.125	-0.130
-556.456	-134.767	0.454	-0.056
-555.442	4.792	-0.036	-0.027
-554.427	261.926	-0.074	-0.130
-553.412	-200.000	0.012	0.317
-552.398	-127.349	0.113	-0.017
-551.383	-12.654	-0.155	0.102
-550.369	-44.648	0.353	0.178
-549.354	-19.153	-0.201	0.126
-548.339	-18.610	-0.103	0.065
-547.325	-65.756	-0.218	-0.088
-546.310	515.473	-0.068	-0.160
-545.296	512.929	-0.116	-0.273
-544.281	207.590	-0.036	0.056
-543.266	-200.000	0.000	0.061
-542.252	387.511	-0.025	-0.053
-541.237	-133.211	-0.315	-0.040
-540.223	159.503	-0.207	-0.291
-539.208	615.077	-0.034	0.086
-538.193	-200.000	0.011	0.048
-537.179	-48.099	0.150	0.073
-536.164	-143.720	-0.155	0.015
-535.150	79.264	0.084	0.091
-534.135	496.550	-0.054	0.124
-533.121	17.164	-0.203	0.163
-532.106	42.771	-0.023	0.021
-531.091	-4.693	-0.226	0.157
-530.077	-200.000	0.012	0.093
-529.062	220.599	0.045	-0.072
-528.048	-200.000	-0.042	0.291
-527.033	-56.645	-0.156	-0.070
-526.018	-171.895	0.190	0.006
-525.004	391.449	0.165	-0.347
-523.989	-127.510	0.295	-0.043
-522.975	-200.000	0.027	-0.174
-521.960	-200.000	0.071	-0.344
-520.945	26.795	0.124	0.105
-519.931	65.381	-0.136	-0.139
-518.916	233.485	0.036	-0.061
-517.902	800.000	0.093	0.326
-516.887	-77.569	-0.387	0.136
-515.872	-200.000	0.042	-0.272
-514.858	536.578	-0.059	-0.141
-513.843	357.324	-0.083	0.168
-512.829	800.000	0.017	0.065
-511.814	-116.857	-0.145	0.027
-510.799	131.963	0.134	0.175
-509.785	-134.233	-0.127	0.016
-508.770	294.521	0.087	-0.161
-507.756	-20.083	-0.096	0.060
-506.741	800.000	-0.046	-0.175
-505.726	-89.105	0.123	-0.037
-504.712	161.272	0.092	-0.130
-503.697	-77.719	-0.209	-0.073
-502.683	-83.922	-0.039	0.013
-501.668	94.481	0.116	0.133
-500.653	-138.168	-0.162	0.018
-499.639	-150.855	-0.293	-0.022
-498.624	18.913	-0.233	-0.188
-497.610	-141.996	-0.076	-0.008
-496.595	-200.000	0.036	-0.309
-495.581	-91.474	0.264	0.076
-494.566	60.159	-0.085	0.085
-493.551	64.119	-0.245	-0.249
-492.537	-109.028	-0.117	0.025
-491.522	-96.733	-0.232	-0.062
-490.508	-163.488	0.086	-0.004
-489.493	-200.000	-0.016	0.316
-488.478	-71.565	-0.125	0.047
-487.464	-40.620	-0.246	0.129
-486.449	-103.395	0.093	0.022
-485.435	-200.000	-0.007	0.039
-484.420	-105.133	0.165	-0.038
-483.405	235.451	-0.104	0.173
-482.391	800.000	-0.017	-0.072
-481.376	-86.527	-0.073	-0.023
-480.362	306.478	-0.063	0.118
-479.347	173.250	0.121	0.176
-478.332	209.688	-0.139	0.220
-477.318	-200.000	0.000	0.072
-476.303	-200.000	0.021	0.253
-475.289	304.770	-0.009	0.018
-474.274	141.756	0.149	0.198
-473.259	-200.000	-0.016	0.254
-472.245	74.157	-0.253	0.268
-471.230	16.322	0.207	0.165
-470.216	90.538	-0.236	-0.267
-469.201	-68.399	-0.126	-0.049
-468.186	800.000	0.022	0.078
-467.172	-200.000	0.008	0.051
-466.157	34.797	-0.201	0.177
-465.143	-200.000	0.015	-0.180
-464.128	23.321	-0.166	-0.137
-463.113	-200.000	0.021	-0.176
-462.099	-64.129	0.259	0.107
-461.084	29.838	-0.272	0.234
-460.070	97.400	-0.067	0.077
-459.055	244.764	0.117	-0.198
-458.040	-121.546	-0.254	-0.042
-457.026	177.104	0.156	0.229
-456.011	220.868	0.090	-0.145
-454.997	-26.795	0.130	-0.076
-453.982	481.584	0.052	-0.118
-452.968	109.827	-0.068	-0.082
-451.953	-68.635	-0.356	0.139
-450.938	221.989	-0.142	0.231
-449.924	-79.364	0.329	0.112
-448.909	643.486	-0.064	-0.165
-447.895	19.684	0.126	-0.102
-446.880	-200.000	-0.020	-0.239
-445.865	-200.000	0.025	0.220
-444.851	46.289	-0.179	0.167
-443.836	248.066	-0.097	-0.166
-442.822	57.570	0.080	-0.079
-441.807	-33.924	0.037	-0.020
-440.792	-51.527	-0.209	-0.098
-439.778	1.873	0.349	-0.253
-438.763	-88.333	0.128	0.038
-437.749	8.827	-0.108	-0.082
-436.734	407.223	0.224	0.476
-435.719	-200.000	-0.015	0.313
-434.705	-121.214	0.137	0.023
-433.690	-23.119	-0.020	-0.012
-432.676	133.618	-0.062	0.081
-431.661	350.848	0.088	0.176
-430.646	-200.000	0.020	0.149
-429.632	59.479	-0.063	0.062
-428.617	-9.829	0.094	0.063
-427.603	32.590	0.151	0.131
-426.588	-200.000	0.029	-0.157
-425.573	800.000	-0.024	-0.092
-424.559	142.709	0.276	0.369
-423.544	-74.243	-0.152	0.055
-422.530	800.000	-0.043	-0.146
-421.515	800.000	0.022	0.081
-420.500	-61.945	-0.235	-0.099
-419.486	49.225	-0.244	0.231
-418.471	672.509	-0.036	0.095
-417.457	-49.605	0.185	0.088
-416.442	-200.000	0.034	0.180
-415.428	135.283	0.257	0.336
-414.413	-136.641	0.194	0.023
-413.398	12.399	-0.126	-0.097
-412.384	109.422	-0.220	0.265
-411.369	125.868	0.106	-0.135
-410.355	-36.182	0.137	-0.074
-409.340	365.389	0.096	0.195
-408.325	-73.877	-0.120	-0.044
-407.311	-61.504	0.120	0.051
-406.296	-81.163	-0.095	0.032
-405.282	100.293	-0.116	-0.135
-404.267	-100.178	-0.485	0.121
-403.252	-32.899	-0.231	0.129
-402.238	-193.283	0.332	-0.003
-401.223	59.690	-0.056	-0.056
-400.209	-57.205	-0.207	0.092
-399.194	-25.127	0.136	-0.081
-398.179	120.613	-0.103	-0.129
-397.165	-52.450	0.189	-0.088
-396.150	-34.274	-0.036	0.020
-395.136	-12.332	0.116	-0.076
-394.121	173.358	-0.123	-0.178
-393.106	-57.419	-0.131	-0.058
-392.092	-123.050	-0.148	-0.024
-391.077	669.574	-0.016	0.040
-390.063	-113.050	0.235	0.047
-389.048	18.883	0.098	0.079
-388.033	54.857	0.079	0.077
-387.019	-43.585	0.321	-0.163
-386.004	-200.000	0.039	0.206
-384.990	-200.000	-0.008	-0.132
-383.975	9.373	0.243	0.184
-382.960	559.849	0.032	-0.079
-381.946	312.125	0.139	0.262
-380.931	800.000	-0.061	0.209
-379.917	21.655	0.171	-0.140
-378.902	-200.000	-0.003	0.019
-377.888	-200.000	0.043	0.311
-376.873	-200.000	-0.027	0.154
-375.858	63.575	-0.046	0.047
-374.844	760.474	0.075	-0.203
-373.829	-73.234	-0.400	0.147
-372.815	242.694	0.119	0.199
-371.800	800.000	0.188	-0.563
-370.785	77.017	0.311	-0.331
-369.771	217.770	-0.118	0.188
-368.756	-149.288	0.124	-0.010
-367.742	-200.000	0.012	-0.116
-366.727	-75.637	0.213	-0.076
-365.712	-200.000	0.050	-0.250
-364.698	33.567	0.071	-0.062
-363.683	-200.000	-0.015	0.317
-362.669	-200.000	-0.035	0.183
-361.654	-200.000	0.007	-0.061
-360.639	-36.066	-0.409	-0.222
-359.625	-68.865	0.201	0.078
-358.610	-144.015	-0.257	0.024
-357.596	95.877	-0.057	-0.065
-356.581	-130.217	-0.326	0.045
-355.566	800.000	0.047	-0.177
-354.552	800.000	0.063	0.231
-353.537	198.350	-0.080	0.122
-352.523	40.331	0.190	0.171
-351.508	-48.899	-0.122	-0.058
-350.493	-139.857	0.397	0.042
-349.479	-200.000	-0.025	-0.121
-348.464	-163.153	0.379	0.018
-347.450	-200.000	-0.002	0.025
-346.435	254.321	0.083	0.143
-345.420	-20.019	0.066	-0.041
-344.406	9.902	-0.154	-0.118
-343.391	240.800	0.257	0.430
-342.377	-98.451	-0.139	-0.036
-341.362	-24.585	0.254	-0.152
-340.348	48.247	0.233	-0.219
-339.333	152.313	-0.295	-0.404
-338.318	464.800	-0.102	0.229
-337.304	-21.042	-0.145	-0.089
-336.289	-127.269	0.246	-0.036
-335.275	-52.085	-0.112	-0.052
-334.260	119.867	0.180	-0.224
-333.245	-0.348	-0.163	-0.116
-332.231	-200.000	0.003	0.137
-331.216	-62.705	0.200	0.083
-330.202	800.000	0.128	-0.465
-329.187	69.836	0.042	-0.043
-328.172	-32.401	0.214	-0.120
-327.158	800.000	0.073	-0.255
-326.143	-92.865	-0.386	0.108
-325.129	-156.797	0.327	-0.020
-324.114	-79.890	0.147	-0.049
-323.099	123.392	0.134	0.168
-322.085	550.021	0.042	-0.100
-321.070	-200.000	0.038	0.242
-320.056	138.982	0.139	0.183
-319.041	-93.360	0.361	0.100
-318.026	217.367	0.063	-0.100
-317.012	-200.000	0.011	-0.107
-315.997	126.757	0.334	-0.424
-314.983	-32.213	-0.304	-0.170
-313.968	-112.724	0.173	-0.034
-312.953	66.820	-0.224	-0.229
-311.939	256.681	-0.034	0.058
-310.924	-187.565	-0.321	-0.004
-309.910	-68.481	-0.327	-0.127
-308.895	565.745	-0.093	-0.227
-307.880	-157.575	-0.236	0.014
-306.866	-165.124	0.308	0.014
-305.851	18.698	-0.175	0.140
-304.837	110.490	0.087	0.105
-303.822	527.399	0.060	-0.143
-302.807	133.815	-0.060	0.078
-301.793	-37.047	0.373	-0.200
-300.778	221.411	-0.288	-0.464
-299.764	-46.709	-0.227	-0.111
-298.749	-200.000	0.011	-0.246
-297.735	-104.139	-0.297	-0.069
-296.720	664.343	0.045	-0.116
-295.705	-200.000	-0.018	0.108
-294.691	-69.299	0.097	0.037
-293.676	289.466	0.223	0.404
-292.662	83.590	0.071	0.078
-291.647	-186.264	-0.044	0.001
-290.632	-200.000	-0.023	-0.365
-289.618	278.587	-0.129	-0.229
-288.603	-161.017	0.353	-0.019
-287.589	-22.352	0.246	0.149
-286.574	407.351	-0.050	0.106
-285.559	-67.301	0.318	-0.125
-284.545	143.118	-0.203	-0.270
-283.530	399.230	-0.060	0.126
-282.516	-200.000	0.017	0.389
-281.501	-75.951	-0.068	0.024
-280.486	-200.000	-0.017	-0.255
-279.472	774.110	-0.150	-0.408
-278.457	800.000	0.090	0.291
-277.443	45.558	0.100	0.092
-276.428	-200.000	-0.019	-0.157
-275.413	-0.763	0.108	-0.077
-274.399	-57.982	0.369	-0.161
-273.384	43.641	-0.173	-0.159
-272.370	-63.296	-0.208	0.086
-271.355	-39.154	0.089	-0.047
-270.340	41.988	0.111	0.101
-269.326	-200.000	0.032	0.244
-268.311	-55.056	0.314	-0.141
-267.297	-200.000	0.017	0.089
-266.282	3.750	0.278	0.203
-265.267	-98.635	-0.251	0.064
-264.253	-33.425	0.048	-0.027
-263.238	-88.870	-0.055	-0.016
-262.224	-146.458	0.124	-0.011
-261.209	-94.044	-0.367	0.101
-260.195	179.491	-0.173	-0.253
-259.180	-193.770	0.205	-0.002
-258.165	-21.441	0.204	-0.124
-257.151	800.000	0.065	0.214
-256.136	-186.249	0.320	0.005
-255.122	97.271	-0.308	-0.354
-254.107	-200.000	-0.030	0.142
-253.092	-200.000	-0.011	-0.163
-252.078	-15.599	-0.214	-0.137
-251.063	-118.231	-0.193	-0.034
-250.049	-200.000	-0.009	-0.091
-249.034	-200.000	0.021	-0.144
-248.019	430.903	0.041	-0.088
-247.005	265.867	-0.186	0.324
-245.990	192.839	-0.066	-0.099
-244.976	-200.000	0.062	-0.341
-243.961	-60.835	-0.067	-0.028
-242.946	-146.880	0.169	-0.014
-241.932	800.000	-0.090	0.256
-240.917	-133.009	-0.181	-0.023
-239.903	147.317	-0.200	-0.269
-238.888	134.435	0.172	-0.223
-237.873	167.202	-0.120	-0.170
-236.859	-200.000	-0.001	0.053
-235.844	107.331	-0.093	-0.111
-234.830	800.000	0.126	0.359
-233.815	-200.000	-0.000	-0.204
-232.800	-63.414	-0.095	0.039
-231.786	-10.020	0.033	0.022
-230.771	-64.050	-0.173	0.071
-229.757	-142.934	-0.171	0.017
-228.742	-20.838	0.240	0.147
-227.727	51.187	0.089	-0.084
-226.713	414.654	0.150	-0.320
-225.698	724.687	-0.061	-0.161
-224.684	185.524	0.228	-0.338
-223.669	-142.910	-0.102	0.010
-222.655	57.563	0.115	0.113
-221.640	68.860	0.271	0.278
-220.625	313.282	0.116	-0.217
-219.611	-179.751	0.301	-0.006
-218.596	-119.781	0.039	-0.007
-217.582	-95.665	0.084	0.022
-216.567	31.091	0.343	0.294
-215.552	-87.245	0.507	0.154
-214.538	-118.594	-0.365	-0.064
-213.523	-154.588	0.073	-0.005
-212.509	-28.812	-0.123	0.070
-211.494	-125.539	-0.064	-0.010
-210.479	153.615	-0.059	0.081
-209.465	161.943	-0.120	0.168
-208.450	-22.592	-0.006	0.003
-207.436	-144.021	-0.071	-0.007
-206.421	618.026	-0.061	0.154
-205.406	-34.571	-0.059	-0.032
-204.392	57.370	-0.029	-0.028
-203.377	-200.000	-0.004	0.023
-202.363	191.983	0.155	-0.233
-201.348	-200.000	-0.005	0.057
-200.333	140.853	0.092	0.122
-199.319	-17.124	0.099	0.062
-198.304	34.024	-0.295	0.256
-197.290	-200.000	0.038	0.291
-196.275	419.794	0.057	0.121
-195.260	-200.000	0.022	-0.343
-194.246	-47.001	-0.137	0.067
-193.231	262.001	-0.153	-0.265
-192.217	288.015	0.062	-0.112
-191.202	-61.529	0.157	0.066
-190.187	35.122	0.236	0.206
-189.173	-8.080	0.282	0.189
-188.158	104.791	-0.147	-0.173
-187.144	800.000	-0.010	0.037
-186.129	39.673	0.119	0.107
-185.114	284.336	0.104	0.186
-184.100	-130.371	0.229	0.031
-183.085	-99.374	-0.245	0.062
-182.071	54.807	-0.183	-0.176
-181.056	244.129	-0.072	-0.121
-180.042	-21.715	0.153	-0.093
-179.027	-81.887	0.062	-0.020
-178.012	114.299	0.083	0.101
-176.998	-114.931	0.304	-0.058
-175.983	-2.393	-0.197	-0.137
-174.969	-140.012	-0.111	0.012
-173.954	-105.543	0.417	-0.094
-172.939	-158.237	-0.235	0.014
-171.925	-124.643	-0.373	0.058
-170.910	800.000	0.077	-0.278
-169.896	-109.252	0.569	-0.120
-168.881	-101.688	-0.149	0.036
-167.866	-96.924	-0.364	0.095
-166.852	85.872	0.164	-0.179
-165.837	293.028	-0.100	-0.182
-164.823	52.127	0.189	-0.179
-163.808	68.834	0.059	0.060
-162.793	71.967	0.090	0.093
-161.779	-83.713	-0.166	0.053
-160.764	-6.559	-0.193	-0.131
-159.750	-89.445	0.244	0.071
-158.735	274.641	0.027	0.047
-157.720	-200.000	0.057	0.312
-156.706	-200.000	0.014	0.260
-155.691	-200.000	0.053	-0.382
-154.677	2.894	0.166	0.120
-153.662	8.957	-0.042	-0.031
-152.647	-130.009	-0.224	-0.031
-151.633	-200.000	-0.010	-0.078
-150.618	800.000	-0.023	-0.093
-149.604	-200.000	0.040	-0.180
-148.589	600.068	0.054	0.133
-147.574	-77.371	-0.250	-0.087
-146.560	93.690	0.102	-0.115
-145.545	225.382	-0.169	-0.273
-144.531	-74.651	-0.202	0.072
-143.516	587.155	0.126	0.309
-142.502	465.352	-0.075	0.167
-141.487	-200.000	0.049	0.225
-140.472	152.173	0.187	0.254
-139.458	-122.759	0.177	0.028
-138.443	793.841	-0.054	0.147
-137.429	800.000	-0.066	-0.191
-136.414	-21.433	-0.323	0.196
-135.399	-99.548	0.163	-0.041
-134.385	-71.963	-0.206	-0.076
-133.370	-132.600	-0.080	-0.010
-132.356	38.649	-0.086	-0.076
-131.341	-83.576	0.040	0.013
-130.326	-25.196	0.204	0.120
-129.312	-52.759	-0.309	0.142
-128.297	-27.531	0.186	0.107
-127.283	433.766	0.066	0.142
-126.268	146.929	0.224	0.300
-125.253	93.381	-0.421	-0.474
-124.239	-200.000	-0.019	-0.139
-123.224	518.609	0.021	-0.050
-122.210	-200.000	-0.023	0.142
-121.195	63.649	-0.130	0.130
-120.180	-200.000	0.014	0.159
-119.166	-86.110	-0.074	0.023
-118.151	22.046	0.330	0.268
-117.137	800.000	-0.149	0.441
-116.122	-200.000	0.019	0.201
-115.107	664.235	-0.095	-0.243
-114.093	-200.000	-0.020	-0.108
-113.078	-137.220	-0.123	-0.014
-112.064	176.655	0.220	0.318
-111.049	130.066	-0.144	-0.183
-110.034	-200.000	-0.035	-0.291
-109.020	-200.000	0.011	-0.325
-108.005	32.389	0.198	0.170
-106.991	-78.232	-0.155	0.053
-105.976	-131.597	-0.242	0.032
-104.962	462.368	0.093	0.205
-103.947	-92.160	0.185	0.052
-102.932	198.822	-0.132	-0.201
-101.918	-200.000	-0.007	-0.406
-100.903	71.301	-0.086	-0.089
-99.889	-2.390	0.225	-0.157
-98.874	-165.931	0.071	0.003
-97.859	800.000	0.036	0.141
-96.845	141.451	0.042	-0.055
-95.830	360.080	-0.058	-0.115
-94.816	124.253	0.227	-0.284
-93.801	58.140	0.056	0.054
-92.786	61.517	-0.100	-0.099
-91.772	148.062	-0.261	-0.350
-90.757	-135.153	-0.162	0.019
-89.743	-104.231	-0.208	0.048
-88.728	56.884	-0.070	0.068
-87.713	-15.537	-0.156	-0.099
-86.699	-67.934	-0.202	0.078
-85.684	800.000	-0.074	-0.228
-84.670	-200.000	0.006	-0.221
-83.655	531.134	0.231	-0.542
-82.640	800.000	0.080	-0.285
-81.626	772.814	-0.055	-0.149
-80.611	172.546	0.045	-0.065
-79.597	-200.000	-0.033	0.219
-78.582	-51.308	-0.073	0.034
-77.567	-81.597	-0.141	-0.046
-76.553	404.759	-0.121	0.253
-75.538	-20.133	0.116	0.071
-74.524	-42.557	-0.087	-0.044
-73.509	56.248	-0.271	0.261
-72.494	-76.281	-0.276	0.097
-71.480	-200.000	0.029	0.217
-70.465	-149.587	0.134	-0.010
-69.451	460.800	0.202	-0.447
-68.436	141.649	-0.013	-0.017
-67.422	-200.000	-0.031	-0.238
-66.407	102.942	0.077	-0.090
-65.392	14.712	0.282	-0.219
-64.378	489.853	-0.143	-0.325
-63.363	-23.370	-0.142	0.085
-62.349	725.935	-0.071	0.188
-61.334	54.913	-0.992	-0.950
-60.319	20.288	0.456	0.366
-59.305	800.000	-0.223	-0.846
-58.290	156.171	0.634	0.867
-57.276	618.631	0.711	1.772
-56.261	-200.000	92.740	536.926
-55.246	477.812	1417.327	3181.052
-54.232	145.449	2622.981	3483.578
-53.217	111.326	2226.414	2661.506
-52.203	46.809	1667.102	1536.181
-51.188	38.694	1398.364	1237.535
-50.173	35.569	1355.059	1180.002
-49.159	54.925	1401.904	1342.178
-48.144	58.794	1419.686	1383.321
-47.130	39.231	1375.604	1220.530
-46.115	35.514	1357.952	1181.992
-45.100	35.416	1353.058	1177.087
-44.086	35.284	1350.457	1173.969
-43.071	35.154	1348.220	1171.180
-42.057	35.220	1345.903	1169.522
-41.042	35.259	1344.442	1168.445
-40.027	35.101	1342.968	1166.155
-39.013	35.339	1340.955	1165.808
-37.998	35.342	1338.720	1163.839
-36.984	35.323	1337.089	1162.262
-35.969	35.364	1335.202	1160.821
-34.954	35.397	1333.760	1159.721
-33.940	35.461	1332.301	1158.791
-32.925	35.502	1330.907	1157.782
-31.911	35.451	1329.294	1156.024
-30.896	35.562	1327.240	1154.864
-29.881	35.425	1326.850	1153.652
-28.867	35.541	1324.696	1152.429
-27.852	35.612	1323.319	1151.613
-26.838	35.468	1321.985	1149.545
-25.823	35.459	1320.776	1148.394
-24.809	35.417	1319.102	1146.637
-23.794	35.482	1317.578	1145.655
-22.779	35.378	1316.803	1144.316
-21.765	35.404	1315.446	1143.248
-20.750	35.438	1314.111	1142.246
-19.736	35.372	1312.417	1140.334
-18.721	35.264	1311.409	1138.772
-17.706	35.408	1309.993	1138.352
-16.692	35.349	1308.573	1136.724
-15.677	35.340	1307.448	1135.647
-14.663	35.333	1306.553	1134.782
-13.648	35.394	1305.232	1133.953
-12.633	35.334	1304.431	1132.854
-11.619	35.258	1303.353	1131.424
-10.604	35.255	1302.750	1130.843
-9.590	35.258	1301.465	1129.697
-8.575	35.210	1301.022	1128.987
-7.560	35.357	1299.743	1128.699
-6.546	35.297	1298.628	1127.332
-5.531	35.197	1298.201	1126.329
-4.517	35.243	1296.848	1125.382
-3.502	35.415	1295.743	1125.382
-2.487	35.263	1295.419	1124.168
-1.473	35.359	1291.043	1120.884
-0.458	34.419	1276.742	1102.992
0.556	29.741	1257.959	1065.167
1.571	25.464	1262.558	1044.177
2.586	23.882	1276.475	1046.293
3.600	22.663	1265.151	1029.804
4.615	16.630	1188.193	933.885
5.629	5.986	1106.503	814.631
6.644	0.827	1083.815	771.592
7.659	0.353	1081.245	767.284
8.673	0.266	1080.094	765.954
9.688	0.226	1078.747	764.730
10.702	0.424	1077.510	764.791
11.717	6.381	1085.317	800.621
12.731	15.458	1097.579	856.082
13.746	18.196	1100.081	871.931
14.761	17.291	1098.156	865.721
15.775	16.226	1096.328	858.789
16.790	15.149	1094.082	851.479
17.804	14.595	1092.261	847.175
18.819	14.208	1091.111	844.247
19.834	13.830	1090.285	841.614
20.848	13.558	1089.010	839.178
21.863	13.285	1088.549	837.365
22.877	13.130	1087.494	835.695
23.892	13.095	1087.199	835.219
24.907	13.142	1086.237	834.645
25.921	13.073	1085.694	833.805
26.936	13.265	1084.919	834.101
27.950	13.177	1083.975	832.860
28.965	13.318	1082.315	832.220
29.980	13.428	1081.022	831.707
30.994	13.442	1079.899	830.837
32.009	13.571	1079.250	830.912
33.023	13.404	1078.308	829.276
34.038	13.290	1077.197	827.780
35.053	13.384	1076.392	827.558
36.067	13.382	1075.463	826.760
37.082	13.317	1074.504	825.624
38.096	13.369	1074.394	825.727
39.111	13.363	1073.300	824.781
40.126	13.337	1071.818	823.444
41.140	13.235	1070.591	821.918
42.155	13.248	1069.227	820.863
43.169	13.217	1067.887	819.608
44.184	13.161	1067.278	818.791
45.199	13.218	1065.969	817.998
46.213	13.202	1065.735	817.666
47.228	13.210	1064.096	816.375
48.242	13.202	1062.838	815.298
49.257	13.276	1061.875	814.854
50.271	13.298	1061.407	814.531
51.286	13.341	1060.427	813.916
52.301	13.249	1059.791	812.903
53.315	13.253	1058.241	811.665
54.330	13.222	1057.197	810.640
55.344	13.230	1056.476	810.055
56.359	13.340	1055.280	809.605
57.374	13.314	1054.801	809.037
58.388	13.171	1053.720	807.439
59.403	13.152	1053.181	806.861
60.417	13.269	1051.945	806.414
61.432	13.121	1051.256	805.092
62.447	13.107	1050.419	804.310
63.461	13.077	1049.554	803.430
64.476	13.129	1048.717	802.970
65.490	13.058	1048.402	802.316
66.505	13.167	1046.830	801.572
67.520	13.168	1046.539	801.283
68.534	13.243	1045.440	800.732
69.549	13.065	1045.214	799.627
70.563	13.132	1044.128	799.048
71.578	13.101	1043.297	798.194
72.593	13.173	1042.377	797.768
73.607	13.052	1041.759	796.637
74.622	12.988	1041.377	795.966
75.636	13.026	1040.532	795.432
76.651	13.128	1039.622	795.160
77.666	13.079	1039.065	794.426
78.680	13.085	1038.511	793.964
79.695	13.058	1037.942	793.328
80.709	13.068	1037.465	792.939
81.724	13.210	1035.988	792.423
82.739	13.224	1035.585	792.111
83.753	13.216	1035.005	791.556
84.768	13.383	1033.702	791.292
85.782	13.503	1032.619	790.965
86.797	13.324	1032.016	789.578
87.812	13.360	1031.223	789.072
88.826	13.389	1030.060	788.252
89.841	13.318	1029.341	787.295
90.855	13.328	1028.398	786.553
91.870	13.455	1027.643	786.506
92.884	13.432	1026.517	785.468
93.899	13.419	1025.599	784.635
94.914	13.391	1025.125	784.067
95.928	13.422	1024.030	783.309
96.943	13.341	1023.588	782.517
97.957	13.277	1022.465	781.286
98.972	13.328	1021.663	780.846
99.987	13.464	1020.013	780.159
101.001	13.430	1019.382	779.445
102.016	13.351	1018.780	778.542
103.030	13.499	1017.804	778.424
104.045	13.402	1017.141	777.394
105.060	13.358	1016.229	776.422
106.074	13.274	1015.289	775.240
107.089	13.223	1014.285	774.169
108.103	13.257	1013.367	773.556
109.118	13.247	1012.394	772.699
110.133	13.308	1011.497	772.232
111.147	13.251	1010.613	771.219
112.162	13.243	1009.968	770.623
113.176	13.212	1009.171	769.802
114.191	13.339	1008.457	769.783
115.206	13.264	1007.820	768.878
116.220	13.087	1007.208	767.521
117.235	13.271	1005.534	767.030
118.249	13.344	1005.077	766.955
119.264	13.375	1004.046	766.242
120.279	13.213	1003.660	765.130
121.293	13.238	1002.432	764.243
122.308	13.125	1001.733	763.119
123.322	13.212	1000.369	762.416
124.337	13.378	999.322	762.315
125.352	13.324	998.336	761.244
126.366	13.248	997.555	760.235
127.381	13.223	996.361	759.143
128.395	13.352	995.135	758.732
129.410	13.353	994.231	757.978
130.424	13.338	993.372	757.191
131.439	13.277	992.874	756.461
132.454	13.359	992.114	756.192
133.468	13.462	991.255	755.938
134.483	13.341	990.725	754.918
135.497	13.285	989.680	753.801
136.512	13.307	988.844	753.194
137.527	13.467	987.575	752.891
138.541	13.457	987.339	752.600
139.556	13.408	986.811	751.905
140.570	13.441	985.719	751.156
141.585	13.604	984.721	751.069
142.600	13.616	983.733	750.305
143.614	13.528	983.369	749.561
144.629	13.467	982.404	748.485
145.643	13.489	981.498	747.828
146.658	13.362	980.543	746.460
147.673	13.426	979.410	745.819
148.687	13.523	978.667	745.626
149.702	13.429	977.705	744.403
150.716	13.384	977.019	743.611
151.731	13.448	976.169	743.185
152.746	13.381	975.397	742.234
153.760	13.447	974.642	741.888
154.775	13.565	974.119	741.955
155.789	13.479	973.650	741.148
156.804	13.600	972.617	740.837
157.819	13.479	972.302	739.988
158.833	13.608	971.360	739.782
159.848	13.721	970.468	739.540
160.862	13.728	969.624	738.862
161.877	13.635	968.686	737.672
162.892	13.547	967.860	736.587
163.906	13.425	966.775	735.153
164.921	13.645	966.080	735.537
165.935	13.748	964.871	735.004
166.950	13.640	964.516	734.193
167.964	13.647	963.495	733.380
168.979	13.667	962.602	732.725
169.994	13.569	962.043	731.799
171.008	13.608	961.158	731.237
172.023	13.869	960.012	731.450
173.037	13.718	959.472	730.307
174.052	13.820	959.080	730.392
175.067	13.594	958.283	728.727
176.081	13.629	957.753	728.416
177.096	13.605	956.973	727.652
178.110	13.680	956.507	727.560
179.125	13.606	956.208	726.947
180.140	13.641	955.488	726.489
181.154	13.764	954.697	726.362
182.169	13.825	954.158	726.154
183.183	13.820	954.003	725.948
184.198	13.843	952.683	724.979
185.213	13.630	952.514	723.859
186.227	13.921	951.404	724.218
187.242	13.972	950.990	724.061
188.256	14.049	949.846	723.463
189.271	13.911	949.155	722.272
190.286	13.788	948.246	720.982
191.300	13.677	947.862	720.144
192.315	13.699	947.037	719.550
193.329	13.793	946.329	719.354
194.344	13.754	945.934	718.823
195.359	13.915	945.483	719.112
196.373	13.993	944.461	718.610
197.388	13.976	944.017	718.135
198.402	13.967	943.722	717.807
199.417	14.068	942.777	717.462
200.432	14.060	942.599	717.228
201.446	14.197	941.505	716.921
202.461	14.175	941.602	716.840
203.475	14.133	940.555	715.798
204.490	14.169	940.087	715.531
205.504	14.063	939.149	714.299
206.519	14.159	938.393	714.073
207.534	14.164	937.642	713.461
208.548	14.117	937.059	712.753
209.563	14.248	936.117	712.531
210.577	14.170	935.896	711.966
211.592	14.275	934.985	711.661
212.607	14.215	933.874	710.495
213.621	14.216	933.161	709.896
214.636	14.280	932.581	709.662
215.650	14.508	931.614	709.835
216.665	14.406	930.903	708.796
217.680	14.365	930.759	708.452
218.694	14.298	929.577	707.201
219.709	14.486	929.077	707.560
220.723	14.390	928.867	706.927
221.738	14.418	927.894	706.246
222.753	14.401	927.251	705.620
223.767	14.461	926.393	705.158
224.782	14.481	925.687	704.644
225.796	14.491	925.447	704.438
226.811	14.447	924.948	703.813
227.826	14.460	923.943	703.039
228.840	14.497	923.381	702.705
229.855	14.462	922.580	701.888
230.869	14.354	921.788	700.767
231.884	14.442	921.296	700.703
232.899	14.458	919.972	699.699
233.913	14.413	919.508	699.096
234.928	14.443	919.038	698.803
235.942	14.526	918.408	698.612
236.957	14.372	917.928	697.538
237.972	14.516	917.158	697.493
238.986	14.432	916.750	696.772
240.001	14.416	915.940	696.029
241.015	14.392	915.309	695.386
242.030	14.575	914.527	695.494
243.045	14.574	913.947	694.988
244.059	14.544	913.335	694.336
245.074	14.698	912.393	694.196
246.088	14.695	911.910	693.757
247.103	14.634	911.293	692.970
248.117	14.789	910.641	693.057
249.132	14.812	909.910	692.537
250.147	14.784	909.544	692.080
251.161	14.825	908.781	691.606
252.176	14.818	908.375	691.209
253.190	14.925	907.352	690.811
254.205	14.964	907.297	690.867
255.220	14.997	905.846	689.838
256.234	15.059	905.333	689.642
257.249	15.079	904.382	688.941
258.263	14.986	903.915	688.142
259.278	15.128	903.428	688.292
260.293	15.041	902.966	687.522
261.307	15.020	902.140	686.745
262.322	15.135	901.590	686.739
263.336	15.058	900.598	685.608
264.351	15.250	899.652	685.610
265.366	15.183	899.275	684.990
266.380	15.164	898.507	684.265
267.395	15.088	897.983	683.494
268.409	15.163	897.027	683.014
269.424	15.161	896.537	682.572
270.439	15.132	895.757	681.800
271.453	15.119	895.158	681.229
272.468	15.052	894.793	680.619
273.482	15.191	894.386	680.816
274.497	15.129	893.611	679.914
275.512	15.161	893.226	679.693
276.526	15.375	892.405	679.873
277.541	15.222	891.920	678.823
278.555	15.320	891.233	678.638
279.570	15.332	890.973	678.427
280.585	15.372	889.572	677.463
281.599	15.448	888.616	676.980
282.614	15.387	888.463	676.559
283.628	15.233	887.881	675.433
284.643	15.305	887.182	675.134
285.657	15.471	886.152	674.956
286.672	15.457	885.865	674.621
287.687	15.409	885.236	673.890
288.701	15.526	884.543	673.772
289.716	15.601	883.613	673.305
290.730	15.434	883.812	672.728
291.745	15.535	882.748	672.264
292.760	15.649	881.920	672.030
293.774	15.654	881.476	671.651
294.789	15.587	880.904	670.890
295.803	15.556	880.181	670.154
296.818	15.503	879.572	669.422
297.833	15.565	879.169	669.301
298.847	15.579	878.454	668.756
299.862	15.591	877.519	668.030
300.876	15.612	877.205	667.818
301.891	15.578	876.610	667.170
302.906	15.606	875.860	666.651
303.920	15.810	875.707	667.285
304.935	15.707	874.961	666.247
305.949	15.696	874.502	665.795
306.964	15.759	873.577	665.284
307.979	15.788	872.858	664.790
308.993	15.786	872.189	664.216
310.008	15.988	871.547	664.464
311.022	15.783	871.694	663.708
312.037	15.757	871.154	663.135
313.052	15.819	869.851	662.330
314.066	15.653	869.632	661.450
315.081	15.848	868.601	661.376
316.095	15.773	867.900	660.488
317.110	15.844	867.694	660.552
318.125	15.906	866.998	660.206
319.139	15.830	866.698	659.620
320.154	15.809	866.357	659.222
321.168	15.976	865.735	659.342
322.183	15.770	865.144	658.029
323.197	16.026	864.237	658.281
324.212	16.020	863.813	657.877
325.227	16.045	862.645	657.024
326.241	15.843	862.759	656.268
327.256	16.014	862.097	656.370
328.270	16.015	861.577	655.921
329.285	15.817	861.366	654.933
330.300	15.856	860.687	654.509
331.314	15.921	860.101	654.260
332.329	16.059	859.398	654.202
333.343	16.052	859.028	653.834
334.358	16.175	858.484	653.839
335.373	16.001	858.087	652.807
336.387	16.117	857.498	652.750
337.402	16.210	857.463	653.026
338.416	16.300	856.972	652.939
339.431	16.247	856.877	652.606
340.446	16.399	856.021	652.482
341.460	16.218	856.035	651.739
342.475	16.148	855.769	651.205
343.489	16.239	855.397	651.216
344.504	16.299	854.417	650.643
345.519	16.419	853.875	650.635
346.533	16.505	853.191	650.388
347.548	16.335	853.035	649.556
348.562	16.286	852.484	648.893
349.577	16.274	851.520	648.055
350.592	16.341	850.906	647.788
351.606	16.267	850.498	647.134
352.621	16.336	849.650	646.699
353.635	16.326	849.220	646.276
354.650	16.392	848.420	645.860
355.665	16.281	847.896	644.980
356.679	16.405	847.056	644.758
357.694	16.495	846.686	644.765
358.708	16.505	845.791	644.064
359.723	16.397	845.387	643.286
360.738	16.564	844.524	643.207
361.752	16.450	844.328	642.568
362.767	16.554	843.572	642.331
363.781	16.570	843.123	641.994
364.796	16.581	842.630	641.601
365.810	16.731	842.098	641.709
366.825	16.714	842.016	641.525
367.840	16.605	841.595	640.736
368.854	16.604	840.894	640.142
369.869	16.643	840.383	639.842
370.883	16.769	839.908	639.899
371.898	16.813	839.515	639.711
372.913	16.742	839.126	639.091
373.927	16.925	838.415	639.183
374.942	16.705	838.370	638.261
375.956	16.926	837.940	638.709
376.971	16.898	837.168	637.959
377.986	16.973	836.598	637.751
379.000	16.919	836.186	637.177
380.015	17.079	835.681	637.337
381.029	17.133	835.291	637.187
382.044	17.076	834.724	636.484
383.059	17.207	833.796	636.211
384.073	16.930	834.030	635.294
385.088	16.919	833.128	634.509
386.102	17.055	832.104	634.183
387.117	16.987	831.639	633.519
388.132	16.866	831.130	632.623
389.146	17.008	830.661	632.740
390.161	17.126	830.236	632.798
391.175	17.085	829.713	632.192
392.190	17.050	829.348	631.728
393.205	17.114	828.692	631.410
394.219	16.991	828.429	630.697
395.234	16.952	827.960	630.139
396.248	17.054	827.400	630.034
397.263	16.969	826.988	629.353
398.278	17.052	826.574	629.289
399.292	16.995	826.267	628.788
400.307	16.923	826.225	628.432
401.321	17.156	825.289	628.526
402.336	17.183	824.588	628.038
403.350	17.173	823.959	627.465
404.365	17.246	823.495	627.326
405.380	17.365	823.014	627.344
406.394	17.237	822.793	626.649
407.409	17.263	822.387	626.379
408.423	17.368	822.567	626.846
409.438	17.287	822.242	626.248
410.453	17.522	821.092	626.179
411.467	17.420	820.672	625.431
412.482	17.392	820.525	625.159
413.496	17.557	819.883	625.221
414.511	17.460	819.754	624.712
415.526	17.562	818.904	624.380
416.540	17.658	818.192	624.135
417.555	17.487	817.997	623.306
418.569	17.584	817.485	623.214
419.584	17.501	817.480	622.853
420.599	17.594	816.957	622.739
421.613	101.889	1283.365	1435.544
422.628	87.857	1351.315	1435.655
