DTS Sentinel unit serial number:	SN413079Multiplexer serial number:	ORYXHardware model number:	OX4-SRSoftware version number:	ORYX F/W v4.00 Oryx Data Collector v3.7.2.0data status	okinstallation	princeton_trtdifferential loss correction	single-endedforward channel	channel 1reverse channel	N/Adate	2019/09/16time	02:46:35forward acquisition time	60.00reverse acquisition time	0.00gamma	496.2192k internal	0.2331k external	0.2331temperature offset calibration	0.9980default loss term (dB/km)	0.3790temperature slope calibration	1.0000multiplexer offset coefficient	1.0000multiplexer slope coefficient	1.0000fibre end	0.00T internal ref (°C)	27.75T ext. ref 1 (°C)	10.34T ext. ref 2 (°C)	22.31length (m)	temperature (°C)	Stokes	anti-Stokes-747.200	93.473	-0.440	0.501
-746.185	20.746	0.358	0.292
-745.171	120.012	0.101	0.126
-744.156	800.000	0.103	0.320
-743.142	-82.236	-0.145	-0.047
-742.127	122.947	0.055	0.070
-741.112	-200.000	0.013	-0.216
-740.098	800.000	-0.058	0.180
-739.083	-94.789	0.185	0.051
-738.069	-112.287	-0.139	0.028
-737.054	250.315	-0.078	-0.133
-736.039	-138.560	0.126	0.014
-735.025	300.027	0.075	0.139
-734.010	-141.415	-0.383	-0.039
-732.996	-134.733	-0.414	-0.051
-731.981	29.046	0.307	0.262
-730.966	52.249	0.128	0.122
-729.952	27.381	-0.028	-0.023
-728.937	303.095	0.113	-0.211
-727.923	58.649	-0.197	0.195
-726.908	-41.709	-0.120	0.062
-725.894	800.000	0.088	-0.247
-724.879	132.553	-0.283	-0.367
-723.864	-66.082	-0.513	0.206
-722.850	430.730	0.108	0.234
-721.835	-200.000	-0.037	0.167
-720.821	-200.000	0.022	-0.282
-719.806	-200.000	0.001	-0.063
-718.791	-19.132	0.069	0.043
-717.777	-25.123	-0.270	-0.161
-716.762	-146.470	-0.151	-0.013
-715.748	800.000	-0.101	0.339
-714.733	87.072	-0.096	-0.107
-713.718	416.774	-0.126	-0.269
-712.704	112.938	-0.014	-0.017
-711.689	153.813	-0.065	0.090
-710.675	-46.782	-0.077	0.038
-709.660	800.000	0.096	-0.328
-708.645	-200.000	-0.016	-0.568
-707.631	81.201	-0.084	-0.091
-706.616	-200.000	-0.037	-0.180
-705.602	-178.166	-0.152	-0.004
-704.587	-200.000	0.043	-0.330
-703.572	479.887	0.003	-0.007
-702.558	-51.004	0.033	0.015
-701.543	-4.671	-0.128	0.089
-700.529	-178.043	0.233	-0.006
-699.514	800.000	0.122	0.441
-698.499	-64.294	-0.113	0.046
-697.485	23.805	0.193	0.159
-696.470	-200.000	-0.037	0.171
-695.456	624.649	0.134	0.340
-694.441	560.381	0.068	0.164
-693.426	147.307	-0.209	-0.283
-692.412	-19.308	-0.293	-0.183
-691.397	153.516	0.054	0.074
-690.383	87.249	-0.229	0.255
-689.368	164.022	-0.099	0.140
-688.354	376.805	-0.194	0.398
-687.339	301.062	-0.167	0.310
-686.324	-81.745	-0.172	-0.057
-685.310	-40.403	-0.369	0.192
-684.295	162.030	0.169	-0.237
-683.281	262.007	-0.079	0.137
-682.266	576.702	0.152	-0.373
-681.251	124.099	0.105	-0.133
-680.237	242.273	-0.102	0.172
-679.222	-200.000	-0.028	-0.153
-678.208	230.304	-0.062	-0.101
-677.193	-200.000	0.004	-0.455
-676.178	-82.939	-0.213	0.069
-675.164	-200.000	-0.003	0.037
-674.149	-40.339	-0.093	-0.048
-673.135	-200.000	-0.021	-0.169
-672.120	62.149	0.129	0.129
-671.105	-169.586	0.225	-0.008
-670.091	108.233	-0.120	-0.144
-669.076	-84.268	0.298	-0.095
-668.062	-124.974	0.114	0.018
-667.047	183.757	0.153	0.227
-666.032	16.230	0.190	-0.150
-665.018	-109.057	-0.156	-0.033
-664.003	-92.568	0.194	0.055
-662.989	45.478	-0.225	-0.208
-661.974	-46.470	0.399	-0.197
-660.959	-200.000	0.012	0.091
-659.945	800.000	-0.080	0.295
-658.930	0.745	-0.224	0.161
-657.916	-200.000	-0.003	-0.025
-656.901	-172.011	0.140	0.005
-655.886	-45.004	-0.044	0.022
-654.872	-24.922	-0.158	-0.094
-653.857	-98.431	-0.140	-0.036
-652.843	800.000	0.109	-0.400
-651.828	-6.008	-0.022	-0.015
-650.814	235.027	-0.064	-0.106
-649.799	337.523	0.087	-0.170
-648.784	-43.726	-0.446	0.225
-647.770	98.589	0.244	0.282
-646.755	35.187	-0.135	0.119
-645.741	-114.967	-0.189	-0.036
-644.726	-29.905	0.279	-0.159
-643.711	68.230	-0.211	0.216
-642.697	141.882	0.084	-0.111
-641.682	-112.727	-0.201	-0.040
-640.668	51.786	-0.313	0.298
-639.653	-200.000	0.026	0.256
-638.638	-71.265	-0.201	-0.076
-637.624	52.326	-0.166	0.158
-636.609	91.591	-0.093	-0.105
-635.595	-200.000	-0.014	-0.234
-634.580	62.491	0.087	0.087
-633.565	43.895	-0.074	-0.068
-632.551	438.933	0.175	-0.383
-631.536	-96.687	-0.229	-0.060
-630.522	-73.479	-0.212	-0.077
-629.507	-200.000	0.029	-0.188
-628.492	800.000	0.186	-0.513
-627.478	-200.000	0.013	-0.079
-626.463	-200.000	-0.016	-0.122
-625.449	-166.695	0.545	-0.023
-624.434	-111.389	0.208	0.042
-623.419	-16.383	0.242	0.154
-622.405	134.442	0.114	-0.148
-621.390	102.979	0.193	-0.227
-620.376	800.000	-0.037	-0.118
-619.361	-61.164	-0.359	-0.152
-618.346	-200.000	-0.015	-0.159
-617.332	351.466	-0.038	0.076
-616.317	-16.071	-0.115	0.073
-615.303	227.980	-0.111	0.181
-614.288	550.280	-0.077	-0.186
-613.273	62.788	0.083	-0.083
-612.259	330.948	-0.049	0.094
-611.244	-200.000	0.036	0.201
-610.230	81.293	0.139	0.150
-609.215	-143.803	0.244	0.023
-608.201	800.000	0.145	0.502
-607.186	92.793	-0.227	0.256
-606.171	-200.000	-0.020	-0.125
-605.157	-132.336	0.210	0.027
-604.142	-109.500	0.054	0.011
-603.128	-200.000	0.005	0.172
-602.113	672.067	0.094	-0.245
-601.098	200.469	0.236	-0.363
-600.084	40.157	-0.130	-0.117
-599.069	-192.281	-0.259	0.002
-598.055	46.541	-0.196	0.182
-597.040	332.487	-0.054	-0.104
-596.025	108.102	0.286	-0.341
-595.011	24.321	-0.032	0.026
-593.996	-83.634	-0.343	-0.110
-592.982	117.585	0.108	0.133
-591.967	640.089	-0.083	0.212
-590.952	-49.014	-0.359	0.172
-589.938	-200.000	-0.018	0.087
-588.923	384.266	-0.077	-0.159
-587.909	128.374	0.165	0.210
-586.894	14.294	0.154	0.120
-585.879	38.957	-0.080	0.072
-584.865	333.857	-0.104	-0.202
-583.850	-54.008	0.107	-0.049
-582.836	115.636	0.163	-0.199
-581.821	-130.215	-0.242	0.033
-580.806	65.317	-0.052	0.053
-579.792	-58.842	0.313	-0.136
-578.777	-57.741	0.123	0.054
-577.763	97.159	-0.204	0.234
-576.748	69.305	0.232	0.239
-575.733	-145.039	0.189	0.017
-574.719	-70.431	-0.182	-0.069
-573.704	-200.000	-0.002	-0.134
-572.690	-200.000	0.010	-0.184
-571.675	92.668	-0.155	0.175
-570.661	-89.728	-0.143	0.042
-569.646	22.233	0.077	0.063
-568.631	-200.000	0.010	-0.143
-567.617	257.339	-0.109	-0.188
-566.602	800.000	0.034	0.101
-565.588	-200.000	-0.008	-0.105
-564.573	-56.254	0.211	-0.094
-563.558	19.322	0.186	-0.150
-562.544	-107.467	0.052	-0.011
-561.529	-41.450	0.163	-0.084
-560.515	204.558	-0.276	-0.428
-559.500	102.016	0.184	-0.214
-558.485	254.363	-0.184	-0.314
-557.471	-22.615	-0.415	-0.250
-556.456	77.756	-0.207	-0.220
-555.442	70.028	0.106	-0.109
-554.427	92.211	-0.242	-0.273
-553.412	93.862	0.074	0.083
-552.398	-84.393	-0.405	-0.128
-551.383	-171.557	0.243	-0.008
-550.369	-185.645	-0.162	-0.002
-549.354	-128.180	-0.288	-0.041
-548.339	-1.637	-0.285	0.201
-547.325	-64.010	0.136	0.055
-546.310	-72.081	-0.159	-0.059
-545.296	53.159	-0.312	-0.299
-544.281	800.000	0.029	0.119
-543.266	-40.243	-0.179	-0.093
-542.252	-153.016	-0.301	-0.021
-541.237	-112.485	-0.196	0.039
-540.223	-137.347	0.204	-0.023
-539.208	36.589	-0.073	0.064
-538.193	508.621	0.072	0.168
-537.179	-59.665	-0.248	-0.106
-536.164	142.476	0.120	-0.159
-535.150	9.108	-0.238	-0.180
-534.135	64.545	-0.143	0.143
-533.121	282.797	0.139	-0.249
-532.106	-23.568	0.109	0.065
-531.091	800.000	-0.084	0.232
-530.077	16.395	-0.111	-0.087
-529.062	-200.000	-0.020	0.095
-528.048	-145.224	0.119	-0.011
-527.033	-81.283	-0.260	-0.086
-526.018	-142.982	0.349	0.034
-525.004	109.864	0.161	0.193
-523.989	-200.000	-0.050	0.259
-522.975	800.000	0.036	-0.108
-521.960	800.000	0.040	-0.116
-520.945	10.499	-0.110	0.084
-519.931	-200.000	0.033	-0.212
-518.916	-37.022	0.323	-0.173
-517.902	-200.000	0.008	0.087
-516.887	-154.457	0.402	0.027
-515.872	-37.813	-0.226	-0.120
-514.858	-65.504	0.282	0.113
-513.843	-147.139	-0.234	0.020
-512.829	297.873	0.060	-0.110
-511.814	-79.294	-0.192	-0.065
-510.799	-200.000	-0.020	-0.115
-509.785	278.007	0.131	-0.233
-508.770	152.042	-0.043	0.059
-507.756	111.378	0.055	-0.066
-506.741	-120.434	0.185	0.031
-505.726	-116.409	-0.109	0.020
-504.712	-40.727	0.114	0.059
-503.697	-101.418	-0.402	-0.098
-502.683	-27.881	-0.056	0.032
-501.668	-63.664	0.259	0.106
-500.653	-93.454	-0.272	-0.075
-499.639	-200.000	-0.005	0.111
-498.624	222.451	-0.130	-0.208
-497.610	770.400	0.079	-0.215
-496.595	-101.140	0.148	0.036
-495.581	-68.117	-0.107	0.042
-494.566	-200.000	-0.026	-0.222
-493.551	-200.000	-0.007	-0.052
-492.537	-33.360	0.516	-0.285
-491.522	-200.000	0.059	0.373
-490.508	279.740	-0.127	0.227
-489.493	-162.330	-0.403	0.020
-488.478	800.000	0.042	-0.132
-487.464	34.585	-0.164	0.143
-486.449	7.550	0.215	0.160
-485.435	-86.546	-0.325	-0.099
-484.420	4.282	0.144	0.105
-483.405	-200.000	-0.017	0.190
-482.391	151.883	0.046	0.062
-481.376	800.000	0.116	0.379
-480.362	-54.387	0.065	-0.030
-479.347	-200.000	-0.066	0.325
-478.332	99.612	0.138	0.160
-477.318	295.270	-0.053	0.097
-476.303	96.126	0.073	0.083
-475.289	-153.121	-0.222	-0.016
-474.274	-142.934	0.246	-0.024
-473.259	-1.689	-0.217	0.152
-472.245	1.850	0.162	0.116
-471.230	-94.563	-0.184	-0.050
-470.216	463.136	-0.077	0.172
-469.201	800.000	0.063	0.230
-468.186	-144.723	-0.113	0.010
-467.172	281.537	-0.125	-0.223
-466.157	702.899	-0.064	0.168
-465.143	177.692	0.109	0.158
-464.128	-1.684	0.319	-0.224
-463.113	-25.304	0.183	-0.108
-462.099	-8.824	0.042	-0.028
-461.084	44.808	0.279	-0.256
-460.070	389.533	-0.092	0.190
-459.055	-63.374	0.297	0.122
-458.040	800.000	0.036	0.125
-457.026	-22.538	0.124	-0.075
-456.011	800.000	-0.038	0.154
-454.997	-57.556	0.272	0.119
-453.982	139.537	-0.059	0.077
-452.968	-58.715	0.139	0.060
-451.953	257.311	-0.115	0.196
-450.938	-136.873	0.264	0.030
-449.924	-156.106	-0.283	0.018
-448.909	-200.000	-0.039	-0.452
-447.895	-63.929	-0.149	-0.061
-446.880	180.935	0.100	-0.146
-445.865	-66.450	0.137	0.054
-444.851	800.000	0.058	-0.230
-443.836	-145.679	-0.201	-0.018
-442.822	800.000	-0.089	0.309
-441.807	-200.000	0.241	0.000
-440.792	-115.481	-0.215	-0.040
-439.778	-36.597	-0.024	-0.013
-438.763	41.060	0.295	0.265
-437.749	49.770	-0.030	-0.028
-436.734	-200.000	0.101	-0.457
-435.719	109.889	0.073	0.087
-434.705	-200.000	0.021	0.504
-433.690	25.812	-0.091	-0.075
-432.676	112.924	-0.092	-0.111
-431.661	-200.000	0.027	-0.219
-430.646	-92.144	0.173	0.048
-429.632	151.132	0.068	-0.092
-428.617	800.000	-0.021	-0.062
-427.603	-100.291	-0.511	0.126
-426.588	-87.970	0.153	-0.046
-425.573	370.247	-0.072	0.145
-424.559	-200.000	0.032	-0.215
-423.544	268.717	-0.237	0.414
-422.530	800.000	0.011	0.044
-421.515	83.406	0.220	0.238
-420.500	-109.171	0.059	0.012
-419.486	-112.651	-0.375	-0.074
-418.471	458.716	-0.043	-0.094
-417.457	800.000	0.082	0.238
-416.442	-133.996	0.406	-0.050
-415.428	126.688	0.077	0.097
-414.413	10.974	-0.158	-0.120
-413.398	-10.359	0.062	0.041
-412.384	-200.000	-0.009	0.079
-411.369	-126.741	0.044	0.006
-410.355	-200.000	-0.032	0.155
-409.340	800.000	-0.092	-0.297
-408.325	66.851	-0.404	-0.408
-407.311	-117.160	0.487	0.088
-406.296	-174.461	-0.112	0.003
-405.282	177.534	0.133	0.192
-404.267	-200.000	0.005	0.124
-403.252	534.051	0.060	-0.141
-402.238	800.000	0.090	0.316
-401.223	800.000	-0.029	-0.088
-400.209	-26.870	-0.343	0.199
-399.194	210.878	-0.120	-0.188
-398.179	-10.118	0.184	0.122
-397.165	-170.778	0.386	0.013
-396.150	-25.965	-0.175	0.102
-395.136	527.766	-0.087	-0.204
-394.121	-3.369	0.187	-0.129
-393.106	57.900	-0.163	0.159
-392.092	800.000	0.109	-0.353
-391.077	557.841	-0.086	-0.205
-390.063	-200.000	-0.046	-0.350
-389.048	688.750	0.072	-0.186
-388.033	-102.439	0.248	0.059
-387.019	425.901	0.113	-0.241
-386.004	-70.695	-0.515	-0.193
-384.990	-200.000	-0.057	0.290
-383.975	252.005	-0.209	-0.353
-382.960	800.000	0.116	-0.344
-381.946	-175.099	0.337	0.009
-380.931	-87.758	0.679	-0.203
-379.917	34.942	0.156	0.135
-378.902	-200.000	-0.023	-0.175
-377.888	-53.235	-0.174	-0.079
-376.873	-22.304	0.285	0.172
-375.858	-200.000	0.021	-0.191
-374.844	-14.413	-0.116	0.074
-373.829	-46.385	0.355	-0.173
-372.815	46.022	-0.161	-0.148
-371.800	-132.693	0.109	0.014
-370.785	-198.546	-0.126	0.001
-369.771	-200.000	-0.004	-0.364
-368.756	-100.882	0.259	0.063
-367.742	-200.000	0.026	0.314
-366.727	-89.887	0.049	-0.014
-365.712	63.528	-0.064	-0.063
-364.698	800.000	0.051	-0.147
-363.683	-101.411	-0.424	-0.102
-362.669	-59.404	-0.166	0.071
-361.654	307.508	-0.171	0.316
-360.639	-11.611	0.127	0.083
-359.625	-200.000	-0.031	0.178
-358.610	-14.193	-0.234	-0.149
-357.596	-101.533	-0.284	0.069
-356.581	-78.503	0.274	-0.093
-355.566	-200.000	-0.069	0.314
-354.552	-76.915	-0.333	0.115
-353.537	800.000	0.035	-0.101
-352.523	800.000	-0.057	0.237
-351.508	392.265	0.036	-0.073
-350.493	73.033	-0.290	0.300
-349.479	26.801	-0.187	0.155
-348.464	504.054	-0.031	0.072
-347.450	-1.193	0.223	0.156
-346.435	350.052	-0.072	0.141
-345.420	-126.616	0.182	-0.027
-344.406	-128.384	0.394	0.055
-343.391	0.073	0.161	0.114
-342.377	-137.379	-0.236	0.027
-341.362	-5.016	-0.257	0.176
-340.348	-60.800	-0.239	-0.100
-339.333	205.515	-0.097	0.150
-338.318	27.512	-0.083	0.069
-337.304	800.000	-0.080	0.281
-336.289	-3.674	-0.129	0.089
-335.275	-129.466	0.068	0.009
-334.260	-5.651	0.169	0.115
-333.245	-105.975	0.205	-0.046
-332.231	616.314	-0.137	0.340
-331.216	54.585	-0.344	-0.329
-330.202	29.965	-0.222	-0.187
-329.187	-200.000	-0.038	-0.171
-328.172	-200.000	-0.024	0.277
-327.158	13.138	0.104	0.079
-326.143	800.000	-0.053	0.174
-325.129	305.090	-0.033	0.060
-324.114	114.399	0.124	-0.149
-323.099	-37.256	0.325	0.172
-322.085	-84.838	0.329	0.102
-321.070	14.602	0.253	0.195
-320.056	800.000	-0.076	0.290
-319.041	-81.039	0.247	-0.081
-318.026	-200.000	-0.016	0.252
-317.012	231.480	-0.232	0.376
-315.997	333.908	0.132	0.252
-314.983	-119.556	0.251	-0.043
-313.968	264.571	-0.012	-0.021
-312.953	-136.155	-0.153	0.018
-311.939	27.925	0.034	0.029
-310.924	-60.397	0.132	0.055
-309.910	155.387	0.079	0.108
-308.895	108.731	0.116	-0.137
-307.880	-200.000	-0.001	-0.011
-306.866	201.406	-0.098	-0.150
-305.851	209.980	-0.164	-0.255
-304.837	488.764	0.099	-0.224
-303.822	503.096	-0.187	-0.427
-302.807	289.776	-0.158	-0.283
-301.793	-200.000	-0.051	-0.402
-300.778	-49.012	0.052	0.025
-299.764	-119.145	0.091	0.016
-298.749	-33.042	0.210	0.115
-297.735	477.563	0.101	0.226
-296.720	168.199	0.215	0.302
-295.705	96.395	-0.154	0.175
-294.691	-200.000	0.014	-0.102
-293.676	-22.896	0.072	0.043
-292.662	-110.383	-0.372	-0.077
-291.647	-22.233	0.084	-0.051
-290.632	-85.288	-0.324	-0.100
-289.618	-42.935	0.328	0.165
-288.603	800.000	0.041	0.141
-287.589	129.504	0.019	-0.024
-286.574	303.558	-0.114	-0.208
-285.559	8.607	0.219	0.163
-284.545	-200.000	-0.047	0.292
-283.530	72.293	0.125	-0.129
-282.516	166.951	-0.089	-0.125
-281.501	141.293	0.006	0.007
-280.486	-1.100	0.154	0.108
-279.472	-125.204	-0.027	-0.004
-278.457	123.074	0.087	-0.108
-277.443	-145.362	0.349	0.031
-276.428	678.430	-0.043	-0.109
-275.413	329.593	-0.139	-0.264
-274.399	58.247	0.327	-0.317
-273.384	229.038	-0.068	0.110
-272.370	-155.028	-0.134	0.009
-271.355	-200.000	-0.040	-0.359
-270.340	-200.000	-0.025	-0.218
-269.326	167.536	-0.218	-0.307
-268.311	-19.809	0.300	-0.183
-267.297	800.000	0.046	-0.147
-266.282	800.000	0.041	0.171
-265.267	94.439	0.107	0.120
-264.253	464.386	0.049	0.108
-263.238	-121.395	-0.317	-0.052
-262.224	723.518	-0.088	-0.233
-261.209	-163.973	0.243	-0.011
-260.195	679.855	0.022	0.058
-259.180	-200.000	-0.041	-0.222
-258.165	-47.079	-0.125	-0.060
-257.151	-145.501	0.028	0.002
-256.136	3.041	0.335	-0.241
-255.122	160.657	0.018	-0.025
-254.107	-200.000	0.001	-0.302
-253.092	-123.140	0.253	0.040
-252.078	41.397	0.178	-0.159
-251.063	800.000	-0.099	-0.287
-250.049	-200.000	0.030	0.160
-249.034	12.220	-0.224	-0.171
-248.019	-200.000	0.011	0.098
-247.005	399.591	0.139	-0.287
-245.990	277.565	-0.049	0.086
-244.976	12.310	0.050	0.038
-243.961	40.490	0.107	-0.095
-242.946	800.000	0.047	0.185
-241.932	174.291	0.214	0.305
-240.917	140.753	0.255	0.333
-239.903	-18.082	0.256	0.158
-238.888	-58.846	-0.411	0.176
-237.873	-134.393	-0.403	0.049
-236.859	-48.147	-0.087	0.041
-235.844	-25.829	-0.139	-0.081
-234.830	205.349	0.035	0.054
-233.815	-200.000	-0.009	0.045
-232.800	191.377	-0.175	-0.260
-231.786	108.867	0.144	0.170
-230.771	60.097	-0.156	0.152
-229.757	800.000	-0.114	0.366
-228.742	800.000	-0.048	-0.156
-227.727	-200.000	-0.055	0.271
-226.713	-200.000	0.016	0.167
-225.698	-148.600	0.259	0.021
-224.684	-114.254	0.045	-0.009
-223.669	117.553	0.267	-0.324
-222.655	-157.183	-0.108	0.006
-221.640	-94.745	-0.164	-0.044
-220.625	-135.279	0.407	0.048
-219.611	-75.847	0.064	-0.022
-218.596	-111.787	-0.174	-0.035
-217.582	-83.587	-0.169	0.053
-216.567	-25.994	-0.242	-0.140
-215.552	-200.000	-0.001	0.119
-214.538	800.000	-0.088	-0.295
-213.523	17.076	0.204	-0.160
-212.509	-109.388	0.264	-0.055
-211.494	-117.045	-0.232	0.042
-210.479	86.922	0.025	0.027
-209.465	-200.000	0.003	-0.365
-208.450	163.702	-0.160	-0.221
-207.436	800.000	-0.061	0.247
-206.421	-171.673	-0.134	-0.004
-205.406	-200.000	0.040	0.226
-204.392	21.621	-0.263	0.211
-203.377	56.352	0.119	0.114
-202.363	-2.140	0.224	0.155
-201.348	-200.000	-0.017	-0.301
-200.333	12.339	0.169	0.128
-199.319	-39.486	-0.188	-0.097
-198.304	21.581	0.136	0.109
-197.290	95.150	-0.222	-0.250
-196.275	511.282	0.043	-0.098
-195.260	-200.000	0.004	-0.156
-194.246	70.176	0.079	-0.080
-193.231	-200.000	0.030	-0.334
-192.217	-200.000	0.005	0.177
-191.202	-141.661	-0.115	-0.011
-190.187	-9.016	0.101	0.066
-189.173	7.150	-0.209	0.153
-188.158	381.866	-0.044	0.089
-187.144	-90.498	0.251	0.071
-186.129	88.028	-0.198	0.216
-185.114	-108.743	-0.158	0.033
-184.100	-52.144	-0.261	-0.119
-183.085	-102.623	0.177	0.042
-182.071	-97.602	-0.069	0.018
-181.056	52.036	0.289	0.271
-180.042	179.077	-0.183	0.264
-179.027	-86.413	0.464	0.140
-178.012	-127.605	-0.202	-0.029
-176.998	-18.199	0.019	0.012
-175.983	-50.175	0.130	-0.060
-174.969	49.909	-0.132	0.123
-173.954	185.122	-0.081	0.119
-172.939	-200.000	0.034	0.197
-171.925	200.164	-0.146	0.220
-170.910	-171.827	0.177	-0.006
-169.896	-200.000	0.016	0.177
-168.881	-13.972	-0.221	-0.140
-167.866	800.000	0.110	-0.324
-166.852	-92.807	0.149	-0.041
-165.837	-129.696	-0.350	-0.048
-164.823	289.090	-0.171	-0.305
-163.808	109.956	0.127	-0.150
-162.793	-88.662	0.184	0.054
-161.779	-200.000	0.015	0.074
-160.764	26.231	0.405	0.332
-159.750	-95.174	-0.044	0.012
-158.735	319.644	-0.062	0.115
-157.720	201.402	-0.018	0.028
-156.706	-136.234	-0.214	-0.025
-155.691	-108.640	0.209	-0.044
-154.677	-94.865	0.323	0.086
-153.662	800.000	-0.099	0.407
-152.647	576.764	-0.193	0.463
-151.633	346.586	0.065	0.125
-150.618	135.951	-0.072	0.093
-149.604	-31.332	0.251	0.139
-148.589	-189.968	0.115	0.001
-147.574	-136.606	0.284	0.032
-146.560	173.825	-0.106	0.151
-145.545	31.280	0.192	0.162
-144.531	-58.939	0.127	-0.054
-143.516	-106.580	0.442	-0.097
-142.502	401.688	-0.067	-0.139
-141.487	-50.151	0.124	-0.057
-140.472	800.000	0.062	-0.251
-139.458	-12.339	-0.043	-0.028
-138.443	-151.322	-0.112	0.008
-137.429	-149.077	0.188	0.015
-136.414	800.000	0.012	-0.035
-135.399	16.482	0.131	0.102
-134.385	-200.000	0.026	-0.354
-133.370	800.000	0.073	0.222
-132.356	52.648	-0.165	-0.155
-131.341	194.018	-0.125	0.185
-130.326	8.717	-0.148	0.110
-129.312	-19.916	0.082	0.050
-128.297	70.346	-0.058	-0.059
-127.283	-132.281	0.080	0.010
-126.268	3.509	-0.391	0.280
-125.253	800.000	0.115	0.452
-124.239	-143.338	-0.269	0.025
-123.224	342.354	0.170	0.327
-122.210	800.000	0.041	-0.117
-121.195	-200.000	0.109	0.524
-120.180	800.000	-0.068	0.237
-119.166	54.451	-0.279	0.264
-118.151	698.856	0.042	0.108
-117.137	-174.486	0.247	0.007
-116.122	67.919	-0.168	0.169
-115.107	255.729	-0.097	0.163
-114.093	800.000	0.031	-0.089
-113.078	-200.000	0.262	-0.000
-112.064	-115.854	0.112	-0.021
-111.049	93.714	0.057	-0.063
-110.034	-153.040	-0.291	-0.020
-109.020	-200.000	0.050	0.320
-108.005	-42.259	0.174	0.088
-106.991	-109.249	0.157	-0.033
-105.976	-54.370	0.128	-0.057
-104.962	396.828	0.046	0.094
-103.947	-200.000	0.048	-0.210
-102.932	221.184	-0.112	-0.176
-101.918	800.000	0.023	0.094
-100.903	69.398	0.243	0.246
-99.889	-106.914	-0.455	-0.099
-98.874	-113.206	0.150	0.029
-97.859	133.583	0.151	0.192
-96.845	-200.000	0.025	-0.305
-95.830	3.988	0.083	-0.060
-94.816	-40.986	0.170	0.086
-93.801	-115.385	0.135	0.025
-92.786	-164.040	-0.371	0.017
-91.772	-55.087	0.148	-0.066
-90.757	411.312	0.131	0.274
-89.743	800.000	-0.012	0.044
-88.728	-173.524	-0.084	0.002
-87.713	-200.000	-0.067	-0.298
-86.699	-200.000	0.020	0.123
-85.684	270.465	0.109	-0.188
-84.670	-24.049	0.133	0.078
-83.655	-200.000	0.016	-0.246
-82.640	74.818	0.261	-0.270
-81.626	148.471	0.325	-0.430
-80.611	-54.677	0.094	-0.042
-79.597	-200.000	-0.076	-0.374
-78.582	95.216	0.165	-0.184
-77.567	-82.101	-0.118	0.038
-76.553	-200.000	0.068	-0.319
-75.538	-29.968	0.280	-0.157
-74.524	92.270	0.196	0.217
-73.509	167.200	0.091	-0.127
-72.494	106.696	0.168	0.195
-71.480	-69.505	0.419	0.157
-70.465	-59.373	0.057	0.024
-69.451	739.118	-0.035	0.092
-68.436	-119.737	-0.327	0.055
-67.422	55.317	-0.020	-0.019
-66.407	-29.159	0.252	0.142
-65.392	-200.000	0.046	-0.282
-64.378	800.000	0.093	-0.334
-63.363	-116.400	0.206	0.037
-62.349	-200.000	0.051	0.391
-61.334	110.987	-1.148	-1.355
-60.319	-17.902	0.657	0.404
-59.305	531.298	-0.476	-1.104
-58.290	766.708	0.475	1.266
-57.276	644.529	0.634	1.585
-56.261	-200.000	111.525	630.118
-55.246	470.446	1498.519	3300.661
-54.232	148.328	2664.676	3524.293
-53.217	104.140	2152.098	2479.641
-52.203	38.979	1603.730	1404.097
-51.188	31.022	1350.934	1134.539
-50.173	28.226	1312.362	1085.551
-49.159	55.374	1367.561	1296.035
-48.144	54.173	1382.901	1303.279
-47.130	31.269	1338.644	1125.528
-46.115	27.843	1321.115	1090.332
-45.100	27.679	1316.225	1085.273
-44.086	27.536	1314.180	1082.697
-43.071	27.592	1311.610	1080.866
-42.057	27.600	1309.309	1078.977
-41.042	27.619	1308.231	1078.155
-40.027	27.616	1306.477	1076.651
-39.013	27.608	1304.400	1074.853
-37.998	27.551	1302.773	1073.131
-36.984	27.641	1301.220	1072.338
-35.969	27.711	1299.070	1070.932
-34.954	27.822	1297.325	1070.104
-33.940	27.815	1296.332	1069.203
-32.925	27.720	1295.184	1067.657
-31.911	27.758	1293.586	1066.522
-30.896	27.883	1291.723	1065.673
-29.881	27.888	1290.706	1064.817
-28.867	27.946	1288.991	1063.699
-27.852	27.784	1287.830	1061.759
-26.838	27.908	1286.390	1061.250
-25.823	27.882	1284.947	1059.863
-24.809	27.883	1283.593	1058.714
-23.794	27.859	1282.449	1057.588
-22.779	27.843	1281.218	1056.439
-21.765	27.792	1279.878	1054.997
-20.750	27.781	1278.428	1053.696
-19.736	27.734	1277.199	1052.367
-18.721	27.736	1275.767	1051.158
-17.706	27.748	1274.857	1050.438
-16.692	27.731	1273.796	1049.421
-15.677	27.746	1272.760	1048.612
-14.663	27.811	1271.141	1047.610
-13.648	27.671	1270.401	1046.154
-12.633	27.677	1269.411	1045.337
-11.619	27.614	1268.873	1044.486
-10.604	27.755	1267.531	1044.152
-9.590	27.733	1266.516	1043.148
-8.575	27.719	1265.748	1042.395
-7.560	27.700	1265.072	1041.683
-6.546	27.696	1264.100	1040.819
-5.531	27.589	1263.459	1039.642
-4.517	27.696	1262.886	1039.739
-3.502	27.775	1261.020	1038.610
-2.487	27.788	1260.254	1038.010
-1.473	27.706	1256.636	1034.526
-0.458	26.150	1241.560	1013.348
0.556	21.426	1224.687	976.796
1.571	18.020	1230.833	962.459
2.586	17.248	1246.123	969.925
3.600	17.179	1235.375	961.087
4.615	15.596	1168.917	900.819
5.629	12.112	1101.482	831.150
6.644	10.465	1084.205	809.818
7.659	10.317	1082.135	807.460
8.673	10.308	1080.922	806.441
9.688	10.250	1079.791	805.236
10.702	10.529	1077.645	804.950
11.717	12.478	1079.756	816.137
12.731	15.954	1083.857	836.456
13.746	17.641	1085.900	846.343
14.761	17.624	1085.213	845.652
15.775	16.606	1083.320	839.054
16.790	15.562	1081.221	832.185
17.804	14.891	1079.411	827.401
18.819	14.312	1078.462	823.737
19.834	14.147	1077.126	821.825
20.848	13.935	1076.415	820.164
21.863	13.760	1075.451	818.493
22.877	13.477	1075.119	816.775
23.892	13.402	1074.498	815.859
24.907	13.508	1073.527	815.574
25.921	13.661	1072.039	815.121
26.936	13.519	1071.272	813.771
27.950	13.587	1069.610	812.768
28.965	13.796	1067.802	812.344
29.980	13.867	1066.300	811.479
30.994	13.838	1065.633	810.757
32.009	13.662	1064.558	809.011
33.023	13.645	1063.548	808.086
34.038	13.786	1062.539	807.935
35.053	13.760	1061.119	806.657
36.067	13.655	1060.457	805.575
37.082	13.784	1059.574	805.459
38.096	13.741	1058.965	804.714
39.111	13.741	1058.313	804.147
40.126	13.735	1056.880	802.957
41.140	13.540	1055.896	801.198
42.155	13.415	1054.410	799.396
43.169	13.430	1053.418	798.643
44.184	13.547	1052.126	798.157
45.199	13.418	1051.246	796.798
46.213	13.603	1050.038	796.705
47.228	13.669	1049.113	796.247
48.242	13.666	1048.075	795.373
49.257	13.564	1047.316	794.237
50.271	13.714	1046.241	794.070
51.286	13.573	1045.676	792.898
52.301	13.609	1044.808	792.341
53.315	13.518	1043.698	790.994
54.330	13.569	1042.477	790.243
55.344	13.534	1041.776	789.475
56.359	13.568	1041.412	789.292
57.374	13.455	1040.141	787.720
58.388	13.432	1038.877	786.584
59.403	13.537	1038.206	786.505
60.417	13.406	1037.482	785.267
61.432	13.446	1036.528	784.664
62.447	13.583	1035.458	784.432
63.461	13.359	1034.939	782.909
64.476	13.421	1033.865	782.319
65.490	13.427	1032.761	781.447
66.505	13.532	1031.996	781.292
67.520	13.414	1031.550	780.330
68.534	13.378	1030.539	779.324
69.549	13.551	1030.206	779.822
70.563	13.445	1029.003	778.340
71.578	13.397	1028.306	777.522
72.593	13.381	1027.291	776.607
73.607	13.341	1027.056	776.174
74.622	13.383	1025.965	775.478
75.636	13.408	1025.571	775.228
76.651	13.315	1024.845	774.177
77.666	13.353	1024.089	773.715
78.680	13.243	1023.809	772.922
79.695	13.401	1022.878	772.886
80.709	13.422	1022.406	772.558
81.724	13.506	1021.548	772.234
82.739	13.534	1020.985	771.873
83.753	13.625	1020.200	771.632
84.768	13.714	1018.859	770.964
85.782	13.826	1018.287	770.983
86.797	13.861	1017.360	770.374
87.812	13.751	1015.931	768.714
88.826	13.632	1015.263	767.591
89.841	13.599	1014.792	767.014
90.855	13.731	1013.706	766.738
91.870	13.812	1012.872	766.415
92.884	13.677	1012.416	765.374
93.899	13.791	1011.527	765.164
94.914	13.837	1010.412	764.461
95.928	13.824	1009.849	763.909
96.943	13.812	1008.725	762.939
97.957	13.882	1007.693	762.411
98.972	13.839	1006.770	761.445
99.987	13.754	1005.946	760.367
101.001	13.806	1004.725	759.614
102.016	13.695	1004.381	758.780
103.030	13.819	1003.518	758.625
104.045	13.652	1003.205	757.560
105.060	13.708	1001.803	756.688
106.074	13.680	1000.799	755.736
107.089	13.573	999.710	754.361
108.103	13.548	998.878	753.555
109.118	13.529	998.089	752.806
110.133	13.489	997.209	751.892
111.147	13.568	996.271	751.476
112.162	13.621	994.954	750.658
113.176	13.552	995.050	750.352
114.191	13.588	994.101	749.732
115.206	13.660	993.125	749.255
116.220	13.621	992.760	748.738
117.235	13.668	991.547	747.967
118.249	13.604	990.688	746.963
119.264	13.470	990.142	745.883
120.279	13.507	989.095	745.196
121.293	13.517	988.066	744.397
122.308	13.557	987.600	744.160
123.322	13.492	986.320	742.842
124.337	13.476	985.484	742.075
125.352	13.532	983.914	741.077
126.366	13.494	983.446	740.490
127.381	13.636	982.103	740.044
128.395	13.525	981.433	738.979
129.410	13.579	980.206	738.231
130.424	13.606	979.548	737.791
131.439	13.581	978.741	737.008
132.454	13.667	978.074	736.823
133.468	13.695	977.010	736.079
134.483	13.639	976.400	735.305
135.497	13.665	975.445	734.635
136.512	13.631	974.590	733.776
137.527	13.766	973.683	733.625
138.541	13.669	973.048	732.656
139.556	13.631	972.748	732.197
140.570	13.752	972.070	732.154
141.585	13.893	970.994	731.901
142.600	13.770	970.344	730.803
143.614	13.883	969.334	730.478
144.629	13.994	968.474	730.253
145.643	13.872	967.453	728.881
146.658	13.673	966.822	727.468
147.673	13.913	965.399	727.385
148.687	13.843	964.610	726.421
149.702	13.723	963.862	725.265
150.716	13.677	963.706	724.884
151.731	13.829	962.017	724.211
152.746	13.759	961.406	723.382
153.760	13.924	961.028	723.755
154.775	13.766	960.756	722.798
155.789	13.894	959.873	722.627
156.804	13.882	958.886	721.769
157.819	13.874	958.506	721.381
158.833	13.934	957.973	721.177
159.848	14.018	956.817	720.610
160.862	13.915	955.846	719.365
161.877	14.009	954.655	718.814
162.892	13.894	953.856	717.651
163.906	13.743	953.160	716.410
164.921	13.795	952.128	715.796
165.935	14.054	950.918	715.940
166.950	13.948	950.838	715.359
167.964	13.896	949.888	714.356
168.979	13.908	948.803	713.529
169.994	13.838	948.401	712.862
171.008	14.020	947.264	712.727
172.023	14.079	946.676	712.477
173.037	14.192	946.218	712.550
174.052	14.084	945.196	711.259
175.067	14.063	944.382	710.490
176.081	13.826	943.995	709.126
177.096	14.028	943.132	709.274
178.110	14.003	942.816	708.868
179.125	14.008	942.067	708.265
180.140	14.110	941.569	708.262
181.154	14.176	941.015	708.065
182.169	14.064	941.032	707.538
183.183	14.209	939.970	707.292
184.198	14.153	939.243	706.443
185.213	14.093	939.015	705.955
186.227	14.179	938.212	705.655
187.242	14.283	937.269	705.323
188.256	14.409	936.947	705.552
189.271	14.251	935.700	703.884
190.286	14.090	935.078	702.671
191.300	13.967	934.426	701.603
192.315	14.129	933.456	701.492
193.329	14.008	933.016	700.592
194.344	14.031	932.574	700.292
195.359	14.161	931.960	700.319
196.373	14.133	931.282	699.628
197.388	14.377	930.883	700.292
198.402	14.324	930.822	699.963
199.417	14.373	929.846	699.374
200.432	14.460	929.142	699.147
201.446	14.458	928.592	698.661
202.461	14.488	928.298	698.506
203.475	14.557	927.584	698.192
204.490	14.443	926.931	697.163
205.504	14.367	926.406	696.388
206.519	14.440	925.173	695.705
207.534	14.464	924.634	695.337
208.548	14.330	924.146	694.353
209.563	14.469	923.355	694.274
210.577	14.538	922.619	693.947
211.592	14.478	922.033	693.195
212.607	14.557	921.298	692.912
213.621	14.665	920.440	692.653
214.636	14.483	919.650	691.241
215.650	14.525	919.341	691.121
216.665	14.573	918.708	690.781
217.680	14.698	917.628	690.429
218.694	14.655	917.179	689.852
219.709	14.763	916.226	689.521
220.723	14.706	915.682	688.812
221.738	14.801	915.107	688.712
222.753	14.737	914.535	687.958
223.767	14.852	913.676	687.722
224.782	14.864	913.581	687.640
225.796	14.886	912.580	686.917
226.811	14.815	911.811	685.986
227.826	14.744	911.335	685.276
228.840	14.819	910.289	684.732
229.855	14.821	909.418	684.026
230.869	14.804	908.922	683.524
231.884	14.749	908.190	682.687
232.899	14.771	907.566	682.247
233.913	14.722	907.088	681.627
234.928	14.605	906.384	680.563
235.942	14.625	905.693	680.063
236.957	14.752	904.886	679.915
237.972	14.846	904.443	679.905
238.986	14.812	903.397	678.922
240.001	14.681	903.264	678.226
241.015	14.810	902.359	678.013
242.030	14.815	901.925	677.647
243.045	14.977	900.781	677.381
244.059	14.840	901.003	676.936
245.074	14.975	899.780	676.502
246.088	15.002	899.437	676.293
247.103	14.994	898.683	675.636
248.117	15.008	898.374	675.401
249.132	15.153	897.524	675.283
250.147	15.222	896.895	675.031
251.161	15.310	895.952	674.616
252.176	15.310	895.743	674.398
253.190	15.333	894.878	673.778
254.205	15.285	894.422	673.184
255.220	15.338	893.711	672.800
256.234	15.371	892.947	672.297
257.249	15.467	892.220	672.075
258.263	15.434	891.384	671.253
259.278	15.398	890.966	670.735
260.293	15.261	890.870	670.057
261.307	15.511	890.184	670.480
262.322	15.498	889.096	669.551
263.336	15.515	888.629	669.208
264.351	15.495	887.967	668.570
265.366	15.520	887.318	668.122
266.380	15.506	886.748	667.579
267.395	15.630	885.953	667.414
268.409	15.388	885.275	665.883
269.424	15.440	884.197	665.217
270.439	15.596	883.476	665.235
271.453	15.545	882.781	664.450
272.468	15.450	882.441	663.759
273.482	15.348	882.097	663.038
274.497	15.443	881.217	662.695
275.512	15.548	880.513	662.521
276.526	15.546	879.926	662.012
277.541	15.592	879.782	662.028
278.555	15.706	879.127	661.924
279.570	15.712	878.348	661.302
280.585	15.764	877.269	660.638
281.599	15.666	876.686	659.754
282.614	15.738	876.263	659.658
283.628	15.624	875.779	658.789
284.643	15.691	875.126	658.501
285.657	15.666	874.464	657.850
286.672	15.826	873.721	657.859
287.687	15.780	873.325	657.323
288.701	15.735	872.814	656.704
289.716	15.804	872.163	656.425
290.730	15.851	871.424	655.995
291.745	15.793	870.860	655.286
292.760	15.801	870.157	654.727
293.774	15.874	869.767	654.660
294.789	16.046	868.628	654.412
295.803	15.886	867.779	653.098
296.818	15.822	867.558	652.624
297.833	15.726	866.814	651.635
298.847	15.761	866.631	651.574
299.862	15.971	865.849	651.739
300.876	16.023	865.277	651.456
301.891	15.998	864.613	650.801
302.906	16.069	864.050	650.593
303.920	16.075	863.444	650.104
304.935	16.095	863.047	649.821
305.949	16.172	862.350	649.536
306.964	15.989	861.822	648.376
307.979	16.075	861.093	648.102
308.993	16.191	860.701	648.194
310.008	16.154	860.073	647.523
311.022	16.231	859.397	647.254
312.037	16.177	858.958	646.656
313.052	16.160	858.044	645.846
314.066	16.106	857.499	645.172
315.081	16.199	856.701	644.872
316.095	16.105	856.381	644.212
317.110	16.092	855.777	643.654
318.125	16.077	855.930	643.654
319.139	16.215	855.112	643.509
320.154	16.104	854.672	642.697
321.168	16.078	854.238	642.216
322.183	16.185	853.681	642.147
323.197	16.273	852.650	641.649
324.212	16.175	852.257	640.922
325.227	16.174	851.862	640.568
326.241	16.215	851.675	640.524
327.256	16.356	850.466	640.094
328.270	16.231	849.986	639.202
329.285	16.140	849.671	638.565
330.300	16.324	848.409	638.254
331.314	16.202	848.781	638.016
332.329	16.152	848.807	637.790
333.343	16.346	847.693	637.630
334.358	16.330	847.390	637.283
335.373	16.460	846.962	637.396
336.387	16.518	846.293	637.055
337.402	16.558	846.347	637.190
338.416	16.379	846.043	636.231
339.431	16.435	845.501	635.979
340.446	16.620	845.211	636.400
341.460	16.527	844.995	635.829
342.475	16.628	844.019	635.420
343.489	16.610	843.838	635.161
344.504	16.671	843.473	635.056
345.519	16.711	843.119	634.884
346.533	16.781	842.387	634.539
347.548	16.682	842.021	633.837
348.562	16.596	841.405	632.995
349.577	16.633	840.166	632.146
350.592	16.646	840.172	632.142
351.606	16.597	839.401	631.324
352.621	16.638	838.649	630.854
353.635	16.671	838.001	630.434
354.650	16.778	837.139	630.130
355.665	16.536	837.364	629.342
356.679	16.738	836.104	629.090
357.694	16.796	835.304	628.648
358.708	16.784	834.815	628.178
359.723	16.736	834.281	627.544
360.738	16.832	833.400	627.179
361.752	16.875	833.088	627.048
362.767	16.876	832.241	626.360
363.781	16.984	831.830	626.393
364.796	17.002	831.524	626.175
365.810	17.003	831.418	626.043
366.825	16.982	830.905	625.526
367.840	16.988	830.749	625.374
368.854	16.823	830.084	624.209
369.869	16.823	829.669	623.842
370.883	16.966	829.377	624.094
371.898	17.018	829.039	623.974
372.913	16.941	828.487	623.220
373.927	17.104	827.605	623.103
374.942	17.327	826.850	623.295
375.956	17.150	826.888	622.619
376.971	17.157	826.516	622.308
377.986	17.288	825.797	622.192
379.000	17.359	825.158	621.918
380.015	17.318	824.541	621.246
381.029	17.234	824.579	620.913
382.044	17.327	823.522	620.403
383.059	17.284	823.058	619.842
384.073	17.356	822.232	619.427
385.088	17.158	821.791	618.318
386.102	17.084	821.730	617.948
387.117	17.402	820.883	618.411
388.132	17.364	820.076	617.612
389.146	17.200	819.880	616.814
390.161	17.438	819.190	617.104
391.175	17.518	818.494	616.816
392.190	17.338	818.200	615.887
393.205	17.467	817.853	616.040
394.219	17.353	817.533	615.331
395.234	17.271	816.911	614.510
396.248	17.442	816.280	614.599
397.263	17.139	816.024	613.260
398.278	17.227	815.672	613.256
399.292	17.210	815.498	613.012
400.307	17.319	814.771	612.805
401.321	17.378	814.252	612.571
402.336	17.389	813.978	612.350
403.350	17.440	813.408	612.052
404.365	17.414	813.000	611.596
405.380	17.678	812.108	611.819
406.394	17.664	811.840	611.514
407.409	17.596	811.755	611.150
408.423	17.643	811.455	611.040
409.438	17.634	810.623	610.327
410.453	17.810	810.285	610.648
411.467	17.682	810.340	610.177
412.482	17.734	809.797	609.899
413.496	17.649	809.432	609.268
414.511	17.820	808.917	609.438
415.526	17.763	808.824	609.109
416.540	17.857	807.926	608.715
417.555	17.761	807.625	608.093
418.569	17.755	807.073	607.600
419.584	17.916	806.547	607.722
420.599	17.771	806.605	607.196
421.613	111.244	1295.638	1476.546
422.628	95.985	1366.873	1476.648
