DTS Sentinel unit serial number:	SN413079Multiplexer serial number:	ORYXHardware model number:	OX4-SRSoftware version number:	ORYX F/W v4.00 Oryx Data Collector v3.7.2.0data status	okinstallation	princeton_trtdifferential loss correction	single-endedforward channel	channel 1reverse channel	N/Adate	2019/09/16time	08:22:35forward acquisition time	60.00reverse acquisition time	0.00gamma	496.2192k internal	0.2324k external	0.2324temperature offset calibration	0.9976default loss term (dB/km)	0.3790temperature slope calibration	1.0000multiplexer offset coefficient	1.0000multiplexer slope coefficient	1.0000fibre end	0.00T internal ref (°C)	29.06T ext. ref 1 (°C)	11.86T ext. ref 2 (°C)	25.51length (m)	temperature (°C)	Stokes	anti-Stokes-747.200	-139.579	-0.222	-0.024
-746.185	800.000	0.116	0.363
-745.171	744.039	-0.094	0.255
-744.156	-161.725	0.138	-0.007
-743.142	-63.348	-0.072	-0.030
-742.127	800.000	-0.081	0.325
-741.112	259.975	-0.062	-0.108
-740.098	179.818	0.219	0.323
-739.083	-104.763	0.152	0.035
-738.069	189.377	0.059	0.090
-737.054	148.937	0.050	0.069
-736.039	96.338	-0.256	-0.295
-735.025	-98.622	0.119	0.031
-734.010	793.589	0.157	0.436
-732.996	-37.456	-0.190	0.103
-731.981	-200.000	0.027	-0.207
-730.966	20.088	-0.214	-0.174
-729.952	-200.000	-0.007	-0.080
-728.937	-22.184	0.031	0.019
-727.923	-77.254	-0.345	0.121
-726.908	155.090	0.122	-0.170
-725.894	-200.000	-0.027	0.140
-724.879	-200.000	0.045	-0.265
-723.864	-177.097	-0.172	0.004
-722.850	800.000	0.073	-0.258
-721.835	62.053	-0.068	0.068
-720.821	395.313	0.027	0.056
-719.806	-107.184	-0.133	0.030
-718.791	-128.804	-0.530	0.075
-717.777	-61.977	-0.101	-0.043
-716.762	148.560	0.085	-0.116
-715.748	-56.571	-0.259	-0.116
-714.733	103.081	-0.156	-0.184
-713.718	544.315	-0.029	0.070
-712.704	185.084	0.153	-0.229
-711.689	18.452	0.090	-0.072
-710.675	336.134	-0.118	0.232
-709.660	0.371	-0.360	0.259
-708.645	-200.000	-0.037	0.181
-707.631	248.637	-0.133	0.226
-706.616	-165.915	-0.102	0.004
-705.602	719.915	0.134	0.359
-704.587	800.000	0.089	-0.355
-703.572	-2.023	-0.456	-0.323
-702.558	-200.000	0.036	0.373
-701.543	-116.510	-0.032	-0.006
-700.529	32.182	0.061	0.053
-699.514	-10.754	0.141	-0.094
-698.499	-200.000	0.066	0.349
-697.485	-13.832	0.277	0.181
-696.470	-200.000	-0.025	-0.368
-695.456	782.636	-0.061	-0.167
-694.441	-200.000	0.065	0.393
-693.426	-125.077	0.042	0.007
-692.412	800.000	-0.055	-0.184
-691.397	-200.000	-0.011	-0.344
-690.383	-200.000	-0.027	0.219
-689.368	-149.351	0.086	0.007
-688.354	-200.000	-0.030	-0.132
-687.339	800.000	-0.071	-0.240
-686.324	-48.136	0.243	-0.118
-685.310	10.478	-0.130	0.099
-684.295	800.000	-0.103	-0.422
-683.281	290.456	0.176	-0.322
-682.266	-89.811	-0.312	-0.092
-681.251	114.837	0.183	-0.225
-680.237	-200.000	-0.008	-0.075
-679.222	17.513	0.134	0.108
-678.208	89.021	0.040	0.045
-677.193	-200.000	-0.006	0.332
-676.178	-200.000	0.013	-0.243
-675.164	296.995	-0.194	-0.359
-674.149	123.993	-0.103	-0.130
-673.135	34.347	0.111	0.097
-672.120	-200.000	-0.009	0.051
-671.105	-83.241	0.096	0.031
-670.091	800.000	-0.040	-0.111
-669.076	323.975	-0.070	0.134
-668.062	-200.000	-0.028	0.272
-667.047	-15.375	-0.248	0.160
-666.032	-49.430	-0.200	0.096
-665.018	116.914	0.033	0.041
-664.003	125.277	0.354	-0.450
-662.989	-199.270	-0.215	-0.001
-661.974	-200.000	-0.023	0.176
-660.959	502.267	0.021	0.050
-659.945	-76.305	0.027	-0.010
-658.930	-31.380	-0.218	0.123
-657.916	-200.000	-0.011	0.271
-656.901	312.840	0.148	-0.279
-655.886	510.962	-0.093	-0.217
-654.872	-191.054	0.274	0.003
-653.857	81.152	0.067	-0.073
-652.843	-52.379	0.131	-0.061
-651.828	-18.608	-0.404	0.253
-650.814	34.994	-0.060	0.053
-649.799	-8.686	-0.118	0.080
-648.784	273.738	0.063	-0.113
-647.770	113.121	-0.088	-0.107
-646.755	-72.109	-0.170	-0.063
-645.741	-33.585	-0.266	-0.148
-644.726	45.075	0.194	-0.180
-643.711	-200.000	0.042	-0.252
-642.697	-40.318	-0.224	0.117
-641.682	600.584	0.062	-0.155
-640.668	-200.000	-0.031	0.356
-639.653	-166.440	-0.071	-0.003
-638.638	-91.872	0.349	-0.100
-637.624	322.226	-0.017	0.033
-636.609	-47.935	-0.279	0.136
-635.595	-200.000	-0.040	0.261
-634.580	-105.221	0.324	-0.074
-633.565	-200.000	0.008	-0.280
-632.551	-111.724	-0.294	0.060
-631.536	-68.180	0.114	-0.045
-630.522	50.824	-0.143	0.136
-629.507	705.824	-0.070	0.187
-628.492	337.011	0.084	0.165
-627.478	-184.596	-0.377	-0.006
-626.463	159.903	-0.191	0.267
-625.449	223.580	0.141	-0.229
-624.434	293.456	-0.102	-0.188
-623.419	800.000	0.015	0.064
-622.405	168.653	0.153	-0.219
-621.390	-179.907	-0.126	-0.003
-620.376	271.935	-0.164	-0.290
-619.361	800.000	-0.062	-0.226
-618.346	106.297	0.107	-0.128
-617.332	-114.200	0.162	-0.031
-616.317	-200.000	-0.021	-0.152
-615.303	-188.968	0.260	-0.003
-614.288	56.646	0.170	0.166
-613.273	-90.668	-0.027	0.008
-612.259	224.786	0.087	0.141
-611.244	-200.000	0.018	-0.104
-610.230	800.000	0.131	-0.469
-609.215	-75.546	0.029	0.011
-608.201	-41.041	0.212	0.110
-607.186	-167.465	0.139	0.006
-606.171	560.606	0.197	-0.477
-605.157	-148.502	-0.160	0.013
-604.142	-200.000	0.001	0.027
-603.128	-200.000	-0.059	-0.334
-602.113	-150.546	0.084	0.006
-601.098	202.964	0.173	0.269
-600.084	19.006	0.170	0.137
-599.069	-117.783	-0.388	-0.070
-598.055	224.168	0.168	0.273
-597.040	245.469	-0.149	-0.252
-596.025	800.000	-0.041	0.161
-595.011	-123.837	0.131	0.021
-593.996	-84.571	0.180	0.057
-592.982	800.000	0.049	-0.164
-591.967	-200.000	-0.010	0.294
-590.952	59.853	-0.255	0.253
-589.938	800.000	-0.024	-0.067
-588.923	-143.193	-0.471	-0.045
-587.909	800.000	0.077	0.309
-586.894	-148.864	0.067	0.005
-585.879	-38.989	-0.230	-0.121
-584.865	-67.764	0.134	0.053
-583.850	60.629	-0.179	0.178
-582.836	151.330	-0.256	0.350
-581.821	-6.999	0.327	0.223
-580.806	-130.887	0.313	-0.042
-579.792	-200.000	-0.009	0.249
-578.777	-103.018	-0.079	0.019
-577.763	162.890	-0.190	-0.267
-576.748	267.837	0.212	-0.372
-575.733	45.358	0.193	-0.179
-574.719	54.400	0.253	0.244
-573.704	-200.000	-0.009	0.044
-572.690	-200.000	0.020	0.209
-571.675	-132.743	0.272	0.035
-570.661	800.000	-0.065	-0.209
-569.646	-98.970	-0.318	0.081
-568.631	264.873	-0.032	0.055
-567.617	-87.360	0.266	0.081
-566.602	332.601	0.177	0.343
-565.588	-131.023	0.306	-0.041
-564.573	-118.916	0.190	0.034
-563.558	108.494	0.384	-0.460
-562.544	-47.104	-0.357	-0.174
-561.529	-52.487	-0.345	-0.160
-560.515	212.584	-0.047	0.074
-559.500	-101.388	0.125	-0.031
-558.485	493.089	0.064	-0.147
-557.471	800.000	0.042	-0.171
-556.456	-113.236	0.051	-0.010
-555.442	97.709	-0.066	0.076
-554.427	86.901	-0.063	0.069
-553.412	-200.000	0.063	-0.357
-552.398	173.451	-0.146	-0.211
-551.383	-30.578	-0.412	-0.234
-550.369	-115.732	-0.305	-0.057
-549.354	-96.366	0.091	0.024
-548.339	-200.000	0.009	0.048
-547.325	123.942	-0.086	-0.108
-546.310	-200.000	0.015	0.190
-545.296	-5.597	-0.024	-0.016
-544.281	-81.147	-0.218	-0.072
-543.266	68.268	0.176	-0.180
-542.252	-117.505	0.260	0.047
-541.237	-117.804	-0.059	-0.011
-540.223	-200.000	-0.035	0.175
-539.208	800.000	-0.106	-0.375
-538.193	-200.000	-0.023	-0.187
-537.179	-82.503	-0.176	0.057
-536.164	-46.651	0.162	0.079
-535.150	800.000	-0.044	-0.143
-534.135	-136.001	0.242	0.028
-533.121	-71.891	0.196	-0.073
-532.106	-18.021	-0.212	-0.133
-531.091	-200.000	-0.050	0.238
-530.077	85.521	0.143	-0.158
-529.062	521.204	0.148	0.347
-528.048	584.582	-0.058	0.142
-527.033	53.905	-0.169	0.162
-526.018	800.000	0.090	0.302
-525.004	-200.000	-0.003	-0.051
-523.989	800.000	-0.015	0.049
-522.975	-200.000	-0.007	-0.178
-521.960	126.731	-0.101	-0.128
-520.945	-200.000	-0.021	-0.124
-519.931	-200.000	0.004	0.076
-518.916	-132.939	0.209	0.027
-517.902	-116.173	0.072	0.013
-516.887	756.389	0.063	0.169
-515.872	-200.000	-0.079	0.538
-514.858	317.565	-0.053	0.100
-513.843	-200.000	0.007	-0.076
-512.829	-94.414	0.317	0.087
-511.814	100.324	-0.310	-0.360
-510.799	372.991	-0.061	0.125
-509.785	-200.000	0.003	0.286
-508.770	87.355	-0.066	0.073
-507.756	-20.286	-0.123	0.076
-506.741	-200.000	0.041	0.247
-505.726	800.000	-0.044	-0.152
-504.712	-138.403	0.068	-0.008
-503.697	171.531	0.371	-0.532
-502.683	76.609	-0.288	-0.305
-501.668	800.000	-0.028	-0.121
-500.653	169.448	-0.176	-0.252
-499.639	123.582	0.122	-0.153
-498.624	-200.000	0.045	0.233
-497.610	-90.599	-0.054	0.016
-496.595	-4.908	-0.139	0.096
-495.581	316.805	-0.042	-0.079
-494.566	-200.000	0.042	-0.271
-493.551	8.303	-0.272	-0.204
-492.537	458.122	-0.171	-0.379
-491.522	-121.539	-0.487	-0.081
-490.508	10.416	0.038	0.029
-489.493	-154.186	-0.312	-0.021
-488.478	155.641	0.237	0.326
-487.464	491.972	0.065	0.150
-486.449	-111.159	-0.147	-0.030
-485.435	-200.000	0.021	-0.185
-484.420	65.585	0.222	-0.225
-483.405	365.958	0.069	0.139
-482.391	-200.000	0.053	0.252
-481.376	235.269	0.094	-0.156
-480.362	262.964	-0.136	0.236
-479.347	800.000	0.070	-0.266
-478.332	-121.428	-0.483	0.080
-477.318	1.453	0.133	0.096
-476.303	-15.386	-0.174	-0.111
-475.289	-200.000	-0.074	-0.529
-474.274	-82.464	0.369	0.120
-473.259	327.757	0.151	-0.288
-472.245	399.948	-0.084	0.175
-471.230	-27.786	-0.119	0.069
-470.216	-115.945	0.223	0.041
-469.201	221.231	0.130	0.209
-468.186	-63.717	0.212	0.087
-467.172	-9.453	-0.170	-0.113
-466.157	-8.118	0.047	-0.032
-465.143	-200.000	0.041	0.230
-464.128	-124.285	-0.036	-0.006
-463.113	33.434	0.126	-0.109
-462.099	364.291	-0.094	-0.190
-461.084	139.731	-0.216	0.284
-460.070	800.000	-0.235	-0.720
-459.055	-101.630	0.305	0.074
-458.040	103.586	-0.157	0.184
-457.026	142.386	-0.174	-0.230
-456.011	-104.734	0.238	0.055
-454.997	-70.479	-0.260	-0.098
-453.982	25.830	0.198	0.165
-452.968	70.801	0.072	-0.075
-451.953	800.000	0.037	0.115
-450.938	-106.531	-0.326	0.073
-449.924	-200.000	-0.010	0.234
-448.909	-200.000	-0.081	-0.368
-447.895	292.918	-0.084	-0.152
-446.880	800.000	-0.033	-0.114
-445.865	222.046	-0.040	-0.065
-444.851	185.135	0.116	-0.172
-443.836	-179.128	0.228	0.005
-442.822	-20.037	-0.105	0.064
-441.807	800.000	0.105	-0.398
-440.792	-132.630	-0.173	-0.022
-439.778	800.000	0.114	0.329
-438.763	104.629	0.005	0.006
-437.749	-36.795	0.150	0.080
-436.734	-200.000	-0.022	0.149
-435.719	-114.498	0.197	-0.038
-434.705	196.379	-0.092	0.139
-433.690	-145.458	0.145	-0.013
-432.676	-200.000	0.053	0.378
-431.661	-200.000	0.009	-0.064
-430.646	-51.103	0.113	-0.053
-429.632	-200.000	0.006	-0.062
-428.617	300.863	0.158	-0.291
-427.603	-200.000	-0.023	0.217
-426.588	-200.000	-0.056	0.247
-425.573	449.786	-0.040	-0.089
-424.559	-65.853	0.331	0.132
-423.544	106.079	-0.289	-0.341
-422.530	382.921	0.196	-0.403
-421.515	800.000	-0.095	-0.332
-420.500	-200.000	0.000	-0.139
-419.486	46.615	0.098	-0.091
-418.471	800.000	0.085	-0.365
-417.457	-200.000	-0.027	-0.183
-416.442	-73.233	0.343	-0.125
-415.428	116.197	-0.267	0.326
-414.413	134.749	0.187	0.242
-413.398	-46.013	-0.197	-0.097
-412.384	258.529	0.088	-0.151
-411.369	-200.000	-0.035	0.249
-410.355	30.628	0.107	0.091
-409.340	-62.693	-0.123	-0.051
-408.325	309.754	-0.119	0.222
-407.311	41.751	0.299	-0.270
-406.296	17.050	0.060	-0.047
-405.282	-200.000	0.012	-0.051
-404.267	202.419	-0.283	-0.435
-403.252	56.880	0.100	0.097
-402.238	-102.228	-0.181	-0.043
-401.223	-200.000	-0.003	-0.210
-400.209	-121.807	-0.286	-0.047
-399.194	-200.000	0.013	0.101
-398.179	-37.286	0.098	0.052
-397.165	800.000	-0.080	0.248
-396.150	449.165	-0.149	0.326
-395.136	23.338	-0.258	0.211
-394.121	11.514	-0.214	0.163
-393.106	800.000	0.104	0.368
-392.092	155.830	-0.123	0.169
-391.077	17.353	-0.092	0.072
-390.063	-135.705	-0.239	-0.028
-389.048	-132.020	-0.368	0.048
-388.033	-51.879	0.142	-0.066
-387.019	-200.000	0.021	-0.121
-386.004	800.000	-0.090	0.326
-384.990	263.860	0.168	0.290
-383.975	-142.793	-0.218	-0.021
-382.960	146.353	0.151	-0.202
-381.946	244.397	-0.070	0.117
-380.931	-62.892	-0.257	-0.106
-379.917	-114.961	0.369	-0.070
-378.902	-34.513	-0.227	0.124
-377.888	-200.000	0.002	-0.040
-376.873	-104.951	-0.254	0.058
-375.858	52.110	0.270	0.256
-374.844	359.367	0.044	0.087
-373.829	36.930	-0.209	0.184
-372.815	-99.828	-0.187	0.047
-371.800	-106.121	0.373	-0.083
-370.785	800.000	0.071	0.281
-369.771	452.526	-0.160	-0.351
-368.756	80.545	0.099	-0.106
-367.742	595.823	0.107	0.265
-366.727	170.190	-0.114	0.163
-365.712	5.597	-0.249	0.183
-364.698	-104.680	-0.122	-0.028
-363.683	15.210	0.136	0.106
-362.669	5.016	0.205	-0.150
-361.654	61.582	0.340	0.337
-360.639	-70.324	-0.587	-0.222
-359.625	800.000	-0.092	-0.284
-358.610	157.001	-0.276	-0.379
-357.596	-200.000	0.049	0.246
-356.581	57.751	-0.105	0.102
-355.566	237.657	-0.017	0.028
-354.552	-49.290	0.301	0.143
-353.537	800.000	0.030	-0.119
-352.523	177.697	-0.017	-0.025
-351.508	436.312	0.136	0.295
-350.493	-152.941	0.205	-0.014
-349.479	-200.000	0.012	0.053
-348.464	26.888	-0.313	0.260
-347.450	177.378	0.045	0.065
-346.435	-168.222	-0.223	-0.009
-345.420	-200.000	-0.025	-0.152
-344.406	-83.947	-0.106	0.034
-343.391	-126.171	-0.035	-0.005
-342.377	-200.000	-0.045	0.243
-341.362	-7.195	0.035	0.023
-340.348	800.000	0.015	0.045
-339.333	-78.931	0.209	-0.071
-338.318	208.300	0.074	-0.115
-337.304	4.135	0.393	0.286
-336.289	271.422	-0.084	0.147
-335.275	150.791	-0.026	0.035
-334.260	733.489	0.094	-0.249
-333.245	36.057	-0.166	0.145
-332.231	-200.000	-0.018	-0.151
-331.216	-36.127	-0.144	-0.077
-330.202	186.415	0.024	0.036
-329.187	-88.043	0.023	-0.007
-328.172	123.592	-0.058	0.073
-327.158	-132.678	-0.043	-0.006
-326.143	-200.000	-0.010	-0.114
-325.129	-31.130	-0.334	-0.187
-324.114	-200.000	0.016	-0.372
-323.099	105.981	-0.048	-0.056
-322.085	14.544	-0.141	0.109
-321.070	144.214	-0.174	0.231
-320.056	406.100	-0.057	-0.118
-319.041	20.793	0.086	-0.069
-318.026	139.726	0.147	-0.193
-317.012	-70.446	0.133	-0.050
-315.997	-91.441	0.242	-0.069
-314.983	-43.296	0.153	-0.077
-313.968	446.918	0.078	0.170
-312.953	3.470	0.251	-0.182
-311.939	127.107	0.124	0.156
-310.924	800.000	0.022	-0.073
-309.910	-200.000	0.029	0.239
-308.895	-20.402	-0.083	0.051
-307.880	-200.000	0.005	0.102
-306.866	-46.496	0.236	0.115
-305.851	-125.601	-0.249	0.037
-304.837	800.000	0.046	0.169
-303.822	188.445	-0.189	-0.281
-302.807	-200.000	0.005	-0.114
-301.793	9.157	0.214	-0.161
-300.778	-165.026	-0.122	-0.005
-299.764	-99.773	-0.204	-0.051
-298.749	2.199	0.128	0.092
-297.735	-136.726	-0.169	0.019
-296.720	-91.877	-0.174	-0.049
-295.705	118.884	0.128	-0.157
-294.691	125.985	0.263	0.330
-293.676	61.709	-0.088	0.086
-292.662	-200.000	0.031	0.274
-291.647	94.870	0.136	-0.153
-290.632	-53.942	0.078	0.035
-289.618	628.456	-0.035	0.089
-288.603	-82.881	-0.128	-0.041
-287.589	336.673	0.141	-0.271
-286.574	-175.435	0.372	0.010
-285.559	-133.302	0.112	0.014
-284.545	-58.500	-0.216	0.093
-283.530	-95.511	0.275	-0.073
-282.516	-15.707	-0.203	-0.128
-281.501	800.000	-0.070	0.225
-280.486	453.575	0.183	0.402
-279.472	-84.240	0.334	-0.105
-278.457	128.468	0.031	-0.039
-277.443	-59.006	0.323	-0.138
-276.428	171.536	-0.050	-0.071
-275.413	353.716	-0.056	0.110
-274.399	-89.356	-0.137	0.040
-273.384	-9.887	0.139	0.091
-272.370	645.627	-0.125	0.315
-271.355	-74.218	0.066	0.024
-270.340	-108.512	-0.074	0.016
-269.326	210.579	-0.104	0.163
-268.311	-170.015	0.096	0.003
-267.297	-190.960	-0.018	0.000
-266.282	-200.000	0.002	-0.187
-265.267	75.752	-0.092	-0.096
-264.253	-88.509	0.102	-0.030
-263.238	-18.643	-0.173	0.107
-262.224	-93.389	0.316	0.087
-261.209	98.986	-0.060	0.069
-260.195	-74.317	-0.190	-0.068
-259.180	-200.000	0.001	0.128
-258.165	354.108	0.124	0.245
-257.151	113.959	0.085	0.102
-256.136	-89.220	-0.292	0.085
-255.122	-12.138	0.121	-0.079
-254.107	-200.000	0.044	-0.280
-253.092	-122.918	-0.175	-0.028
-252.078	-64.503	-0.081	0.033
-251.063	-27.941	0.134	-0.077
-250.049	421.735	0.021	0.044
-249.034	-7.920	-0.181	-0.121
-248.019	161.478	0.022	0.030
-247.005	239.844	-0.098	-0.161
-245.990	23.447	0.171	-0.140
-244.976	-112.072	-0.340	-0.068
-243.961	-0.571	0.174	-0.122
-242.946	-166.960	0.497	-0.020
-241.932	-200.000	0.053	-0.268
-240.917	-77.156	0.246	-0.085
-239.903	-10.817	-0.106	-0.069
-238.888	30.784	-0.333	0.282
-237.873	-27.377	0.050	-0.029
-236.859	30.938	0.052	0.044
-235.844	-45.858	-0.268	0.131
-234.830	212.939	-0.203	0.317
-233.815	-200.000	0.036	-0.217
-232.800	-115.957	-0.148	-0.027
-231.786	-110.418	-0.256	0.053
-230.771	112.314	0.260	-0.311
-229.757	-197.728	-0.216	0.001
-228.742	-52.125	-0.200	-0.092
-227.727	-200.000	0.046	0.234
-226.713	-93.815	-0.170	0.046
-225.698	-47.802	0.120	0.058
-224.684	-200.000	-0.014	0.295
-223.669	12.569	0.115	-0.088
-222.655	112.908	0.109	0.131
-221.640	-154.292	-0.288	-0.019
-220.625	-69.744	0.246	0.093
-219.611	-200.000	0.018	-0.190
-218.596	-200.000	0.003	0.043
-217.582	-200.000	0.004	0.490
-216.567	-70.934	-0.230	-0.086
-215.552	-42.158	0.153	0.077
-214.538	331.892	-0.074	-0.140
-213.523	-111.023	-0.089	0.018
-212.509	332.848	-0.063	0.120
-211.494	-200.000	-0.030	-0.224
-210.479	419.988	-0.101	-0.213
-209.465	107.613	-0.131	-0.155
-208.450	-31.543	-0.552	0.306
-207.436	68.991	-0.076	0.077
-206.421	-28.771	0.162	-0.092
-205.406	381.701	0.095	-0.193
-204.392	-82.659	0.232	0.074
-203.377	592.235	-0.030	0.072
-202.363	16.182	0.058	0.045
-201.348	-152.861	0.092	-0.006
-200.333	-200.000	-0.043	-0.193
-199.319	800.000	0.013	0.053
-198.304	-110.007	-0.558	-0.115
-197.290	58.860	0.293	-0.284
-196.275	-70.363	0.250	0.094
-195.260	42.572	-0.259	0.233
-194.246	-53.757	0.209	0.094
-193.231	53.259	-0.117	0.110
-192.217	800.000	-0.033	0.121
-191.202	128.894	-0.129	-0.163
-190.187	22.356	0.127	-0.102
-189.173	-112.392	0.077	0.015
-188.158	-200.000	-0.026	0.193
-187.144	103.165	0.109	-0.127
-186.129	159.332	0.194	-0.267
-185.114	681.453	0.103	0.264
-184.100	-118.201	-0.269	0.047
-183.085	-84.738	0.024	0.007
-182.071	287.346	0.036	-0.065
-181.056	-126.489	0.052	-0.008
-180.042	-143.354	0.128	-0.012
-179.027	800.000	-0.029	0.107
-178.012	70.871	0.106	0.109
-176.998	800.000	0.030	0.087
-175.983	-200.000	-0.034	0.171
-174.969	-44.273	-0.219	0.108
-173.954	-4.273	-0.162	-0.110
-172.939	-200.000	-0.033	-0.176
-171.925	800.000	-0.004	-0.015
-170.910	-165.205	0.083	-0.004
-169.896	18.215	0.159	0.125
-168.881	-59.570	0.457	-0.193
-167.866	-81.770	-0.250	0.081
-166.852	800.000	0.076	0.293
-165.837	-147.407	0.358	-0.030
-164.823	-121.520	0.389	0.064
-163.808	56.164	0.092	0.088
-162.793	-25.157	0.211	-0.123
-161.779	-91.164	-0.325	0.092
-160.764	70.748	0.113	-0.115
-159.750	-13.868	-0.207	0.132
-158.735	-200.000	0.019	-0.161
-157.720	-168.107	0.361	0.014
-156.706	-200.000	-0.015	0.221
-155.691	-102.148	0.256	0.061
-154.677	298.462	-0.097	0.177
-153.662	-200.000	0.002	-0.253
-152.647	-63.741	0.227	0.092
-151.633	-26.313	0.190	0.110
-150.618	-200.000	0.006	0.102
-149.604	800.000	-0.063	0.179
-148.589	-200.000	-0.057	0.370
-147.574	-200.000	0.001	-0.159
-146.560	215.448	-0.133	-0.208
-145.545	-200.000	0.007	0.195
-144.531	800.000	0.052	0.218
-143.516	-200.000	0.025	-0.124
-142.502	-106.283	-0.046	0.010
-141.487	346.383	-0.115	0.223
-140.472	-81.069	0.193	0.063
-139.458	794.212	-0.075	0.204
-138.443	-77.214	0.265	-0.091
-137.429	471.355	-0.116	0.257
-136.414	222.094	0.107	-0.169
-135.399	-200.000	0.021	0.203
-134.385	-52.528	-0.089	-0.041
-133.370	-164.566	0.384	-0.017
-132.356	-200.000	0.044	0.256
-131.341	-53.253	-0.087	0.039
-130.326	-27.948	-0.295	0.168
-129.312	-150.283	-0.326	0.025
-128.297	-117.461	0.121	0.021
-127.283	55.707	-0.077	0.074
-126.268	800.000	0.052	-0.148
-125.253	800.000	-0.032	-0.104
-124.239	-200.000	0.026	-0.201
-123.224	-30.197	-0.243	0.136
-122.210	631.707	0.092	-0.229
-121.195	-129.474	0.014	0.002
-120.180	-115.603	0.165	0.031
-119.166	353.671	0.107	0.210
-118.151	-133.820	-0.173	0.021
-117.137	800.000	0.043	-0.134
-116.122	464.151	0.213	0.468
-115.107	800.000	-0.041	0.113
-114.093	800.000	-0.083	-0.243
-113.078	-200.000	-0.009	0.218
-112.064	119.216	-0.155	0.189
-111.049	639.946	0.112	-0.280
-110.034	120.066	-0.174	-0.212
-109.020	-186.088	0.285	-0.004
-108.005	-66.506	0.378	-0.148
-106.991	174.046	-0.117	-0.166
-105.976	-22.106	-0.188	-0.112
-104.962	800.000	-0.094	0.347
-103.947	-200.000	-0.014	-0.097
-102.932	-80.144	-0.263	0.087
-101.918	-100.793	-0.392	-0.095
-100.903	154.000	0.201	-0.271
-99.889	-3.490	-0.305	0.209
-98.874	85.539	0.141	0.152
-97.859	800.000	-0.133	0.376
-96.845	-133.863	0.262	0.032
-95.830	800.000	0.079	-0.234
-94.816	-108.286	-0.080	-0.017
-93.801	245.358	0.054	-0.089
-92.786	34.008	0.220	-0.188
-91.772	-83.753	0.310	0.097
-90.757	-114.159	-0.040	-0.008
-89.743	229.339	0.105	-0.168
-88.728	-200.000	0.001	-0.049
-87.713	-146.915	-0.198	0.017
-86.699	-180.533	-0.134	0.003
-85.684	113.348	0.141	0.169
-84.670	232.553	-0.119	0.192
-83.655	83.567	0.069	0.074
-82.640	-78.509	-0.330	-0.111
-81.626	-53.186	0.169	-0.076
-80.611	800.000	-0.063	-0.204
-79.597	99.492	-0.199	0.227
-78.582	118.704	0.164	-0.200
-77.567	61.784	-0.352	0.345
-76.553	215.220	-0.149	-0.233
-75.538	-122.773	0.063	-0.010
-74.524	455.723	0.062	-0.135
-73.509	-57.954	-0.150	0.064
-72.494	-200.000	0.016	-0.161
-71.480	-68.599	0.165	-0.063
-70.465	520.122	0.091	-0.210
-69.451	564.525	0.057	0.137
-68.436	-123.381	-0.226	-0.035
-67.422	-74.627	0.418	0.148
-66.407	-113.866	0.379	0.072
-65.392	800.000	-0.134	-0.412
-64.378	-137.009	0.170	-0.019
-63.363	-42.734	0.258	-0.129
-62.349	350.661	-0.173	-0.337
-61.334	3.177	-0.997	-0.713
-60.319	10.430	0.441	0.330
-59.305	-200.000	0.018	-1.305
-58.290	140.780	0.851	1.105
-57.276	285.306	0.733	1.297
-56.261	-200.000	107.238	584.442
-55.246	438.475	1485.851	3184.945
-54.232	144.800	2678.638	3517.503
-53.217	105.368	2171.710	2519.935
-52.203	40.489	1615.164	1428.937
-51.188	32.399	1353.041	1147.886
-50.173	29.396	1311.843	1095.091
-49.159	53.096	1365.286	1283.870
-48.144	53.043	1381.070	1298.340
-47.130	32.602	1336.268	1134.696
-46.115	29.154	1318.622	1099.133
-45.100	28.953	1313.769	1093.850
-44.086	28.946	1311.503	1091.880
-43.071	28.922	1309.297	1089.859
-42.057	28.997	1306.864	1088.230
-41.042	28.901	1305.253	1086.278
-40.027	29.039	1302.964	1085.145
-39.013	28.928	1301.537	1083.262
-37.998	28.927	1299.745	1081.718
-36.984	28.952	1298.161	1080.507
-35.969	29.007	1296.373	1079.297
-34.954	29.066	1294.192	1077.786
-33.940	29.167	1293.307	1077.595
-32.925	29.257	1291.766	1076.797
-31.911	29.173	1290.378	1075.106
-30.896	29.134	1289.462	1074.070
-29.881	29.103	1288.272	1072.856
-28.867	29.105	1286.165	1071.069
-27.852	29.182	1284.599	1070.175
-26.838	29.195	1283.132	1068.984
-25.823	29.211	1281.414	1067.602
-24.809	29.095	1280.868	1066.431
-23.794	29.160	1278.849	1065.087
-22.779	29.074	1278.125	1063.944
-21.765	29.049	1276.781	1062.639
-20.750	29.174	1275.390	1062.160
-19.736	29.115	1273.892	1060.532
-18.721	28.941	1273.040	1058.774
-17.706	29.108	1271.979	1058.814
-16.692	29.096	1270.528	1057.494
-15.677	29.040	1269.536	1056.302
-14.663	29.028	1268.216	1055.097
-13.648	29.003	1267.333	1054.178
-12.633	28.991	1266.494	1053.367
-11.619	28.985	1265.741	1052.664
-10.604	28.955	1264.663	1051.553
-9.590	29.044	1263.661	1051.189
-8.575	28.938	1262.700	1049.740
-7.560	29.043	1261.483	1049.287
-6.546	29.049	1260.716	1048.645
-5.531	29.051	1259.953	1047.981
-4.517	29.053	1258.824	1047.007
-3.502	28.980	1258.188	1046.022
-2.487	29.028	1257.425	1045.620
-1.473	29.033	1253.194	1042.086
-0.458	27.982	1238.690	1024.100
0.556	23.565	1223.509	990.904
1.571	20.282	1230.105	977.687
2.586	19.584	1244.699	985.221
3.600	19.301	1234.186	975.209
4.615	17.442	1167.184	912.233
5.629	13.799	1099.769	841.035
6.644	11.966	1082.461	818.575
7.659	11.926	1080.082	816.503
8.673	11.727	1079.438	814.955
9.688	11.810	1077.857	814.101
10.702	11.946	1075.835	813.177
11.717	14.250	1078.487	826.559
12.731	17.343	1082.160	844.690
13.746	18.181	1082.920	849.373
14.761	17.664	1081.578	845.681
15.775	16.719	1079.196	839.059
16.790	15.595	1076.991	831.711
17.804	14.883	1075.346	826.848
18.819	14.406	1074.168	823.510
19.834	14.135	1073.363	821.482
20.848	13.821	1072.450	819.163
21.863	13.539	1071.696	817.123
22.877	13.519	1070.865	816.320
23.892	13.387	1070.028	814.957
24.907	13.460	1069.422	814.785
25.921	13.566	1068.282	814.365
26.936	13.585	1066.985	813.395
27.950	13.587	1065.640	812.309
28.965	13.636	1064.311	811.464
29.980	13.708	1062.420	810.305
30.994	13.662	1061.483	809.294
32.009	13.666	1060.543	808.524
33.023	13.812	1059.054	808.026
34.038	13.691	1058.765	807.147
35.053	13.641	1057.401	805.791
36.067	13.640	1056.356	804.919
37.082	13.706	1055.353	804.403
38.096	13.708	1055.113	804.159
39.111	13.712	1053.837	803.135
40.126	13.588	1052.876	801.733
41.140	13.571	1051.037	800.178
42.155	13.376	1050.516	798.771
43.169	13.309	1049.576	797.660
44.184	13.372	1048.584	797.140
45.199	13.534	1047.042	796.675
46.213	13.512	1046.398	796.013
47.228	13.595	1045.046	795.311
48.242	13.697	1043.831	794.807
49.257	13.673	1043.069	794.040
50.271	13.661	1042.218	793.266
51.286	13.738	1041.173	792.766
52.301	13.569	1040.530	791.397
53.315	13.595	1039.367	790.568
54.330	13.537	1038.443	789.518
55.344	13.477	1037.477	788.432
56.359	13.634	1036.579	788.426
57.374	13.510	1035.880	787.231
58.388	13.471	1034.405	785.860
59.403	13.427	1033.928	785.218
60.417	13.387	1033.070	784.309
61.432	13.391	1032.066	783.492
62.447	13.419	1031.121	782.839
63.461	13.348	1030.653	782.077
64.476	13.469	1029.309	781.563
65.490	13.387	1028.746	780.679
66.505	13.430	1028.288	780.465
67.520	13.391	1027.776	779.823
68.534	13.392	1026.536	778.815
69.549	13.382	1026.299	778.520
70.563	13.419	1025.034	777.665
71.578	13.276	1024.811	776.756
72.593	13.348	1023.545	776.066
73.607	13.204	1023.053	774.951
74.622	13.326	1022.470	775.009
75.636	13.348	1021.400	774.235
76.651	13.314	1020.672	773.457
77.666	13.300	1020.594	773.263
78.680	13.270	1020.278	772.812
79.695	13.294	1019.274	772.098
80.709	13.308	1018.588	771.575
81.724	13.389	1018.420	771.758
82.739	13.494	1017.021	771.119
83.753	13.634	1016.255	771.118
84.768	13.724	1015.512	770.905
85.782	13.647	1014.451	769.674
86.797	13.724	1013.871	769.523
87.812	13.581	1012.757	767.949
88.826	13.677	1011.856	767.641
89.841	13.675	1010.441	766.490
90.855	13.624	1010.081	765.913
91.870	13.666	1009.204	765.373
92.884	13.624	1008.400	764.505
93.899	13.768	1007.109	764.119
94.914	13.837	1006.472	763.887
95.928	13.742	1005.772	762.853
96.943	13.631	1005.002	761.688
97.957	13.660	1004.040	761.028
98.972	13.724	1002.681	760.224
99.987	13.736	1002.090	759.762
101.001	13.605	1001.413	758.583
102.016	13.702	1000.394	758.188
103.030	13.677	999.670	757.457
104.045	13.594	998.893	756.422
105.060	13.628	998.120	755.923
106.074	13.628	996.971	754.990
107.089	13.452	996.061	753.431
108.103	13.434	995.111	752.564
109.118	13.492	994.156	752.039
110.133	13.451	993.398	751.215
111.147	13.546	992.054	750.562
112.162	13.610	991.349	750.250
113.176	13.632	990.736	749.819
114.191	13.685	990.022	749.452
115.206	13.562	989.188	748.198
116.220	13.658	988.089	747.733
117.235	13.570	986.981	746.435
118.249	13.501	986.538	745.724
119.264	13.660	985.603	745.666
120.279	13.623	984.492	744.590
121.293	13.482	983.743	743.325
122.308	13.402	983.367	742.616
123.322	13.436	981.982	741.660
124.337	13.527	980.858	741.151
125.352	13.496	979.721	740.087
126.366	13.529	978.987	739.615
127.381	13.496	977.924	738.597
128.395	13.483	977.376	738.062
129.410	13.574	975.911	737.298
130.424	13.699	975.162	737.221
131.439	13.440	975.214	736.041
132.454	13.603	973.867	735.687
133.468	13.622	973.047	735.084
134.483	13.532	972.044	733.864
135.497	13.590	971.164	733.390
136.512	13.625	970.498	732.976
137.527	13.664	969.608	732.411
138.541	13.636	969.014	731.776
139.556	13.667	968.397	731.383
140.570	13.742	967.651	731.083
141.585	13.816	966.605	730.554
142.600	13.773	965.978	729.828
143.614	13.816	964.947	729.172
144.629	13.839	964.198	728.644
145.643	13.831	963.277	727.850
146.658	13.864	962.264	727.164
147.673	13.636	961.814	725.762
148.687	13.750	960.920	725.521
149.702	13.712	959.664	724.342
150.716	13.627	959.581	723.845
151.731	13.725	958.073	723.071
152.746	13.691	957.670	722.553
153.760	13.743	957.215	722.371
154.775	13.957	956.470	722.676
155.789	13.943	955.745	722.005
156.804	13.923	955.038	721.320
157.819	13.955	954.703	721.142
158.833	13.827	954.435	720.319
159.848	13.963	953.049	719.801
160.862	13.924	952.132	718.876
161.877	13.891	951.132	717.913
162.892	13.856	950.050	716.882
163.906	13.835	949.595	716.382
164.921	13.771	948.926	715.542
165.935	13.824	947.508	714.637
166.950	13.981	946.499	714.486
167.964	13.846	945.903	713.396
168.979	13.797	944.891	712.358
169.994	13.887	944.347	712.269
171.008	13.888	943.720	711.737
172.023	13.984	942.945	711.503
173.037	14.026	942.328	711.153
174.052	13.902	941.728	710.107
175.067	13.892	940.815	709.315
176.081	13.862	940.109	708.589
177.096	13.842	940.111	708.444
178.110	13.814	939.394	707.723
179.125	13.915	938.318	707.279
180.140	14.011	938.166	707.511
181.154	14.064	937.053	706.834
182.169	13.989	937.064	706.460
183.183	14.142	935.925	706.187
184.198	14.140	935.564	705.845
185.213	14.089	934.864	705.037
186.227	14.136	934.022	704.542
187.242	14.139	933.593	704.166
188.256	14.273	932.645	703.955
189.271	14.160	931.865	702.826
190.286	14.075	931.162	701.877
191.300	13.965	930.154	700.591
192.315	14.016	929.542	700.282
193.329	13.840	929.553	699.488
194.344	14.030	928.979	699.794
195.359	13.941	928.070	698.674
196.373	14.178	927.437	699.130
197.388	14.161	927.238	698.845
198.402	14.299	926.602	698.887
199.417	14.413	926.240	699.030
200.432	14.311	925.751	698.169
201.446	14.301	925.106	697.581
202.461	14.418	924.433	697.498
203.475	14.425	923.857	697.032
204.490	14.495	923.126	696.714
205.504	14.394	922.311	695.612
206.519	14.413	921.215	694.807
207.534	14.382	920.584	694.140
208.548	14.354	920.174	693.652
209.563	14.327	919.671	693.099
210.577	14.334	919.080	692.622
211.592	14.603	917.940	692.819
212.607	14.552	917.242	692.016
213.621	14.585	916.330	691.407
214.636	14.630	916.092	691.349
215.650	14.619	915.428	690.742
216.665	14.676	914.819	690.460
217.680	14.531	914.265	689.380
218.694	14.567	913.164	688.638
219.709	14.753	912.610	688.926
220.723	14.750	912.014	688.404
221.738	14.725	911.204	687.629
222.753	14.639	910.558	686.727
223.767	14.584	910.001	686.018
224.782	14.624	909.823	685.989
225.796	14.755	908.839	685.724
226.811	14.746	908.221	685.158
227.826	14.614	907.582	684.075
228.840	14.798	906.511	683.961
229.855	14.719	905.598	682.887
230.869	14.584	905.412	682.134
231.884	14.768	904.435	682.091
232.899	14.574	903.836	680.787
233.913	14.673	903.302	680.728
234.928	14.558	902.643	679.703
235.942	14.543	902.054	679.138
236.957	14.726	901.780	679.618
237.972	14.738	900.729	678.815
238.986	14.681	900.174	678.101
240.001	14.774	899.234	677.711
241.015	14.735	898.753	677.131
242.030	14.754	898.236	676.759
243.045	14.742	898.128	676.569
244.059	14.739	897.277	675.856
245.074	14.965	896.200	675.898
246.088	14.893	895.802	675.247
247.103	14.951	895.294	675.041
248.117	14.901	895.066	674.606
249.132	15.103	894.039	674.584
250.147	15.049	893.507	673.908
251.161	15.182	892.623	673.715
252.176	15.294	892.269	673.838
253.190	15.371	891.601	673.583
254.205	15.306	890.698	672.582
255.220	15.246	890.127	671.849
256.234	15.319	889.663	671.735
257.249	15.403	889.032	671.534
258.263	15.342	887.984	670.439
259.278	15.346	887.281	669.866
260.293	15.303	886.936	669.372
261.307	15.343	886.799	669.372
262.322	15.405	885.850	668.843
263.336	15.339	885.067	667.929
264.351	15.264	884.350	667.032
265.366	15.488	883.853	667.488
266.380	15.395	883.338	666.670
267.395	15.357	882.542	665.860
268.409	15.318	881.879	665.145
269.424	15.360	881.279	664.800
270.439	15.368	880.532	664.209
271.453	15.478	879.462	663.777
272.468	15.439	879.330	663.467
273.482	15.410	878.795	662.891
274.497	15.478	877.935	662.452
275.512	15.429	877.685	662.011
276.526	15.454	876.772	661.362
277.541	15.457	876.657	661.229
278.555	15.609	875.948	661.233
279.570	15.599	875.004	660.421
280.585	15.662	874.232	660.029
281.599	15.516	873.569	658.895
282.614	15.468	873.168	658.349
283.628	15.595	872.125	658.000
284.643	15.580	871.753	657.604
285.657	15.585	871.394	657.292
286.672	15.761	870.365	657.145
287.687	15.592	870.268	656.354
288.701	15.705	869.113	655.867
289.716	15.743	868.677	655.629
290.730	15.866	868.169	655.666
291.745	15.688	867.798	654.634
292.760	15.775	866.855	654.204
293.774	15.705	866.418	653.543
294.789	15.764	865.827	653.270
295.803	15.857	864.732	652.745
296.818	15.631	864.242	651.444
297.833	15.830	863.434	651.545
298.847	15.837	862.793	651.032
299.862	15.908	861.972	650.631
300.876	15.881	862.130	650.585
301.891	15.826	861.777	650.049
302.906	15.963	861.316	650.174
303.920	16.124	860.377	650.029
304.935	16.126	859.815	649.555
305.949	15.988	859.337	648.602
306.964	16.003	858.641	648.080
307.979	16.038	858.216	647.835
308.993	16.102	857.265	647.305
310.008	16.167	856.516	646.933
311.022	16.123	856.166	646.440
312.037	16.121	855.571	645.928
313.052	16.106	854.943	645.338
314.066	15.971	854.534	644.456
315.081	16.083	853.816	644.287
316.095	15.895	853.298	643.121
317.110	16.041	852.737	643.198
318.125	16.060	852.276	642.866
319.139	16.001	851.962	642.347
320.154	16.072	851.429	642.161
321.168	16.146	850.718	641.846
322.183	16.215	850.343	641.771
323.197	16.123	849.619	640.816
324.212	16.223	849.086	640.739
325.227	16.162	848.505	640.012
326.241	16.152	848.105	639.616
327.256	16.169	847.515	639.180
328.270	16.206	846.848	638.759
329.285	16.119	846.418	638.050
330.300	16.150	845.754	637.608
331.314	16.180	845.070	637.150
332.329	16.266	844.839	637.246
333.343	16.235	844.476	636.797
334.358	16.205	844.170	636.398
335.373	16.306	843.455	636.183
336.387	16.272	843.628	636.128
337.402	16.408	843.052	636.149
338.416	16.511	842.049	635.722
339.431	16.397	842.160	635.324
340.446	16.521	841.743	635.418
341.460	16.575	841.165	635.128
342.475	16.466	841.167	634.665
343.489	16.576	840.580	634.578
344.504	16.547	840.202	634.129
345.519	16.693	839.574	634.145
346.533	16.762	838.724	633.703
347.548	16.585	838.475	632.796
348.562	16.469	838.115	632.038
349.577	16.616	837.052	631.730
350.592	16.552	836.448	630.979
351.606	16.565	835.744	630.441
352.621	16.449	835.073	629.447
353.635	16.667	834.270	629.594
354.650	16.566	834.182	629.099
355.665	16.749	833.384	629.118
356.679	16.642	832.876	628.282
357.694	16.629	832.313	627.755
358.708	16.635	831.771	627.314
359.723	16.724	830.904	626.932
360.738	16.579	830.392	625.956
361.752	16.791	829.610	626.095
362.767	16.677	829.357	625.424
363.781	16.711	828.820	625.089
364.796	16.863	828.119	625.067
365.810	16.890	828.219	625.187
366.825	16.977	827.638	625.016
367.840	16.981	827.065	624.541
368.854	17.037	825.990	623.881
369.869	16.888	825.773	623.114
370.883	16.947	825.371	622.970
371.898	16.944	825.241	622.809
372.913	17.070	824.850	622.918
373.927	16.918	824.469	622.019
374.942	17.021	823.957	621.955
375.956	17.121	823.583	621.982
376.971	17.129	823.254	621.709
377.986	17.153	822.537	621.202
379.000	17.205	822.546	621.343
380.015	17.095	822.033	620.500
381.029	17.341	820.847	620.444
382.044	17.146	820.539	619.447
383.059	17.427	819.713	619.794
384.073	17.309	819.397	619.069
385.088	17.156	818.601	617.857
386.102	17.157	818.119	617.442
387.117	17.331	817.398	617.476
388.132	17.210	816.919	616.618
389.146	17.207	816.258	616.053
390.161	17.269	815.691	615.798
391.175	17.459	815.045	615.943
392.190	17.367	814.769	615.346
393.205	17.210	814.699	614.672
394.219	17.358	813.864	614.521
395.234	17.314	813.320	613.899
396.248	17.188	813.235	613.325
397.263	17.079	812.981	612.685
398.278	17.183	812.773	612.850
399.292	17.122	812.458	612.337
400.307	17.287	811.409	612.087
401.321	17.200	811.148	611.522
402.336	17.287	810.816	611.532
403.350	17.302	810.291	611.137
404.365	17.393	810.120	611.279
405.380	17.323	809.302	610.357
406.394	17.527	808.378	610.336
407.409	17.615	808.066	610.363
408.423	17.470	808.026	609.759
409.438	17.586	807.720	609.891
410.453	17.580	807.429	609.596
411.467	17.542	806.733	608.879
412.482	17.727	806.358	609.204
413.496	17.549	806.479	608.604
414.511	17.700	805.630	608.449
415.526	17.683	805.402	608.161
416.540	17.875	804.416	608.048
417.555	17.725	804.295	607.368
418.569	17.597	804.415	606.949
419.584	17.734	803.376	606.599
420.599	17.618	803.140	605.956
421.613	109.677	1292.328	1469.639
422.628	94.500	1363.579	1469.742
