DTS Sentinel unit serial number:	SN413079Multiplexer serial number:	ORYXHardware model number:	OX4-SRSoftware version number:	ORYX F/W v4.00 Oryx Data Collector v3.7.2.0data status	okinstallation	princeton_trtdifferential loss correction	single-endedforward channel	channel 1reverse channel	N/Adate	2019/09/11time	07:44:11forward acquisition time	60.00reverse acquisition time	0.00gamma	496.2192k internal	0.2323k external	0.2323temperature offset calibration	0.9924default loss term (dB/km)	0.3790temperature slope calibration	1.0000multiplexer offset coefficient	1.0000multiplexer slope coefficient	1.0000fibre end	0.00T internal ref (°C)	31.56T ext. ref 1 (°C)	0.18T ext. ref 2 (°C)	27.68length (m)	temperature (°C)	Stokes	anti-Stokes-747.200	379.047	-0.036	0.075
-746.185	-82.813	-0.274	0.090
-745.171	-200.000	0.003	-0.084
-744.156	-142.289	0.223	-0.022
-743.142	-29.842	-0.138	0.079
-742.127	99.345	0.103	0.121
-741.112	-116.463	0.101	-0.019
-740.098	-200.000	0.038	0.250
-739.083	-127.106	0.297	-0.044
-738.069	141.444	-0.172	0.230
-737.054	-200.000	-0.009	-0.128
-736.039	520.644	-0.093	0.219
-735.025	-200.000	-0.006	-0.096
-734.010	-0.071	0.136	0.098
-732.996	-2.570	-0.159	-0.112
-731.981	-72.663	-0.476	-0.177
-730.966	-200.000	-0.056	-0.485
-729.952	-13.190	-0.144	0.094
-728.937	106.348	-0.112	-0.134
-727.923	-59.617	0.194	-0.084
-726.908	800.000	0.060	-0.249
-725.894	-39.333	-0.131	0.069
-724.879	-20.187	-0.228	-0.142
-723.864	800.000	0.066	-0.234
-722.850	-200.000	-0.032	-0.316
-721.835	19.995	0.166	0.135
-720.821	20.884	-0.280	0.229
-719.806	800.000	-0.068	-0.253
-718.791	-200.000	0.005	-0.243
-717.777	-100.158	-0.105	-0.026
-716.762	-69.887	0.114	0.044
-715.748	70.138	0.279	0.291
-714.733	-177.036	-0.205	-0.005
-713.718	-31.834	-0.029	-0.016
-712.704	-200.000	0.014	0.076
-711.689	800.000	0.040	0.153
-710.675	-86.716	-0.175	-0.054
-709.660	-100.056	-0.077	-0.019
-708.645	-200.000	0.016	0.317
-707.631	-39.453	-0.162	-0.085
-706.616	779.933	-0.141	0.388
-705.602	-200.000	0.016	0.104
-704.587	-41.634	-0.140	0.073
-703.572	272.444	0.057	-0.102
-702.558	-56.617	-0.024	0.011
-701.543	422.147	0.134	-0.290
-700.529	103.085	-0.298	-0.352
-699.514	-40.161	-0.035	0.019
-698.499	-104.100	0.335	-0.079
-697.485	-28.279	-0.214	0.125
-696.470	-150.909	-0.454	-0.035
-695.456	126.414	-0.076	-0.096
-694.441	-200.000	0.017	0.263
-693.426	-82.834	-0.184	0.060
-692.412	-200.000	0.016	0.224
-691.397	119.828	-0.095	0.118
-690.383	113.966	-0.162	-0.198
-689.368	-59.780	-0.275	0.119
-688.354	81.066	0.101	0.109
-687.339	-31.122	-0.215	-0.122
-686.324	87.358	-0.426	-0.475
-685.310	-200.000	0.015	-0.108
-684.295	87.370	0.117	-0.130
-683.281	565.033	0.152	-0.370
-682.266	-74.397	-0.142	-0.052
-681.251	800.000	-0.060	-0.230
-680.237	29.420	-0.152	0.130
-679.222	109.272	0.190	0.229
-678.208	-139.835	-0.151	-0.016
-677.193	-200.000	0.053	-0.310
-676.178	-110.040	0.484	0.102
-675.164	-200.000	-0.050	-0.323
-674.149	-120.591	0.278	-0.047
-673.135	-40.277	0.345	0.181
-672.120	-200.000	-0.226	-0.001
-671.105	-107.509	-0.227	-0.050
-670.091	-136.240	0.158	0.019
-669.076	62.308	-0.262	0.263
-668.062	-107.649	-0.109	-0.024
-667.047	387.545	0.127	-0.265
-666.032	-144.530	-0.172	0.016
-665.018	62.784	-0.115	-0.116
-664.003	-162.751	0.141	-0.007
-662.989	-58.329	0.202	0.088
-661.974	800.000	0.055	0.193
-660.959	800.000	0.035	0.116
-659.945	-70.430	0.233	-0.089
-658.930	-117.029	0.315	0.058
-657.916	106.294	0.144	-0.172
-656.901	-200.000	-0.020	0.127
-655.886	-76.746	-0.233	0.082
-654.872	-69.580	-0.273	0.105
-653.857	-131.988	-0.181	0.024
-652.843	-200.000	-0.072	-0.530
-651.828	-200.000	-0.021	-0.282
-650.814	800.000	0.031	-0.092
-649.799	-156.265	0.449	-0.028
-648.784	-79.236	-0.376	-0.128
-647.770	481.664	-0.114	-0.260
-646.755	-200.000	-0.017	0.085
-645.741	53.968	-0.181	-0.175
-644.726	-73.625	0.312	-0.114
-643.711	-72.474	-0.028	-0.010
-642.697	-200.000	-0.004	0.101
-641.682	-67.297	-0.300	0.119
-640.668	-200.000	-0.004	0.359
-639.653	-48.703	-0.157	0.076
-638.638	326.904	0.184	-0.354
-637.624	48.188	-0.158	-0.149
-636.609	144.687	-0.202	-0.271
-635.595	-22.363	0.096	0.059
-634.580	-116.588	0.049	0.009
-633.565	-99.295	-0.270	-0.069
-632.551	52.537	0.136	-0.131
-631.536	51.692	-0.062	-0.060
-630.522	-12.024	0.151	-0.099
-629.507	-200.000	-0.063	-0.452
-628.492	-179.518	0.316	-0.007
-627.478	42.199	-0.089	-0.082
-626.463	-7.717	-0.122	0.083
-625.449	6.635	-0.149	0.111
-624.434	-200.000	0.081	-0.366
-623.419	-26.006	-0.135	-0.080
-622.405	800.000	-0.022	-0.096
-621.390	-200.000	0.044	0.213
-620.376	0.365	-0.127	-0.091
-619.361	800.000	-0.056	0.225
-618.346	704.010	-0.044	-0.117
-617.332	234.773	-0.174	0.288
-616.317	800.000	0.031	0.124
-615.303	-200.000	0.001	0.265
-614.288	-200.000	0.010	0.196
-613.273	147.675	0.099	-0.134
-612.259	46.110	0.233	0.216
-611.244	-200.000	-0.005	0.048
-610.230	800.000	0.063	0.262
-609.215	-200.000	-0.038	-0.466
-608.201	-16.651	0.251	-0.160
-607.186	119.483	-0.147	-0.183
-606.171	-200.000	0.021	-0.198
-605.157	-105.139	0.212	0.049
-604.142	-200.000	0.002	0.054
-603.128	-13.049	0.115	-0.075
-602.113	44.912	0.105	0.097
-601.098	78.998	-0.075	0.080
-600.084	800.000	0.080	0.343
-599.069	-79.950	0.215	-0.072
-598.055	-200.000	0.020	0.097
-597.040	-109.316	0.248	-0.053
-596.025	800.000	0.109	-0.355
-595.011	-131.927	0.288	0.038
-593.996	-122.270	-0.431	-0.071
-592.982	147.436	0.163	0.221
-591.967	-73.970	0.125	-0.046
-590.952	-30.454	-0.038	-0.022
-589.938	540.949	0.104	-0.250
-588.923	-70.791	0.198	-0.075
-587.909	-97.359	-0.109	0.028
-586.894	297.830	-0.158	-0.291
-585.879	-84.050	-0.490	-0.156
-584.865	-66.015	0.204	0.082
-583.850	-49.995	0.303	-0.144
-582.836	800.000	0.030	-0.126
-581.821	-41.552	-0.304	-0.157
-580.806	-40.049	-0.022	0.012
-579.792	800.000	-0.064	-0.280
-578.777	-96.870	0.130	-0.034
-577.763	-124.621	-0.202	0.032
-576.748	-200.000	-0.033	0.256
-575.733	-154.747	0.103	0.007
-574.719	165.678	0.097	0.137
-573.704	-56.144	-0.058	-0.026
-572.690	-200.000	-0.005	-0.107
-571.675	-105.890	0.386	0.087
-570.661	3.504	0.322	-0.235
-569.646	-34.839	-0.154	-0.084
-568.631	97.064	0.053	0.061
-567.617	-200.000	0.098	0.452
-566.602	-14.922	0.059	0.038
-565.588	59.059	0.136	0.134
-564.573	490.048	0.077	-0.176
-563.558	2.564	0.190	0.138
-562.544	-49.146	-0.132	-0.063
-561.529	-127.018	0.073	-0.011
-560.515	-200.000	-0.005	-0.219
-559.500	777.174	-0.118	0.324
-558.485	653.853	0.011	-0.027
-557.471	-200.000	0.069	0.361
-556.456	380.448	0.020	-0.041
-555.442	148.918	-0.103	-0.139
-554.427	-200.000	-0.021	-0.334
-553.412	499.577	0.118	-0.272
-552.398	662.359	-0.112	0.289
-551.383	800.000	-0.043	-0.180
-550.369	-200.000	0.002	0.431
-549.354	-200.000	0.039	0.284
-548.339	-200.000	-0.030	-0.221
-547.325	-128.264	0.304	0.043
-546.310	-200.000	0.101	0.448
-545.296	-105.776	-0.348	-0.079
-544.281	800.000	0.099	-0.297
-543.266	-200.000	0.069	-0.312
-542.252	109.460	-0.012	0.014
-541.237	338.589	-0.081	-0.158
-540.223	26.769	-0.183	-0.154
-539.208	317.830	0.093	-0.175
-538.193	208.317	0.079	-0.123
-537.179	400.133	0.026	-0.055
-536.164	-96.540	0.179	0.047
-535.150	261.777	0.096	-0.166
-534.135	-160.877	0.286	-0.015
-533.121	-17.368	-0.328	-0.207
-532.106	-200.000	0.020	-0.142
-531.091	-81.589	-0.125	0.041
-530.077	-200.000	-0.018	0.416
-529.062	-145.661	0.166	0.015
-528.048	-141.007	-0.090	0.009
-527.033	-165.488	0.201	0.009
-526.018	800.000	-0.022	-0.072
-525.004	-164.231	-0.320	0.015
-523.989	-200.000	-0.011	-0.259
-522.975	-80.108	-0.157	-0.053
-521.960	66.524	-0.198	-0.202
-520.945	61.995	0.311	-0.310
-519.931	-143.819	-0.229	0.022
-518.916	-45.220	0.024	-0.012
-517.902	-169.065	-0.230	-0.009
-516.887	188.277	-0.090	-0.134
-515.872	733.305	0.060	-0.160
-514.858	626.653	0.043	-0.108
-513.843	-200.000	-0.045	-0.257
-512.829	113.695	-0.019	0.023
-511.814	-133.377	-0.055	-0.007
-510.799	469.402	0.113	-0.255
-509.785	-107.337	-0.332	0.073
-508.770	51.597	-0.119	0.113
-507.756	-106.327	0.127	0.028
-506.741	-200.000	0.032	0.268
-505.726	177.742	0.167	0.244
-504.712	-70.482	-0.132	-0.050
-503.697	-96.282	0.150	-0.040
-502.683	800.000	-0.039	-0.165
-501.668	427.658	-0.029	-0.063
-500.653	-83.138	0.043	0.014
-499.639	-156.079	0.158	0.010
-498.624	4.246	0.130	-0.095
-497.610	-4.356	0.212	0.146
-496.595	51.721	-0.130	-0.124
-495.581	11.797	-0.279	0.214
-494.566	72.307	0.297	0.310
-493.551	-200.000	-0.014	0.376
-492.537	-200.000	0.047	-0.274
-491.522	-78.686	-0.124	-0.042
-490.508	-36.349	-0.216	0.116
-489.493	330.808	-0.110	-0.212
-488.478	-38.856	0.036	0.019
-487.464	351.774	0.173	-0.343
-486.449	474.440	0.039	-0.089
-485.435	800.000	0.018	0.054
-484.420	-97.900	0.068	-0.017
-483.405	-113.254	0.530	-0.104
-482.391	472.761	0.200	0.449
-481.376	82.607	0.265	0.287
-480.362	-65.913	0.160	-0.064
-479.347	138.068	0.220	0.288
-478.332	800.000	0.057	0.226
-477.318	346.858	-0.042	0.082
-476.303	800.000	-0.014	-0.045
-475.289	-200.000	-0.001	-0.027
-474.274	1.293	-0.126	0.091
-473.259	-60.687	0.246	-0.104
-472.245	800.000	0.077	0.267
-471.230	-80.901	0.179	0.059
-470.216	-200.000	-0.009	0.282
-469.201	150.858	0.181	0.246
-468.186	-69.457	0.242	0.093
-467.172	108.085	0.188	-0.223
-466.157	12.121	-0.272	-0.209
-465.143	-200.000	0.019	0.136
-464.128	12.734	-0.207	0.160
-463.113	-200.000	-0.024	-0.114
-462.099	161.004	0.055	0.076
-461.084	95.951	-0.040	-0.045
-460.070	-73.919	0.098	-0.036
-459.055	60.473	-0.289	0.286
-458.040	726.533	-0.131	0.350
-457.026	-96.819	-0.191	0.050
-456.011	128.656	0.107	0.136
-454.997	100.354	0.181	-0.209
-453.982	-200.000	0.001	0.126
-452.968	-35.167	-0.229	0.125
-451.953	109.038	0.119	-0.142
-450.938	-141.788	0.110	0.011
-449.924	800.000	0.024	0.075
-448.909	-200.000	0.037	0.279
-447.895	-94.807	-0.298	-0.081
-446.880	-200.000	-0.010	0.349
-445.865	-113.097	-0.265	-0.052
-444.851	-86.027	-0.194	0.060
-443.836	469.178	-0.125	0.279
-442.822	-20.134	-0.174	-0.107
-441.807	637.636	0.139	0.353
-440.792	116.974	-0.327	0.401
-439.778	-66.551	-0.057	-0.023
-438.763	-13.206	0.178	-0.115
-437.749	-173.983	-0.490	-0.014
-436.734	-200.000	-0.020	-0.266
-435.719	69.756	-0.093	0.096
-434.705	-89.906	0.129	-0.038
-433.690	-200.000	-0.050	-0.336
-432.676	768.056	0.109	0.296
-431.661	-105.034	-0.152	0.035
-430.646	392.078	-0.097	-0.200
-429.632	80.905	-0.078	0.083
-428.617	-66.105	0.239	-0.095
-427.603	-200.000	-0.005	0.122
-426.588	-200.000	-0.004	0.327
-425.573	-200.000	0.011	-0.071
-424.559	171.208	-0.190	-0.271
-423.544	800.000	0.071	-0.251
-422.530	-127.405	-0.242	-0.035
-421.515	-102.618	-0.148	0.035
-420.500	-35.729	0.325	0.176
-419.486	-25.190	-0.204	0.121
-418.471	137.553	0.016	-0.021
-417.457	-151.469	0.352	0.026
-416.442	-5.058	0.158	-0.108
-415.428	14.176	-0.245	-0.190
-414.413	4.046	-0.121	-0.088
-413.398	800.000	0.105	0.389
-412.384	-15.984	0.291	-0.184
-411.369	135.869	-0.093	-0.121
-410.355	-76.873	-0.269	-0.094
-409.340	-34.140	0.340	-0.186
-408.325	323.516	-0.149	-0.284
-407.311	-19.562	0.179	-0.110
-406.296	-200.000	-0.008	0.122
-405.282	-60.495	-0.085	0.036
-404.267	-30.163	-0.290	0.165
-403.252	-100.431	-0.447	0.110
-402.238	178.124	-0.193	0.281
-401.223	438.042	0.149	-0.325
-400.209	-126.097	0.333	-0.050
-399.194	-87.424	-0.210	-0.063
-398.179	80.947	0.340	0.365
-397.165	177.301	0.165	-0.239
-396.150	-108.576	0.355	-0.076
-395.136	164.016	-0.142	0.199
-394.121	-200.000	-0.036	0.240
-393.106	-200.000	-0.011	0.193
-392.092	293.881	0.122	0.221
-391.077	11.840	-0.224	0.171
-390.063	-91.159	-0.081	0.023
-389.048	511.434	0.081	0.188
-388.033	23.461	0.245	0.200
-387.019	-132.327	0.284	0.037
-386.004	-39.587	-0.155	-0.081
-384.990	66.231	-0.207	-0.210
-383.975	38.312	-0.085	0.076
-382.960	316.877	0.044	0.082
-381.946	354.459	-0.216	0.427
-380.931	-200.000	-0.052	0.285
-379.917	-33.345	0.281	0.155
-378.902	-200.000	0.012	0.173
-377.888	480.409	0.158	-0.357
-376.873	53.516	0.152	0.145
-375.858	-200.000	-0.106	0.000
-374.844	461.715	-0.019	0.042
-373.829	142.108	0.299	0.395
-372.815	-41.852	0.144	0.073
-371.800	47.442	0.280	-0.260
-370.785	418.556	-0.140	-0.299
-369.771	-49.915	0.228	0.108
-368.756	-35.477	0.110	-0.060
-367.742	-9.119	0.039	-0.026
-366.727	800.000	0.036	-0.156
-365.712	687.924	-0.095	-0.247
-364.698	-116.256	-0.026	-0.005
-363.683	162.543	-0.124	-0.173
-362.669	25.939	-0.214	0.178
-361.654	-57.832	0.122	0.053
-360.639	-200.000	-0.005	-0.221
-359.625	-93.110	0.102	-0.028
-358.610	-200.000	0.003	0.017
-357.596	-135.627	-0.208	0.025
-356.581	3.700	-0.035	0.025
-355.566	245.564	0.132	0.221
-354.552	-161.453	0.160	0.008
-353.537	373.415	-0.123	0.248
-352.523	800.000	0.010	-0.032
-351.508	240.056	0.213	-0.354
-350.493	-140.115	0.228	0.024
-349.479	-105.180	0.353	-0.080
-348.464	-100.649	-0.122	-0.030
-347.450	-99.957	0.292	0.072
-346.435	414.678	0.080	-0.168
-345.420	34.542	-0.180	-0.156
-344.406	264.095	-0.073	-0.125
-343.391	-0.750	0.107	-0.076
-342.377	-91.225	0.265	-0.075
-341.362	-101.017	-0.154	0.038
-340.348	242.572	-0.066	0.110
-339.333	-138.543	-0.087	-0.009
-338.318	169.286	0.159	0.225
-337.304	101.485	-0.074	0.086
-336.289	176.040	-0.274	-0.395
-335.275	81.444	-0.098	0.105
-334.260	-88.705	0.041	-0.012
-333.245	-200.000	-0.016	0.151
-332.231	-136.985	0.201	-0.023
-331.216	-91.428	0.486	-0.138
-330.202	11.697	-0.256	0.196
-329.187	-200.000	0.038	-0.184
-328.172	-200.000	-0.021	-0.154
-327.158	-200.000	0.006	0.365
-326.143	-95.703	0.273	-0.072
-325.129	-30.335	0.441	-0.248
-324.114	-91.563	-0.174	0.049
-323.099	-82.423	-0.017	-0.005
-322.085	-200.000	0.006	0.038
-321.070	-64.578	-0.248	-0.100
-320.056	32.677	-0.076	0.065
-319.041	-200.000	-0.001	0.082
-318.026	225.415	0.184	0.296
-317.012	102.514	-0.053	-0.062
-315.997	50.617	0.183	0.172
-314.983	-200.000	-0.001	0.180
-313.968	296.604	-0.056	-0.103
-312.953	-200.000	0.046	-0.291
-311.939	-115.002	0.446	0.084
-310.924	-59.102	-0.057	0.024
-309.910	-29.856	0.334	-0.189
-308.895	-85.564	0.222	-0.068
-307.880	-200.000	-0.002	0.464
-306.866	800.000	-0.052	-0.178
-305.851	800.000	0.013	-0.045
-304.837	-174.984	0.118	0.003
-303.822	70.757	0.107	0.110
-302.807	-8.837	0.426	0.283
-301.793	-162.530	-0.305	-0.015
-300.778	800.000	0.091	-0.317
-299.764	-200.000	0.026	-0.292
-298.749	-69.887	0.191	0.072
-297.735	-162.292	0.240	-0.012
-296.720	-27.191	0.291	-0.168
-295.705	-43.139	-0.053	0.027
-294.691	-160.964	-0.205	-0.011
-293.676	136.171	-0.166	0.215
-292.662	-200.000	-0.029	-0.159
-291.647	325.126	-0.113	0.214
-290.632	-69.993	-0.105	0.040
-289.618	-173.865	0.196	-0.006
-288.603	-33.559	0.052	0.029
-287.589	-8.966	-0.111	0.074
-286.574	800.000	0.072	-0.240
-285.559	800.000	-0.102	-0.400
-284.545	-110.568	-0.466	-0.096
-283.530	-133.453	-0.164	0.020
-282.516	36.855	-0.057	-0.050
-281.501	800.000	0.014	-0.041
-280.486	-50.088	0.169	-0.079
-279.472	-67.422	-0.207	-0.081
-278.457	-178.686	-0.345	-0.008
-277.443	275.372	-0.141	0.248
-276.428	-200.000	0.030	-0.175
-275.413	-22.903	0.111	-0.067
-274.399	125.750	-0.132	-0.166
-273.384	-200.000	0.008	0.169
-272.370	220.328	-0.203	0.323
-271.355	800.000	0.047	0.145
-270.340	408.974	-0.063	0.132
-269.326	-96.671	0.239	-0.062
-268.311	800.000	0.057	0.210
-267.297	-200.000	0.026	-0.225
-266.282	-93.507	-0.160	0.044
-265.267	46.717	0.100	-0.092
-264.253	-81.516	-0.400	0.130
-263.238	328.089	0.152	-0.289
-262.224	-55.422	-0.344	-0.153
-261.209	-200.000	0.004	-0.025
-260.195	619.998	-0.177	0.441
-259.180	-43.228	0.187	0.094
-258.165	5.481	0.101	0.074
-257.151	90.780	0.178	-0.198
-256.136	800.000	0.065	-0.270
-255.122	171.820	-0.069	-0.099
-254.107	2.487	-0.228	-0.164
-253.092	-200.000	0.080	-0.471
-252.078	32.244	-0.145	0.124
-251.063	-115.349	-0.325	-0.061
-250.049	-13.093	0.115	0.074
-249.034	-169.186	0.153	-0.006
-248.019	109.078	-0.033	-0.040
-247.005	744.457	0.084	-0.224
-245.990	-147.388	-0.092	0.008
-244.976	-93.093	0.254	-0.070
-243.961	-200.000	0.004	-0.050
-242.946	-71.753	-0.182	0.067
-241.932	-116.624	-0.301	-0.055
-240.917	-200.000	0.046	-0.231
-239.903	-86.797	-0.305	-0.092
-238.888	-72.819	0.035	-0.013
-237.873	136.296	-0.211	-0.272
-236.859	-153.975	-0.236	0.016
-235.844	-63.204	-0.284	0.116
-234.830	76.139	0.195	0.205
-233.815	62.184	-0.241	-0.238
-232.800	800.000	-0.048	0.174
-231.786	35.197	-0.124	0.108
-230.771	-200.000	-0.018	0.121
-229.757	-29.603	-0.388	0.219
-228.742	-113.428	-0.260	0.051
-227.727	-185.192	0.443	-0.007
-226.713	-68.275	-0.109	0.042
-225.698	-7.594	-0.179	0.120
-224.684	-200.000	-0.004	-0.137
-223.669	44.558	-0.058	0.052
-222.655	151.973	-0.319	0.430
-221.640	-73.439	-0.108	0.039
-220.625	-101.171	-0.057	-0.014
-219.611	73.056	-0.074	0.076
-218.596	174.869	0.069	-0.098
-217.582	-200.000	0.007	-0.164
-216.567	-81.072	-0.058	-0.019
-215.552	800.000	-0.128	-0.363
-214.538	27.340	0.230	-0.191
-213.523	-66.939	-0.145	0.057
-212.509	800.000	0.097	0.380
-211.494	95.720	0.171	0.193
-210.479	-200.000	0.336	-0.001
-209.465	-120.546	-0.344	0.058
-208.450	-67.376	-0.090	-0.035
-207.436	14.044	-0.084	-0.065
-206.421	21.920	-0.089	0.072
-205.406	-54.250	-0.091	-0.041
-204.392	12.596	-0.107	0.082
-203.377	-84.291	-0.157	-0.049
-202.363	800.000	0.055	0.175
-201.348	-144.147	-0.234	-0.022
-200.333	800.000	-0.096	0.307
-199.319	-200.000	0.030	-0.347
-198.304	323.596	0.127	0.239
-197.290	3.437	-0.138	-0.099
-196.275	-198.581	0.032	0.000
-195.260	800.000	0.045	0.161
-194.246	187.229	-0.132	-0.194
-193.231	-56.834	0.171	0.075
-192.217	253.393	0.099	0.166
-191.202	-200.000	0.035	-0.411
-190.187	-200.000	-0.035	-0.205
-189.173	-149.542	0.120	0.009
-188.158	53.743	-0.134	0.127
-187.144	800.000	0.100	0.311
-186.129	-122.435	0.028	-0.005
-185.114	306.652	-0.111	0.205
-184.100	118.506	0.131	0.160
-183.085	112.046	-0.212	-0.253
-182.071	-57.419	0.088	0.038
-181.056	5.206	0.152	-0.111
-180.042	-60.891	-0.209	0.087
-179.027	-87.500	-0.298	0.089
-178.012	-54.545	-0.180	0.080
-176.998	-57.702	0.219	-0.095
-175.983	-135.259	-0.356	0.042
-174.969	-200.000	0.025	0.158
-173.954	-136.517	0.275	-0.031
-172.939	54.421	0.202	0.192
-171.925	74.396	-0.113	0.118
-170.910	0.960	-0.249	0.176
-169.896	-200.000	-0.033	0.188
-168.881	14.974	0.338	0.261
-167.866	-200.000	0.023	-0.110
-166.852	-68.538	-0.017	-0.007
-165.837	55.683	-0.178	0.170
-164.823	220.007	0.149	-0.236
-163.808	377.968	0.063	-0.127
-162.793	-81.949	0.277	0.089
-161.779	-200.000	-0.016	-0.238
-160.764	-200.000	-0.014	-0.065
-159.750	-156.682	-0.092	-0.006
-158.735	-81.371	-0.284	-0.092
-157.720	52.650	-0.259	-0.244
-156.706	-29.570	-0.083	-0.047
-155.691	-117.319	0.203	-0.036
-154.677	98.163	0.084	-0.096
-153.662	-200.000	0.023	-0.414
-152.647	-200.000	0.007	0.230
-151.633	-43.793	-0.227	-0.113
-150.618	9.267	-0.229	0.170
-149.604	-150.549	0.169	-0.013
-148.589	526.416	-0.075	0.174
-147.574	91.131	-0.131	-0.145
-146.560	197.794	0.055	0.083
-145.545	-85.849	-0.210	0.064
-144.531	-51.653	0.135	-0.062
-143.516	-200.000	0.245	0.001
-142.502	41.589	0.075	-0.067
-141.487	-55.036	0.266	0.118
-140.472	19.862	0.169	0.134
-139.458	791.746	0.084	0.226
-138.443	6.821	0.034	0.025
-137.429	-84.386	0.191	-0.060
-136.414	-200.000	0.044	-0.310
-135.399	-163.644	0.201	-0.009
-134.385	-178.292	0.316	0.007
-133.370	46.834	-0.192	0.176
-132.356	-200.000	0.063	-0.409
-131.341	-91.844	-0.179	-0.050
-130.326	-200.000	-0.017	0.297
-129.312	25.389	-0.092	-0.075
-128.297	-200.000	0.035	0.151
-127.283	430.913	0.091	0.194
-126.268	-200.000	0.006	-0.288
-125.253	1.805	-0.164	-0.117
-124.239	-20.596	0.064	0.039
-123.224	-171.962	0.242	0.008
-122.210	-137.974	0.158	0.017
-121.195	-30.190	0.114	0.064
-120.180	92.096	0.071	0.079
-119.166	85.493	-0.051	-0.055
-118.151	43.840	-0.209	-0.188
-117.137	-75.966	-0.149	-0.052
-116.122	30.625	0.303	0.255
-115.107	-104.446	0.068	-0.015
-114.093	-200.000	0.020	-0.419
-113.078	36.115	-0.263	0.228
-112.064	-146.684	-0.282	0.024
-111.049	201.439	0.096	-0.146
-110.034	13.736	0.300	0.230
-109.020	112.556	-0.079	0.094
-108.005	46.762	0.088	0.081
-106.991	-140.620	-0.384	-0.039
-105.976	200.193	-0.136	-0.205
-104.962	-100.965	0.267	-0.065
-103.947	-119.651	0.105	0.018
-102.932	800.000	0.029	0.106
-101.918	800.000	0.095	0.259
-100.903	474.881	-0.195	0.434
-99.889	-135.568	0.363	0.042
-98.874	-55.160	-0.330	-0.146
-97.859	-200.000	-0.037	-0.172
-96.845	-109.205	0.171	0.036
-95.830	-200.000	0.045	0.430
-94.816	375.518	-0.109	0.219
-93.801	-145.002	-0.220	-0.020
-92.786	5.352	-0.197	-0.143
-91.772	-84.383	0.314	0.098
-90.757	9.885	0.128	-0.095
-89.743	20.854	-0.161	-0.128
-88.728	325.830	-0.115	0.217
-87.713	98.610	0.239	-0.271
-86.699	-200.000	0.013	-0.150
-85.684	25.840	-0.386	0.317
-84.670	189.714	0.061	-0.090
-83.655	-200.000	0.021	-0.197
-82.640	361.269	-0.089	0.175
-81.626	-200.000	-0.006	0.084
-80.611	-149.326	0.110	0.009
-79.597	-65.328	0.253	-0.100
-78.582	800.000	-0.073	-0.214
-77.567	90.089	-0.111	-0.122
-76.553	121.672	0.322	0.395
-75.538	508.947	-0.022	0.051
-74.524	306.146	-0.177	0.324
-73.509	-70.682	0.272	-0.101
-72.494	-95.956	-0.155	-0.041
-71.480	-200.000	-0.008	-0.205
-70.465	-200.000	0.052	0.248
-69.451	115.899	-0.160	-0.192
-68.436	579.226	0.142	-0.343
-67.422	307.477	-0.112	0.204
-66.407	-200.000	0.030	-0.183
-65.392	-22.737	-0.278	0.165
-64.378	186.521	0.071	-0.105
-63.363	-91.238	0.248	-0.070
-62.349	-115.951	-0.192	0.035
-61.334	79.137	-0.873	-0.919
-60.319	100.793	0.175	0.199
-59.305	618.720	-0.489	-1.207
-58.290	76.075	0.732	0.761
-57.276	800.000	0.377	1.565
-56.261	-200.000	99.489	623.617
-55.246	613.678	1440.248	3544.517
-54.232	183.269	2646.547	3842.584
-53.217	117.786	2176.164	2633.475
-52.203	43.754	1618.940	1456.373
-51.188	35.059	1354.141	1165.474
-50.173	31.902	1312.497	1110.924
-49.159	55.690	1362.138	1296.862
-48.144	57.529	1378.060	1323.028
-47.130	35.334	1334.939	1150.418
-46.115	31.744	1317.456	1114.006
-45.100	31.496	1312.669	1108.445
-44.086	31.446	1310.135	1105.962
-43.071	31.442	1307.461	1103.641
-42.057	31.284	1305.990	1101.420
-41.042	31.400	1303.921	1100.318
-40.027	31.534	1302.374	1099.758
-39.013	31.458	1300.558	1097.734
-37.998	31.526	1298.787	1096.592
-36.984	31.557	1296.759	1095.016
-35.969	31.678	1295.051	1094.240
-34.954	31.590	1293.439	1092.322
-33.940	31.614	1292.333	1091.482
-32.925	31.614	1290.860	1090.194
-31.911	31.674	1289.258	1089.149
-30.896	31.706	1287.755	1088.019
-29.881	31.678	1286.802	1087.011
-28.867	31.665	1285.653	1085.921
-27.852	31.784	1283.398	1084.663
-26.838	31.667	1282.336	1083.044
-25.823	31.801	1280.188	1081.962
-24.809	31.545	1279.606	1079.947
-23.794	31.695	1278.078	1079.485
-22.779	31.663	1276.952	1078.305
-21.765	31.511	1275.709	1076.334
-20.750	31.653	1274.018	1075.683
-19.736	31.458	1272.730	1073.435
-18.721	31.556	1271.508	1072.920
-17.706	31.466	1270.618	1071.613
-16.692	31.517	1269.296	1070.747
-15.677	31.464	1268.468	1069.704
-14.663	31.431	1267.296	1068.485
-13.648	31.487	1265.770	1067.476
-12.633	31.514	1264.797	1066.766
-11.619	31.482	1264.098	1065.953
-10.604	31.521	1262.927	1065.142
-9.590	31.471	1262.394	1064.370
-8.575	31.432	1261.330	1063.204
-7.560	31.454	1260.438	1062.538
-6.546	31.492	1259.193	1061.659
-5.531	31.519	1258.415	1061.116
-4.517	31.392	1257.773	1059.810
-3.502	31.481	1256.787	1059.446
-2.487	31.398	1256.118	1058.367
-1.473	31.545	1251.779	1055.501
-0.458	30.550	1237.739	1038.065
0.556	25.101	1220.477	1002.638
1.571	21.859	1226.750	989.445
2.586	21.114	1241.454	996.958
3.600	20.489	1231.044	984.971
4.615	15.391	1158.396	899.498
5.629	5.753	1081.137	791.003
6.644	0.574	1059.451	749.410
7.659	0.196	1056.439	745.338
8.673	-0.017	1055.536	743.582
9.688	-0.031	1053.723	742.175
10.702	0.613	1053.049	744.807
11.717	6.923	1061.980	782.367
12.731	15.985	1075.176	837.242
13.746	20.273	1080.502	862.681
14.761	21.170	1081.412	867.795
15.775	21.257	1080.320	867.273
16.790	20.940	1080.075	865.427
17.804	20.922	1079.201	864.558
18.819	21.037	1078.668	864.625
19.834	21.112	1078.193	864.540
20.848	21.175	1077.926	864.559
21.863	21.209	1077.313	864.161
22.877	21.043	1076.238	862.402
23.892	21.003	1075.860	861.824
24.907	21.004	1075.326	861.323
25.921	21.045	1073.975	860.369
26.936	21.072	1072.258	859.052
27.950	21.045	1070.869	857.728
28.965	20.926	1068.931	855.517
29.980	21.026	1067.295	854.624
30.994	21.177	1066.180	854.393
32.009	21.196	1065.353	853.747
33.023	20.787	1064.519	851.006
34.038	20.919	1063.775	850.977
35.053	21.087	1062.790	850.934
36.067	21.048	1061.871	849.937
37.082	21.194	1060.921	849.810
38.096	21.327	1060.685	850.194
39.111	21.362	1060.056	849.784
40.126	21.255	1058.313	847.789
41.140	20.871	1056.635	844.513
42.155	20.773	1055.157	842.781
43.169	20.880	1054.272	842.518
44.184	20.846	1052.935	841.209
45.199	20.719	1052.327	840.036
46.213	20.911	1051.092	839.900
47.228	20.948	1050.259	839.339
48.242	20.948	1049.483	838.643
49.257	20.998	1048.984	838.414
50.271	21.113	1048.318	838.360
51.286	21.199	1047.138	837.755
52.301	21.289	1045.856	837.088
53.315	21.065	1044.994	835.248
54.330	21.094	1044.361	834.807
55.344	20.978	1043.432	833.436
56.359	21.116	1042.295	833.116
57.374	20.912	1041.686	831.578
58.388	20.927	1040.947	830.987
59.403	20.851	1039.671	829.534
60.417	20.759	1038.908	828.414
61.432	20.744	1038.679	828.085
62.447	20.989	1037.773	828.457
63.461	20.893	1037.366	827.603
64.476	21.075	1035.840	827.175
65.490	20.891	1034.876	825.458
66.505	20.988	1033.956	825.113
67.520	20.929	1033.570	824.453
68.534	20.681	1032.178	822.098
69.549	20.450	1030.993	819.990
70.563	20.519	1030.577	819.912
71.578	20.460	1029.771	818.918
72.593	20.318	1028.748	817.366
73.607	20.526	1028.250	817.877
74.622	20.673	1028.309	818.543
75.636	20.822	1027.272	818.345
76.651	20.535	1026.321	816.168
77.666	20.616	1025.454	815.786
78.680	20.679	1024.563	815.299
79.695	20.613	1024.227	814.650
80.709	20.732	1023.389	814.470
81.724	20.713	1022.629	813.704
82.739	20.775	1021.672	813.158
83.753	21.063	1021.195	814.055
84.768	21.302	1020.571	814.600
85.782	21.466	1019.254	814.235
86.797	21.255	1018.731	812.767
87.812	21.216	1017.481	811.515
88.826	21.297	1016.818	811.291
89.841	21.425	1015.295	810.600
90.855	21.451	1014.092	809.688
91.870	21.203	1013.734	808.180
92.884	21.205	1012.179	806.878
93.899	21.145	1011.509	805.999
94.914	21.271	1010.944	806.054
95.928	21.084	1009.579	804.035
96.943	20.788	1008.447	801.702
97.957	20.742	1007.061	800.315
98.972	20.565	1006.020	798.601
99.987	20.929	1005.357	799.676
101.001	21.225	1004.662	800.409
102.016	21.061	1003.543	798.698
103.030	20.874	1002.780	797.163
104.045	20.848	1001.631	796.061
105.060	20.716	1000.655	794.610
106.074	20.993	1000.227	795.468
107.089	21.331	999.839	796.629
108.103	21.060	998.578	794.318
109.118	20.818	997.266	792.106
110.133	20.853	996.623	791.681
111.147	20.782	994.870	789.899
112.162	20.582	993.949	788.191
113.176	20.772	993.740	788.814
114.191	20.818	992.217	787.746
115.206	20.534	990.780	785.253
116.220	20.480	990.290	784.549
117.235	20.611	989.842	784.717
118.249	20.510	988.722	783.304
119.264	20.495	987.999	782.596
120.279	20.532	987.200	782.062
121.293	20.706	986.721	782.391
122.308	20.731	985.372	781.369
123.322	20.608	984.188	779.810
124.337	20.341	983.192	777.754
125.352	20.024	981.480	774.912
126.366	19.806	980.505	773.100
127.381	20.601	980.452	776.539
128.395	21.053	979.688	777.882
129.410	21.188	979.205	778.033
130.424	21.087	977.833	776.425
131.439	21.170	976.575	775.724
132.454	21.011	976.282	774.716
133.468	21.179	975.050	774.417
134.483	21.125	974.165	773.408
135.497	21.230	973.997	773.668
136.512	21.294	972.688	772.845
137.527	21.351	971.640	772.195
138.541	21.242	971.512	771.545
139.556	21.396	970.143	771.069
140.570	21.247	969.700	769.989
141.585	21.404	968.463	769.632
142.600	21.256	967.584	768.213
143.614	21.486	966.783	768.520
144.629	21.697	965.736	768.547
145.643	21.502	964.384	766.547
146.658	21.295	963.477	764.854
147.673	21.322	962.358	764.013
148.687	21.176	961.675	762.766
149.702	21.234	959.862	761.516
150.716	20.986	959.831	760.341
151.731	21.355	958.939	761.174
152.746	21.381	958.618	760.964
153.760	21.547	957.618	760.824
154.775	21.540	956.851	760.119
155.789	21.365	956.325	758.874
156.804	21.422	955.197	758.159
157.819	21.371	954.874	757.616
158.833	21.515	953.754	757.284
159.848	21.514	952.647	756.333
160.862	21.429	951.429	754.930
161.877	21.485	951.081	754.831
162.892	21.564	949.456	753.812
163.906	21.375	948.646	752.292
164.921	21.475	947.534	751.773
165.935	21.569	946.893	751.603
166.950	21.624	945.851	750.942
167.964	21.323	945.397	749.224
168.979	21.337	943.916	748.045
169.994	21.300	943.074	747.153
171.008	21.661	942.423	748.113
172.023	21.516	941.872	746.991
173.037	21.375	940.417	745.173
174.052	21.137	939.447	743.322
175.067	21.216	938.942	743.192
176.081	21.347	938.424	743.274
177.096	21.331	937.661	742.539
178.110	20.952	936.831	740.207
179.125	20.810	936.583	739.340
180.140	20.890	935.943	739.112
181.154	20.992	935.734	739.314
182.169	21.210	935.419	739.921
183.183	21.539	934.699	740.681
184.198	21.474	933.598	739.464
185.213	21.388	933.161	738.692
186.227	21.405	932.759	738.381
187.242	21.559	931.685	738.115
188.256	21.530	930.678	737.126
189.271	21.663	930.013	737.098
190.286	21.330	929.235	735.012
191.300	20.654	927.562	730.788
192.315	19.997	926.024	726.755
193.329	19.847	925.760	725.854
194.344	20.750	926.277	729.982
195.359	21.390	925.828	732.246
196.373	21.501	925.338	732.257
197.388	21.229	924.826	730.653
198.402	21.230	924.126	730.037
199.417	21.375	923.548	730.121
200.432	21.139	922.568	728.299
201.446	20.767	921.816	726.090
202.461	20.989	921.008	726.315
203.475	20.119	919.315	721.292
204.490	19.540	918.047	717.830
205.504	20.369	918.385	721.478
206.519	20.921	918.479	723.781
207.534	20.998	917.822	723.518
208.548	21.369	917.792	724.970
209.563	21.190	916.984	723.527
210.577	21.095	916.251	722.490
211.592	21.552	915.924	724.057
212.607	21.514	914.861	722.996
213.621	21.598	914.180	722.742
214.636	21.610	913.270	722.007
215.650	21.480	912.844	721.071
216.665	21.530	911.973	720.524
217.680	21.431	911.129	719.387
218.694	21.015	910.000	716.724
219.709	20.900	909.673	715.931
220.723	21.260	909.125	716.913
221.738	21.345	908.361	716.597
222.753	21.375	907.602	716.056
223.767	21.445	907.319	716.055
224.782	21.703	906.875	716.698
225.796	21.567	906.703	715.941
226.811	20.946	904.991	711.993
227.826	20.332	903.839	708.518
228.840	20.657	903.221	709.296
229.855	20.583	902.689	708.514
230.869	20.267	901.511	706.238
231.884	20.797	901.596	708.398
232.899	21.546	901.476	711.289
233.913	21.342	900.934	709.971
234.928	21.364	900.176	709.398
235.942	21.295	899.319	708.380
236.957	21.006	898.663	706.631
237.972	20.942	898.266	705.996
238.986	21.198	897.330	706.233
240.001	20.990	896.980	705.055
241.015	21.197	896.540	705.485
242.030	21.397	895.942	705.756
243.045	21.360	895.710	705.361
244.059	21.493	895.144	705.390
245.074	21.228	894.189	703.510
246.088	21.071	892.545	701.522
247.103	21.336	892.406	702.417
248.117	21.865	892.515	704.567
249.132	22.071	892.059	704.969
250.147	22.174	891.492	704.871
251.161	22.167	891.278	704.611
252.176	22.148	890.777	704.077
253.190	22.207	890.200	703.796
254.205	22.384	889.653	704.011
255.220	22.183	889.112	702.714
256.234	22.115	888.255	701.706
257.249	22.069	887.526	700.881
258.263	22.062	886.932	700.326
259.278	22.354	885.435	700.244
260.293	22.202	885.742	699.818
261.307	22.254	884.569	699.034
262.322	22.056	883.586	697.412
263.336	21.093	881.593	691.957
264.351	20.195	879.641	686.812
265.366	20.290	879.915	687.341
266.380	21.476	880.472	692.411
267.395	21.809	880.009	693.302
268.409	21.947	879.302	693.229
269.424	21.994	879.067	693.170
270.439	22.211	878.065	693.173
271.453	22.048	877.805	692.265
272.468	22.267	877.662	692.952
273.482	22.375	876.930	692.738
274.497	21.929	875.906	690.114
275.512	21.461	874.961	687.469
276.526	21.965	874.864	689.314
277.541	22.120	874.375	689.474
278.555	21.867	873.497	687.731
279.570	21.563	873.124	686.183
280.585	21.826	872.346	686.541
281.599	21.881	871.310	685.882
282.614	21.324	869.913	682.545
283.628	21.372	869.378	682.255
284.643	21.660	869.225	683.196
285.657	21.205	868.293	680.632
286.672	20.984	867.570	679.144
287.687	21.696	867.364	681.692
288.701	21.773	866.670	681.386
289.716	21.267	866.215	679.000
290.730	21.320	865.288	678.423
291.745	21.153	864.067	676.756
292.760	21.420	864.057	677.725
293.774	22.347	864.370	681.500
294.789	22.547	864.462	682.288
295.803	22.648	863.965	682.227
296.818	22.600	862.861	681.108
297.833	22.222	862.037	678.938
298.847	22.114	861.050	677.685
299.862	22.387	860.981	678.621
300.876	22.607	860.960	679.395
301.891	22.385	860.033	677.746
302.906	22.064	859.150	675.756
303.920	22.180	858.834	675.893
304.935	22.534	858.452	676.893
305.949	22.377	857.833	675.743
306.964	22.226	857.805	675.083
307.979	22.270	857.010	674.567
308.993	22.772	856.438	675.978
310.008	22.662	855.995	675.149
311.022	22.379	855.092	673.293
312.037	22.341	854.635	672.729
313.052	22.092	853.567	670.880
314.066	21.249	851.994	666.367
315.081	20.912	851.473	664.616
316.095	21.691	851.661	667.675
317.110	22.228	851.237	669.327
318.125	21.456	849.533	664.994
319.139	20.534	848.426	660.566
320.154	20.450	847.926	659.801
321.168	21.302	848.557	663.471
322.183	22.106	848.529	666.439
323.197	22.178	847.815	666.093
324.212	22.385	847.556	666.616
325.227	22.301	847.221	665.973
326.241	22.312	846.522	665.406
327.256	22.037	846.196	664.054
328.270	21.990	845.374	663.170
329.285	21.835	844.834	662.106
330.300	21.744	843.600	660.737
331.314	21.932	843.265	661.123
332.329	22.326	843.387	662.643
333.343	22.392	843.319	662.782
334.358	22.453	842.641	662.419
335.373	22.551	842.116	662.314
336.387	22.890	842.086	663.507
337.402	22.931	842.161	663.663
338.416	22.783	841.691	662.676
339.431	23.024	841.145	663.092
340.446	23.053	840.790	662.862
341.460	23.024	839.721	661.851
342.475	22.765	839.874	660.946
343.489	22.681	839.535	660.304
344.504	23.144	839.298	661.793
345.519	23.173	838.947	661.564
346.533	23.117	838.360	660.835
347.548	23.205	837.980	660.807
348.562	23.373	837.139	660.709
349.577	23.155	836.382	659.242
350.592	23.186	835.677	658.745
351.606	23.267	835.056	658.499
352.621	23.095	834.084	657.032
353.635	22.935	833.483	655.906
354.650	22.259	831.937	652.126
355.665	21.380	830.559	647.734
356.679	21.855	830.493	649.383
357.694	22.247	829.960	650.362
358.708	22.181	829.392	649.615
359.723	22.536	829.520	650.969
360.738	22.876	828.896	651.677
361.752	22.998	828.385	651.666
362.767	23.393	828.099	652.839
363.781	23.465	827.853	652.852
364.796	23.377	827.929	652.532
365.810	23.400	827.359	652.109
366.825	23.531	826.540	651.885
367.840	23.339	825.811	650.551
368.854	22.933	824.782	648.194
369.869	22.897	824.571	647.838
370.883	23.021	823.872	647.685
371.898	22.869	823.456	646.742
372.913	22.898	823.554	646.869
373.927	23.066	823.163	647.119
374.942	23.241	822.352	647.063
375.956	23.313	821.914	646.926
376.971	23.341	821.850	646.921
377.986	23.563	821.500	647.399
379.000	23.643	820.582	646.907
380.015	23.379	820.072	645.486
381.029	23.493	819.640	645.506
382.044	23.495	819.169	645.084
383.059	23.508	818.944	644.897
384.073	23.587	817.980	644.369
385.088	23.495	817.305	643.446
386.102	23.414	816.425	642.404
387.117	23.437	815.812	641.947
388.132	22.967	814.989	639.543
389.146	22.372	814.078	636.618
390.161	22.843	813.901	638.127
391.175	23.370	813.768	639.872
392.190	23.111	812.524	637.900
393.205	21.523	811.085	630.993
394.219	20.315	808.811	624.822
395.234	20.240	808.969	624.620
396.248	21.902	810.093	631.418
397.263	23.179	811.097	636.743
398.278	23.101	810.561	635.988
399.292	22.839	809.861	634.438
400.307	22.930	809.386	634.338
401.321	23.030	809.045	634.375
402.336	23.513	808.772	635.835
403.350	23.729	808.804	636.579
404.365	23.932	808.826	637.266
405.380	24.241	808.252	637.866
406.394	24.322	807.517	637.518
407.409	24.121	807.521	636.746
408.423	24.072	806.820	635.961
409.438	24.287	806.104	636.106
410.453	24.231	805.999	635.769
411.467	24.214	805.280	635.087
412.482	24.156	805.116	634.694
413.496	24.211	804.833	634.609
414.511	24.333	804.282	634.554
415.526	24.297	803.799	633.988
416.540	24.088	803.235	632.746
417.555	23.877	802.438	631.311
418.569	23.881	802.192	631.076
419.584	23.985	801.132	630.556
420.599	23.697	801.328	629.633
421.613	155.885	1365.638	1795.776
422.628	135.292	1447.841	1795.868
