DTS Sentinel unit serial number:	SN413079Multiplexer serial number:	ORYXHardware model number:	OX4-SRSoftware version number:	ORYX F/W v4.00 Oryx Data Collector v3.7.2.0data status	okinstallation	princeton_trtdifferential loss correction	single-endedforward channel	channel 1reverse channel	N/Adate	2019/09/12time	10:40:11forward acquisition time	60.00reverse acquisition time	0.00gamma	496.2192k internal	0.2296k external	0.2296temperature offset calibration	1.0045default loss term (dB/km)	0.3790temperature slope calibration	1.0000multiplexer offset coefficient	1.0000multiplexer slope coefficient	1.0000fibre end	0.00T internal ref (°C)	37.48T ext. ref 1 (°C)	1.89T ext. ref 2 (°C)	35.86length (m)	temperature (°C)	Stokes	anti-Stokes-747.200	800.000	0.014	0.051
-746.185	740.908	-0.065	0.180
-745.171	-80.876	0.400	0.136
-744.156	197.214	0.172	0.268
-743.142	-17.724	0.190	0.122
-742.127	-117.852	-0.019	-0.003
-741.112	-200.000	0.001	-0.221
-740.098	-39.304	-0.226	-0.121
-739.083	117.438	0.101	-0.127
-738.069	35.587	-0.052	0.046
-737.054	-200.000	-0.008	0.061
-736.039	800.000	-0.039	-0.155
-735.025	132.640	0.126	0.165
-734.010	-32.083	-0.115	0.066
-732.996	29.622	-0.460	-0.400
-731.981	81.596	0.147	0.162
-730.966	138.720	-0.242	0.324
-729.952	117.241	-0.157	-0.197
-728.937	-131.931	-0.194	-0.026
-727.923	227.753	-0.155	0.257
-726.908	16.252	-0.268	-0.216
-725.894	-49.964	0.237	-0.115
-724.879	-150.094	-0.203	0.016
-723.864	40.794	0.209	-0.192
-722.850	227.131	0.019	0.031
-721.835	-200.000	-0.067	-0.369
-720.821	161.268	0.147	0.211
-719.806	116.388	0.122	-0.152
-718.791	22.699	-0.094	0.079
-717.777	187.360	0.264	0.402
-716.762	800.000	-0.027	-0.120
-715.748	-0.590	-0.035	0.026
-714.733	-200.000	-0.010	-0.161
-713.718	-56.552	-0.071	-0.032
-712.704	609.183	0.126	0.322
-711.689	800.000	0.017	-0.073
-710.675	800.000	0.103	0.290
-709.660	-151.028	0.216	0.017
-708.645	50.605	-0.349	0.336
-707.631	594.681	0.240	-0.607
-706.616	-160.882	0.034	0.002
-705.602	55.685	0.107	0.106
-704.587	-200.000	0.022	-0.293
-703.572	-12.279	0.042	0.028
-702.558	128.540	0.094	-0.122
-701.543	800.000	0.083	-0.293
-700.529	800.000	0.055	-0.196
-699.514	277.334	-0.054	0.098
-698.499	-39.768	-0.037	0.019
-697.485	800.000	-0.019	-0.081
-696.470	-200.000	0.013	0.151
-695.456	736.399	0.136	0.371
-694.441	-8.459	-0.365	0.250
-693.426	132.927	-0.053	-0.070
-692.412	307.759	-0.188	-0.358
-691.397	-119.343	-0.322	0.057
-690.383	800.000	-0.119	-0.343
-689.368	237.780	-0.162	-0.273
-688.354	408.825	-0.033	-0.072
-687.339	0.067	0.158	0.115
-686.324	-123.893	-0.477	0.077
-685.310	26.128	0.130	0.111
-684.295	-200.000	-0.016	-0.136
-683.281	14.534	0.336	0.267
-682.266	-65.728	-0.228	-0.093
-681.251	139.160	0.069	0.093
-680.237	-200.000	-0.031	0.298
-679.222	800.000	0.059	-0.252
-678.208	84.038	-0.055	0.062
-677.193	-116.129	-0.216	0.041
-676.178	183.389	-0.091	-0.136
-675.164	-98.057	-0.155	0.041
-674.149	184.268	0.180	0.271
-673.135	-200.000	0.017	0.382
-672.120	-2.996	0.078	-0.056
-671.105	94.552	-0.079	0.092
-670.091	11.589	-0.286	-0.223
-669.076	60.801	0.187	-0.189
-668.062	564.756	-0.093	-0.230
-667.047	279.898	-0.127	0.231
-666.032	430.022	-0.216	-0.476
-665.018	91.342	0.075	0.086
-664.003	139.486	0.091	-0.122
-662.989	-100.073	-0.205	0.052
-661.974	-200.000	0.111	-0.000
-660.959	-136.927	-0.362	-0.042
-659.945	800.000	-0.057	-0.195
-658.930	44.927	-0.290	-0.272
-657.916	-200.000	-0.108	-0.492
-656.901	-26.795	-0.201	0.120
-655.886	-37.355	0.260	0.141
-654.872	-200.000	-0.005	-0.231
-653.857	29.160	-0.198	-0.171
-652.843	248.160	0.089	-0.154
-651.828	800.000	-0.049	-0.206
-650.814	5.985	0.062	-0.047
-649.799	-58.270	-0.312	0.138
-648.784	90.130	-0.300	-0.342
-647.770	141.269	0.124	0.167
-646.755	-200.000	-0.035	-0.408
-645.741	-126.880	-0.043	0.006
-644.726	-200.000	0.014	-0.208
-643.711	212.265	0.231	0.370
-642.697	-185.811	-0.420	0.006
-641.682	800.000	-0.007	0.029
-640.668	282.494	-0.253	0.461
-639.653	-120.703	0.046	-0.008
-638.638	-66.175	-0.139	-0.056
-637.624	-148.646	0.061	-0.005
-636.609	335.675	0.097	0.192
-635.595	800.000	-0.055	-0.185
-634.580	581.029	0.105	-0.262
-633.565	-49.026	-0.188	0.091
-632.551	217.638	-0.140	0.228
-631.536	28.024	-0.106	0.091
-630.522	8.150	-0.202	-0.154
-629.507	-127.296	0.040	0.006
-628.492	194.540	0.212	-0.327
-627.478	378.877	-0.249	-0.518
-626.463	-97.922	0.197	0.052
-625.449	152.180	-0.138	0.191
-624.434	-65.971	0.219	-0.089
-623.419	153.210	-0.161	0.224
-622.405	-65.380	0.218	-0.089
-621.390	-32.860	0.060	0.034
-620.376	-200.000	-0.006	0.214
-619.361	-8.806	-0.296	0.202
-618.346	-30.329	0.163	0.094
-617.332	235.683	0.052	-0.087
-616.317	-92.490	0.172	0.049
-615.303	103.168	-0.163	-0.194
-614.288	61.205	-0.351	-0.354
-613.273	291.292	0.107	0.198
-612.259	-52.245	-0.036	0.017
-611.244	800.000	-0.075	-0.315
-610.230	103.841	0.154	-0.183
-609.215	-6.747	-0.158	-0.109
-608.201	800.000	-0.076	-0.243
-607.186	752.028	0.040	0.111
-606.171	-200.000	0.003	0.087
-605.157	-200.000	0.007	0.383
-604.142	-78.965	-0.064	0.022
-603.128	-98.315	-0.109	-0.028
-602.113	-200.000	-0.074	-0.422
-601.098	-75.399	0.240	-0.087
-600.084	272.489	-0.054	0.096
-599.069	-38.119	-0.090	-0.049
-598.055	-112.500	-0.186	-0.038
-597.040	28.607	0.277	-0.239
-596.025	-167.624	0.158	-0.006
-595.011	499.485	-0.087	0.204
-593.996	51.587	0.122	0.118
-592.982	800.000	-0.075	-0.270
-591.967	469.046	0.053	0.121
-590.952	680.689	-0.021	0.057
-589.938	-79.439	-0.093	0.032
-588.923	800.000	-0.064	0.197
-587.909	-46.502	0.270	-0.134
-586.894	-100.234	0.083	-0.021
-585.879	800.000	-0.017	0.069
-584.865	-126.324	0.224	0.034
-583.850	-116.425	0.219	0.041
-582.836	50.341	-0.317	-0.304
-581.821	47.362	0.305	-0.289
-580.806	10.131	-0.240	-0.186
-579.792	-122.832	0.328	-0.054
-578.777	-200.000	-0.015	-0.095
-577.763	800.000	-0.049	0.181
-576.748	-22.875	-0.118	0.073
-575.733	126.409	-0.134	-0.172
-574.719	-6.840	-0.106	-0.073
-573.704	-200.000	-0.054	-0.248
-572.690	1.617	-0.213	-0.155
-571.675	-41.515	0.127	0.066
-570.661	-152.220	0.205	0.015
-569.646	-126.852	0.142	-0.021
-568.631	523.973	-0.024	-0.057
-567.617	321.421	0.179	0.346
-566.602	-72.968	-0.072	0.027
-565.588	-20.548	0.228	0.142
-564.573	-32.939	0.343	-0.193
-563.558	-200.000	0.069	-0.388
-562.544	-27.478	0.136	-0.080
-561.529	102.071	0.221	-0.262
-560.515	800.000	-0.071	0.258
-559.500	405.866	-0.140	0.300
-558.485	800.000	-0.117	-0.396
-557.471	114.431	-0.100	0.123
-556.456	308.710	0.067	-0.128
-555.442	-2.277	0.252	-0.180
-554.427	31.971	0.081	0.071
-553.412	51.685	0.068	0.066
-552.398	730.141	0.069	-0.187
-551.383	148.917	-0.207	-0.284
-550.369	-200.000	-0.007	-0.120
-549.354	800.000	-0.063	-0.200
-548.339	720.043	-0.047	-0.126
-547.325	-200.000	0.065	0.290
-546.310	-100.911	0.219	0.055
-545.296	29.894	-0.030	0.026
-544.281	-200.000	-0.005	0.172
-543.266	-200.000	-0.031	0.276
-542.252	-200.000	0.010	-0.185
-541.237	-33.817	0.035	-0.020
-540.223	13.623	-0.066	-0.052
-539.208	391.867	0.114	-0.241
-538.193	800.000	-0.040	-0.154
-537.179	-163.840	-0.160	-0.008
-536.164	-21.031	-0.239	0.149
-535.150	606.555	-0.076	0.192
-534.135	-9.197	0.215	-0.146
-533.121	4.166	-0.112	0.083
-532.106	2.495	-0.140	-0.103
-531.091	105.557	-0.178	0.213
-530.077	-200.000	-0.010	-0.133
-529.062	-200.000	0.029	0.204
-528.048	-80.902	-0.305	0.103
-527.033	145.297	-0.116	0.158
-526.018	48.014	-0.276	0.262
-525.004	75.918	-0.067	0.072
-523.989	498.764	0.034	0.080
-522.975	198.134	0.047	-0.072
-521.960	508.574	0.135	0.317
-520.945	800.000	-0.083	0.296
-519.931	800.000	-0.066	-0.201
-518.916	-197.368	0.188	-0.001
-517.902	26.527	0.105	-0.089
-516.887	-84.142	-0.161	0.052
-515.872	-200.000	0.042	0.269
-514.858	-81.638	0.208	0.069
-513.843	800.000	0.061	-0.218
-512.829	-6.874	0.022	-0.015
-511.814	-30.310	-0.194	0.111
-510.799	557.165	-0.171	0.418
-509.785	117.978	-0.139	-0.173
-508.770	-45.243	-0.114	-0.057
-507.756	345.805	-0.088	0.174
-506.741	-94.814	-0.167	0.046
-505.726	378.740	0.029	-0.060
-504.712	25.535	0.071	-0.060
-503.697	-135.402	0.179	-0.022
-502.683	-200.000	-0.013	0.295
-501.668	-44.457	0.052	0.026
-500.653	575.585	-0.046	-0.115
-499.639	9.809	0.099	-0.076
-498.624	-118.756	-0.372	0.066
-497.610	37.573	0.284	-0.255
-496.595	-64.264	0.210	0.087
-495.581	-4.046	-0.068	0.047
-494.566	-64.736	-0.221	0.091
-493.551	238.494	-0.004	0.006
-492.537	800.000	0.085	-0.293
-491.522	-145.656	-0.493	0.045
-490.508	743.659	-0.063	0.172
-489.493	181.954	0.178	0.265
-488.478	-200.000	0.063	-0.383
-487.464	254.019	0.188	-0.324
-486.449	2.431	-0.223	-0.164
-485.435	-49.400	0.125	0.060
-484.420	117.634	-0.222	-0.277
-483.405	-200.000	-0.021	-0.119
-482.391	800.000	-0.048	-0.144
-481.376	-22.991	0.368	0.224
-480.362	77.527	-0.189	-0.204
-479.347	-106.142	0.086	0.019
-478.332	-83.290	-0.285	0.093
-477.318	31.615	0.065	0.056
-476.303	-158.991	-0.124	-0.007
-475.289	-51.873	0.174	-0.082
-474.274	-103.896	0.233	-0.055
-473.259	-84.852	-0.198	-0.063
-472.245	-200.000	-0.054	0.313
-471.230	-129.075	0.322	0.045
-470.216	-99.861	0.255	-0.064
-469.201	38.348	-0.143	0.129
-468.186	-200.000	-0.028	-0.190
-467.172	305.852	-0.030	-0.057
-466.157	4.521	0.147	-0.109
-465.143	26.035	-0.070	-0.059
-464.128	446.980	-0.123	-0.274
-463.113	-38.347	0.096	0.052
-462.099	9.334	0.106	0.081
-461.084	-200.000	-0.045	-0.251
-460.070	482.810	0.051	0.117
-459.055	-86.528	-0.254	-0.079
-458.040	-92.086	-0.260	0.074
-457.026	800.000	-0.023	0.077
-456.011	28.343	0.072	0.062
-454.997	616.553	0.041	0.104
-453.982	612.034	0.126	0.318
-452.968	64.020	0.142	0.144
-451.953	-15.537	-0.165	-0.106
-450.938	201.735	0.061	0.095
-449.924	140.841	0.138	-0.185
-448.909	-200.000	0.022	0.371
-447.895	-2.541	-0.108	0.076
-446.880	200.100	-0.079	-0.123
-445.865	51.833	0.104	-0.100
-444.851	-76.177	0.122	0.044
-443.836	-200.000	-0.267	0.000
-442.822	52.366	-0.211	0.203
-441.807	-200.000	0.021	0.267
-440.792	-40.846	0.459	-0.240
-439.778	-23.317	-0.185	-0.112
-438.763	-15.715	0.335	0.215
-437.749	-124.686	-0.314	-0.049
-436.734	84.071	0.154	-0.170
-435.719	651.740	0.054	0.139
-434.705	-172.445	-0.038	0.001
-433.690	55.087	0.200	-0.195
-432.676	41.045	-0.284	0.259
-431.661	338.223	0.105	-0.207
-430.646	-200.000	-0.072	0.372
-429.632	5.738	-0.067	0.050
-428.617	800.000	0.039	0.132
-427.603	403.401	0.070	0.149
-426.588	-11.565	-0.220	0.146
-425.573	202.466	0.105	0.163
-424.559	-44.404	-0.021	-0.011
-423.544	800.000	0.122	0.362
-422.530	-200.000	-0.084	-0.466
-421.515	32.561	0.169	-0.147
-420.500	-70.825	0.198	-0.075
-419.486	-124.834	0.086	-0.013
-418.471	208.994	0.106	-0.167
-417.457	44.155	0.141	-0.131
-416.442	287.385	0.171	-0.312
-415.428	48.893	0.056	-0.053
-414.413	-200.000	-0.037	0.314
-413.398	-61.513	-0.119	-0.050
-412.384	-22.805	0.255	0.156
-411.369	-200.000	0.073	-0.351
-410.355	-73.286	-0.408	-0.151
-409.340	154.183	0.085	0.117
-408.325	-78.408	0.114	-0.039
-407.311	800.000	0.064	-0.205
-406.296	84.073	0.340	0.375
-405.282	267.631	-0.039	-0.069
-404.267	-200.000	-0.234	-0.000
-403.252	-112.711	0.233	0.047
-402.238	247.357	0.143	0.243
-401.223	800.000	0.020	-0.067
-400.209	86.781	-0.156	-0.174
-399.194	800.000	-0.038	-0.154
-398.179	-20.553	0.083	-0.052
-397.165	-200.000	0.012	-0.092
-396.150	-115.428	-0.045	0.008
-395.136	-139.062	-0.208	-0.023
-394.121	-200.000	0.030	-0.151
-393.106	800.000	-0.043	-0.155
-392.092	239.873	-0.111	-0.187
-391.077	-163.570	0.464	-0.022
-390.063	186.790	0.057	-0.085
-389.048	-192.168	-0.184	0.002
-388.033	773.707	-0.050	-0.137
-387.019	-27.370	0.158	0.093
-386.004	24.655	0.236	-0.197
-384.990	108.441	-0.043	0.052
-383.975	-115.048	0.384	0.073
-382.960	408.376	0.018	-0.038
-381.946	-144.004	-0.145	0.014
-380.931	-159.207	0.095	-0.005
-379.917	-200.000	0.019	0.260
-378.902	207.903	0.059	-0.093
-377.888	-89.065	-0.087	0.026
-376.873	315.845	-0.069	-0.132
-375.858	-200.000	-0.004	0.065
-374.844	-200.000	-0.028	0.347
-373.829	70.827	0.206	0.215
-372.815	800.000	0.135	0.413
-371.800	-86.290	-0.108	-0.033
-370.785	355.767	0.051	0.102
-369.771	-40.200	-0.151	0.079
-368.756	-93.119	-0.110	-0.031
-367.742	459.182	0.065	-0.147
-366.727	-123.809	-0.232	0.037
-365.712	-42.728	-0.168	0.086
-364.698	197.577	-0.232	0.357
-363.683	-200.000	0.067	0.347
-362.669	32.865	-0.070	-0.061
-361.654	40.427	-0.123	0.112
-360.639	219.104	0.380	-0.612
-359.625	794.933	-0.124	0.344
-358.610	-200.000	0.072	-0.497
-357.596	-25.442	0.149	0.089
-356.581	-13.474	0.068	0.044
-355.566	-200.000	-0.019	-0.241
-354.552	-200.000	-0.001	-0.058
-353.537	-96.403	0.117	0.031
-352.523	54.029	0.522	-0.506
-351.508	800.000	0.105	0.321
-350.493	415.142	0.028	-0.059
-349.479	-11.973	-0.108	-0.071
-348.464	163.538	-0.244	0.346
-347.450	-3.309	0.117	-0.082
-346.435	800.000	0.087	0.285
-345.420	-177.274	0.142	-0.004
-344.406	-199.572	0.170	0.001
-343.391	-60.297	0.231	-0.099
-342.377	-200.000	-0.005	0.241
-341.362	-106.343	0.138	-0.031
-340.348	51.245	0.236	-0.225
-339.333	-133.360	-0.294	0.037
-338.318	455.941	-0.032	0.072
-337.304	-19.053	-0.117	-0.073
-336.289	-200.000	0.045	-0.200
-335.275	800.000	0.053	-0.184
-334.260	-55.835	0.140	-0.063
-333.245	-164.932	-0.582	0.026
-332.231	-133.041	0.080	0.010
-331.216	-125.409	0.356	-0.054
-330.202	754.748	0.050	0.136
-329.187	376.747	-0.104	0.213
-328.172	800.000	0.029	-0.126
-327.158	-79.010	0.264	-0.090
-326.143	89.936	0.285	0.320
-325.129	-200.000	0.032	0.400
-324.114	1.868	-0.189	-0.137
-323.099	238.892	-0.090	-0.150
-322.085	-181.266	0.172	-0.003
-321.070	-106.599	0.139	-0.031
-320.056	-89.619	-0.379	-0.112
-319.041	-200.000	-0.019	-0.364
-318.026	-200.000	0.002	-0.064
-317.012	-149.809	-0.135	-0.011
-315.997	9.971	-0.270	-0.206
-314.983	32.577	-0.213	-0.185
-313.968	-76.205	0.194	0.069
-312.953	-200.000	0.201	-0.000
-311.939	52.696	0.116	-0.111
-310.924	-79.121	0.226	0.077
-309.910	-148.518	0.226	0.019
-308.895	215.967	0.110	-0.175
-307.880	373.221	-0.117	-0.238
-306.866	-103.875	0.310	0.073
-305.851	-199.451	-0.087	-0.000
-304.837	-69.839	-0.184	0.070
-303.822	173.327	0.225	0.326
-302.807	-73.678	-0.169	0.062
-301.793	283.292	-0.019	0.035
-300.778	189.106	0.163	-0.245
-299.764	-90.865	-0.340	0.098
-298.749	-107.749	0.072	0.016
-297.735	-200.000	0.046	0.292
-296.720	44.536	0.109	0.100
-295.705	-86.657	0.250	0.077
-294.691	-16.170	0.114	0.073
-293.676	-67.206	-0.151	0.060
-292.662	-200.000	-0.070	0.369
-291.647	483.296	0.093	-0.212
-290.632	800.000	0.025	0.105
-289.618	-189.454	-0.217	-0.003
-288.603	-200.000	-0.005	-0.349
-287.589	-139.123	-0.421	-0.046
-286.574	-144.498	0.056	0.005
-285.559	-69.875	0.099	-0.038
-284.545	17.832	0.272	-0.217
-283.530	41.823	-0.189	-0.172
-282.516	-158.747	-0.223	0.013
-281.501	800.000	0.065	0.227
-280.486	-200.000	0.028	0.285
-279.472	800.000	0.110	-0.309
-278.457	800.000	-0.071	0.200
-277.443	178.247	-0.141	0.206
-276.428	-26.146	0.317	-0.187
-275.413	-94.319	0.218	0.060
-274.399	-87.616	0.125	0.038
-273.384	-200.000	-0.033	0.242
-272.370	800.000	-0.051	-0.150
-271.355	-200.000	-0.009	0.317
-270.340	-200.000	-0.012	-0.081
-269.326	-72.461	0.216	-0.080
-268.311	500.444	-0.085	-0.197
-267.297	-65.824	-0.272	-0.109
-266.282	-99.807	0.298	0.075
-265.267	107.384	-0.149	-0.178
-264.253	28.727	-0.164	0.140
-263.238	-200.000	0.010	-0.236
-262.224	-121.136	-0.100	0.017
-261.209	738.815	0.071	0.191
-260.195	-96.386	-0.304	0.081
-259.180	134.525	0.025	-0.033
-258.165	-185.023	0.215	-0.003
-257.151	346.345	0.097	0.192
-256.136	184.870	0.183	-0.273
-255.122	-17.284	-0.131	0.083
-254.107	117.428	0.044	-0.054
-253.092	29.064	0.157	0.134
-252.078	412.004	-0.151	0.322
-251.063	-200.000	0.104	-0.490
-250.049	-57.697	-0.156	0.069
-249.034	126.315	0.032	-0.040
-248.019	12.406	-0.092	-0.071
-247.005	169.749	-0.231	0.331
-245.990	-13.893	-0.155	0.100
-244.976	-108.695	-0.324	0.070
-243.961	-17.997	-0.026	0.017
-242.946	66.832	0.385	-0.392
-241.932	800.000	0.101	0.319
-240.917	-37.274	0.104	0.056
-239.903	-2.099	-0.176	0.124
-238.888	4.036	-0.094	0.069
-237.873	54.160	0.173	-0.166
-236.859	-50.008	-0.097	-0.046
-235.844	-200.000	0.005	0.233
-234.830	-12.421	-0.166	-0.109
-233.815	-109.335	-0.182	0.039
-232.800	210.479	-0.220	-0.346
-231.786	211.276	-0.219	-0.344
-230.771	598.266	0.167	0.414
-229.757	3.942	-0.084	0.061
-228.742	-96.042	0.118	-0.032
-227.727	602.669	0.050	-0.125
-226.713	21.342	-0.269	0.219
-225.698	800.000	-0.067	-0.204
-224.684	-155.995	-0.133	0.008
-223.669	-49.708	-0.216	-0.103
-222.655	120.567	-0.068	0.085
-221.640	-119.520	0.090	-0.016
-220.625	-200.000	-0.010	-0.066
-219.611	-134.307	0.329	0.040
-218.596	800.000	-0.098	0.332
-217.582	39.009	0.026	-0.023
-216.567	65.557	-0.079	0.080
-215.552	72.396	0.044	-0.046
-214.538	-159.785	-0.238	-0.013
-213.523	-147.474	0.226	-0.019
-212.509	-190.877	-0.211	0.002
-211.494	-146.645	-0.109	-0.009
-210.479	-121.028	0.285	-0.048
-209.465	225.981	-0.084	0.136
-208.450	-25.618	0.193	-0.114
-207.436	-113.751	0.111	-0.022
-206.421	800.000	0.065	-0.223
-205.406	-41.266	-0.176	-0.091
-204.392	-127.520	-0.124	0.018
-203.377	3.767	0.129	0.094
-202.363	191.265	0.158	0.237
-201.348	-3.197	-0.242	0.169
-200.333	-39.951	0.324	0.169
-199.319	57.277	-0.243	0.237
-198.304	65.095	-0.074	-0.074
-197.290	-162.988	-0.344	0.017
-196.275	122.110	0.227	-0.283
-195.260	92.290	0.242	-0.273
-194.246	39.650	0.133	0.119
-193.231	268.169	0.055	-0.097
-192.217	471.371	0.047	0.105
-191.202	175.339	-0.041	0.059
-190.187	108.454	-0.302	0.360
-189.173	-67.182	0.176	0.069
-188.158	12.313	0.043	-0.033
-187.144	-99.901	-0.059	0.015
-186.129	-200.000	0.015	-0.194
-185.114	384.475	0.095	-0.195
-184.100	349.443	0.094	0.186
-183.085	-118.363	-0.256	0.045
-182.071	-105.703	-0.071	-0.016
-181.056	-126.383	-0.054	-0.008
-180.042	66.499	0.221	-0.224
-179.027	-105.044	0.147	-0.034
-178.012	-167.270	0.246	0.010
-176.998	-200.000	-0.006	0.200
-175.983	-200.000	-0.003	0.133
-174.969	-200.000	-0.061	-0.267
-173.954	46.955	-0.182	0.169
-172.939	-162.239	0.155	0.008
-171.925	19.097	0.011	-0.008
-170.910	-161.364	0.057	-0.003
-169.896	-26.172	0.319	0.187
-168.881	-200.000	0.012	-0.055
-167.866	36.678	0.101	-0.089
-166.852	144.039	-0.263	-0.350
-165.837	-200.000	-0.047	0.228
-164.823	-71.260	-0.115	0.043
-163.808	-15.779	-0.283	-0.180
-162.793	-120.849	-0.152	0.026
-161.779	241.353	0.136	-0.227
-160.764	278.859	-0.027	-0.048
-159.750	-66.589	-0.324	0.128
-158.735	572.399	-0.144	0.350
-157.720	139.430	-0.246	0.323
-156.706	98.553	0.122	0.140
-155.691	-98.361	-0.290	0.074
-154.677	329.424	-0.172	-0.330
-153.662	228.244	-0.264	0.429
-152.647	-138.065	0.350	-0.039
-151.633	794.180	-0.076	0.210
-150.618	-200.000	0.004	0.138
-149.604	-88.105	0.214	0.064
-148.589	-200.000	0.069	-0.313
-147.574	-200.000	-0.045	-0.200
-146.560	-136.434	-0.306	-0.035
-145.545	-112.877	0.128	0.025
-144.531	-194.823	-0.245	-0.002
-143.516	389.379	-0.136	0.282
-142.502	28.640	0.027	-0.023
-141.487	-106.061	0.238	-0.053
-140.472	800.000	-0.042	-0.131
-139.458	251.032	0.098	-0.166
-138.443	-176.834	-0.330	0.008
-137.429	22.225	0.317	0.258
-136.414	58.393	0.305	0.299
-135.399	800.000	-0.022	0.079
-134.385	-193.914	-0.050	-0.000
-133.370	452.875	-0.089	0.197
-132.356	146.625	-0.035	-0.047
-131.341	-149.624	0.081	-0.006
-130.326	-200.000	-0.046	0.386
-129.312	303.610	0.067	-0.124
-128.297	199.501	-0.146	0.223
-127.283	-58.224	-0.166	0.072
-126.268	-75.427	-0.287	-0.102
-125.253	164.330	0.143	0.201
-124.239	-30.665	-0.171	0.096
-123.224	318.942	0.002	-0.003
-122.210	95.534	-0.269	0.306
-121.195	-48.377	0.343	0.165
-120.180	747.262	-0.115	-0.310
-119.166	719.509	0.116	-0.307
-118.151	-14.846	-0.248	0.159
-117.137	-200.000	0.006	-0.250
-116.122	-149.662	0.395	-0.031
-115.107	-66.266	0.177	0.070
-114.093	563.920	0.056	-0.134
-113.078	150.248	-0.165	0.224
-112.064	32.909	0.227	0.196
-111.049	299.198	-0.048	0.087
-110.034	-110.390	-0.062	-0.013
-109.020	-25.870	0.246	0.145
-108.005	126.100	-0.206	0.260
-106.991	240.642	-0.067	-0.112
-105.976	403.696	-0.129	0.271
-104.962	-146.981	0.116	-0.010
-103.947	104.855	0.132	0.155
-102.932	112.709	-0.233	-0.281
-101.918	331.797	-0.114	-0.219
-100.903	-136.643	0.188	-0.022
-99.889	162.915	0.009	-0.012
-98.874	-19.050	0.116	-0.072
-97.859	-53.491	-0.288	-0.131
-96.845	-52.767	-0.072	-0.033
-95.830	59.278	0.021	0.021
-94.816	-156.008	0.303	0.019
-93.801	162.165	-0.088	0.123
-92.786	-105.604	0.269	0.061
-91.772	-131.999	0.177	-0.023
-90.757	79.423	-0.103	-0.110
-89.743	55.667	-0.101	0.098
-88.728	800.000	-0.140	-0.497
-87.713	229.894	-0.203	0.331
-86.699	-119.177	-0.339	-0.059
-85.684	-80.679	0.319	-0.106
-84.670	247.642	-0.099	0.166
-83.655	205.693	0.080	0.124
-82.640	-3.544	0.129	0.089
-81.626	-63.351	-0.085	0.035
-80.611	-167.557	-0.108	0.004
-79.597	-200.000	0.086	0.445
-78.582	173.231	0.140	0.200
-77.567	-91.850	0.173	-0.049
-76.553	-116.935	0.089	-0.016
-75.538	318.804	0.069	0.129
-74.524	162.681	0.064	0.089
-73.509	797.474	0.079	-0.216
-72.494	1.237	0.184	-0.131
-71.480	-200.000	0.009	0.094
-70.465	-74.818	-0.202	-0.072
-69.451	-105.385	-0.148	-0.034
-68.436	-61.041	-0.186	-0.078
-67.422	567.350	0.160	0.387
-66.407	-200.000	0.163	-0.000
-65.392	-200.000	-0.228	-0.001
-64.378	-93.351	0.159	-0.044
-63.363	-200.000	0.007	0.205
-62.349	153.000	-0.265	0.361
-61.334	118.283	-0.705	-0.865
-60.319	98.605	0.313	0.359
-59.305	-200.000	-0.102	-0.949
-58.290	96.537	0.551	0.628
-57.276	443.803	0.661	1.442
-56.261	-200.000	85.643	501.868
-55.246	454.355	1394.173	3071.757
-54.232	144.179	2610.376	3464.094
-53.217	110.028	2232.298	2664.385
-52.203	48.123	1676.802	1559.337
-51.188	40.754	1406.889	1261.692
-50.173	37.623	1362.288	1202.345
-49.159	56.402	1404.702	1357.819
-48.144	61.179	1423.529	1405.887
-47.130	41.445	1381.521	1243.054
-46.115	37.561	1364.691	1203.889
-45.100	37.429	1359.628	1198.560
-44.086	37.286	1357.293	1195.575
-43.071	37.168	1355.317	1193.062
-42.057	37.211	1353.124	1191.346
-41.042	37.439	1350.715	1190.576
-40.027	37.494	1349.223	1189.553
-39.013	37.376	1347.731	1187.465
-37.998	37.347	1346.042	1185.753
-36.984	37.344	1344.305	1184.161
-35.969	37.413	1342.114	1182.605
-34.954	37.501	1339.786	1181.040
-33.940	37.447	1338.756	1179.755
-32.925	37.553	1337.321	1179.087
-31.911	37.563	1335.908	1177.853
-30.896	37.576	1334.210	1176.392
-29.881	37.643	1333.088	1175.757
-28.867	37.600	1332.062	1174.550
-27.852	37.597	1330.315	1172.943
-26.838	37.640	1328.841	1171.855
-25.823	37.653	1327.632	1170.820
-24.809	37.566	1325.962	1168.782
-23.794	37.569	1324.578	1167.529
-22.779	37.650	1323.139	1166.703
-21.765	37.623	1322.513	1165.940
-20.750	37.558	1320.649	1163.861
-19.736	37.374	1319.242	1161.478
-18.721	37.433	1317.766	1160.483
-17.706	37.388	1316.911	1159.415
-16.692	37.451	1315.669	1158.655
-15.677	37.479	1314.742	1157.959
-14.663	37.434	1313.543	1156.591
-13.648	37.490	1311.944	1155.469
-12.633	37.474	1311.160	1154.637
-11.619	37.504	1310.072	1153.811
-10.604	37.366	1309.828	1152.729
-9.590	37.506	1308.388	1152.244
-8.575	37.383	1307.549	1150.736
-7.560	37.417	1306.626	1150.078
-6.546	37.396	1305.435	1148.857
-5.531	37.404	1304.948	1148.433
-4.517	37.440	1303.467	1147.298
-3.502	37.518	1302.582	1146.929
-2.487	37.486	1301.734	1145.949
-1.473	37.561	1298.188	1143.221
-0.458	36.704	1283.910	1125.623
0.556	33.607	1265.014	1088.059
1.571	30.024	1269.265	1070.948
2.586	28.934	1284.219	1077.090
3.600	27.348	1272.077	1057.604
4.615	19.414	1193.179	948.479
5.629	7.443	1109.667	820.447
6.644	2.283	1086.646	777.176
7.659	1.931	1083.279	772.912
8.673	1.719	1082.172	770.981
9.688	1.629	1080.568	769.315
10.702	1.969	1079.625	770.294
11.717	8.711	1089.768	811.739
12.731	19.815	1105.831	880.464
13.746	24.783	1111.947	910.615
14.761	25.220	1112.423	913.147
15.775	25.235	1111.640	912.502
16.790	24.964	1111.013	910.529
17.804	24.887	1110.168	909.364
18.819	25.043	1109.504	909.530
19.834	24.999	1109.808	909.477
20.848	25.187	1108.690	909.431
21.863	25.042	1108.719	908.640
22.877	25.079	1107.725	907.931
23.892	25.084	1106.612	906.963
24.907	25.166	1106.108	906.885
25.921	25.088	1104.651	905.216
26.936	25.063	1103.779	904.298
27.950	25.101	1101.988	902.942
28.965	24.924	1100.340	900.620
29.980	25.051	1098.709	899.845
30.994	25.204	1098.127	900.055
32.009	25.161	1096.912	898.765
33.023	25.024	1095.590	896.915
34.038	24.929	1094.897	895.794
35.053	25.148	1094.482	896.468
36.067	25.134	1093.347	895.390
37.082	25.125	1092.677	894.720
38.096	25.278	1092.057	894.896
39.111	25.331	1091.341	894.492
40.126	25.305	1089.632	892.883
41.140	24.869	1088.286	889.537
42.155	24.714	1086.445	887.182
43.169	24.690	1085.641	886.329
44.184	24.736	1084.867	885.847
45.199	24.582	1084.141	884.412
46.213	24.644	1083.096	883.792
47.228	24.858	1082.560	884.329
48.242	24.929	1081.384	883.642
49.257	25.136	1080.513	883.871
50.271	25.054	1080.540	883.411
51.286	25.170	1079.142	882.764
52.301	25.172	1078.171	881.899
53.315	25.027	1077.504	880.566
54.330	25.040	1076.410	879.655
55.344	25.077	1075.493	879.011
56.359	25.047	1074.261	877.780
57.374	24.767	1074.072	876.175
58.388	24.760	1073.227	875.376
59.403	24.696	1071.956	873.949
60.417	24.583	1071.505	872.952
61.432	24.756	1070.692	873.057
62.447	24.945	1069.876	873.235
63.461	24.940	1069.278	872.643
64.476	24.804	1068.341	871.142
65.490	24.776	1067.051	869.875
66.505	24.749	1067.259	869.836
67.520	24.748	1066.321	868.990
68.534	24.617	1064.952	867.160
69.549	24.352	1064.001	865.027
70.563	24.387	1062.899	864.223
71.578	24.331	1062.371	863.447
72.593	24.034	1061.260	861.029
73.607	24.247	1060.890	861.685
74.622	24.707	1060.218	863.283
75.636	24.577	1059.478	861.975
76.651	24.479	1058.629	860.737
77.666	24.405	1057.785	859.620
78.680	24.585	1057.162	859.901
79.695	24.545	1056.362	858.986
80.709	24.686	1056.064	859.344
81.724	24.649	1055.486	858.618
82.739	24.929	1053.724	858.453
83.753	25.108	1053.888	859.366
84.768	25.276	1053.630	859.886
85.782	25.525	1052.022	859.688
86.797	25.375	1051.276	858.286
87.812	25.301	1050.184	856.967
88.826	25.225	1049.362	855.857
89.841	25.341	1048.358	855.516
90.855	25.406	1047.505	855.053
91.870	25.354	1046.680	854.055
92.884	25.187	1045.063	851.866
93.899	25.159	1044.381	851.103
94.914	25.349	1043.571	851.271
95.928	25.187	1042.444	849.506
96.943	24.869	1041.320	847.013
97.957	24.709	1040.258	845.315
98.972	24.564	1038.641	843.243
99.987	24.791	1038.215	843.894
101.001	25.073	1037.227	844.347
102.016	25.047	1036.505	843.559
103.030	25.000	1034.963	842.008
104.045	24.894	1033.844	840.528
105.060	24.560	1033.523	838.625
106.074	24.769	1032.788	838.935
107.089	25.170	1032.231	840.287
108.103	25.094	1031.234	839.045
109.118	24.780	1029.616	836.186
110.133	24.710	1029.294	835.524
111.147	24.633	1027.643	833.750
112.162	24.526	1026.887	832.565
113.176	24.781	1026.372	833.263
114.191	24.573	1025.481	831.498
115.206	24.382	1024.269	829.552
116.220	24.444	1023.294	828.978
117.235	24.363	1022.860	828.175
118.249	24.426	1022.088	827.772
119.264	24.365	1021.022	826.550
120.279	24.396	1020.544	826.234
121.293	24.583	1019.625	826.283
122.308	24.682	1018.367	825.645
123.322	24.379	1017.622	823.571
124.337	24.297	1015.937	821.758
125.352	23.877	1014.282	818.411
126.366	23.783	1013.291	817.108
127.381	24.418	1014.040	820.559
128.395	24.864	1013.673	822.240
129.410	25.138	1012.357	822.358
130.424	24.950	1011.326	820.588
131.439	25.018	1010.791	820.390
132.454	24.993	1009.805	819.405
133.468	24.962	1009.056	818.579
134.483	25.087	1007.864	818.111
135.497	25.243	1007.324	818.312
136.512	25.168	1006.932	817.579
137.527	25.331	1005.447	817.044
138.541	25.285	1004.657	816.120
139.556	25.288	1003.971	815.505
140.570	25.405	1003.491	815.575
141.585	25.403	1002.359	814.572
142.600	25.225	1001.145	812.707
143.614	25.407	1001.245	813.542
144.629	25.649	999.877	813.454
145.643	25.393	998.691	811.258
146.658	25.297	996.861	809.271
147.673	25.010	996.275	807.429
148.687	25.042	995.065	806.520
149.702	25.059	994.070	805.721
150.716	25.132	992.949	805.068
151.731	25.103	992.748	804.703
152.746	25.356	992.274	805.383
153.760	25.425	991.346	804.867
154.775	25.675	990.622	805.325
155.789	25.441	989.537	803.327
156.804	25.384	988.934	802.511
157.819	25.488	988.262	802.360
158.833	25.591	987.327	801.988
159.848	25.548	986.121	800.746
160.862	25.321	985.205	798.922
161.877	25.349	984.378	798.307
162.892	25.407	983.388	797.690
163.906	25.384	981.962	796.362
164.921	25.474	980.973	795.888
165.935	25.423	980.387	795.114
166.950	25.399	979.680	794.363
167.964	25.431	978.683	793.628
168.979	25.201	977.819	791.840
169.994	25.200	977.028	791.125
171.008	25.379	976.424	791.355
172.023	25.487	975.331	790.878
173.037	25.240	974.300	788.884
174.052	25.124	973.404	787.580
175.067	25.128	972.752	787.000
176.081	25.232	972.012	786.788
177.096	25.269	971.313	786.313
178.110	24.824	970.420	783.573
179.125	24.567	969.770	781.855
180.140	24.793	969.221	782.330
181.154	25.107	968.725	783.233
182.169	25.278	968.927	784.075
183.183	25.395	968.674	784.310
184.198	25.375	967.585	783.275
185.213	25.402	966.642	782.560
186.227	25.446	965.618	781.854
187.242	25.358	965.340	781.174
188.256	25.445	964.452	780.767
189.271	25.664	963.703	781.039
190.286	25.200	962.641	778.099
191.300	24.438	961.134	773.512
192.315	23.808	959.153	769.123
193.329	23.721	958.991	768.545
194.344	24.664	959.436	772.917
195.359	25.233	959.486	775.348
196.373	25.403	959.253	775.827
197.388	25.063	958.334	773.545
198.402	25.088	957.941	773.267
199.417	25.339	956.683	773.264
200.432	25.046	956.025	771.405
201.446	24.946	955.366	770.375
202.461	24.955	954.828	769.912
203.475	24.179	952.643	764.750
204.490	23.209	951.288	759.436
205.504	24.176	951.966	764.061
206.519	24.850	951.522	766.522
207.534	24.794	951.584	766.267
208.548	25.465	950.756	768.399
209.563	25.120	950.477	766.631
210.577	25.092	949.334	765.523
211.592	25.532	949.336	767.336
212.607	25.415	948.281	765.915
213.621	25.476	947.727	765.663
214.636	25.449	947.193	765.048
215.650	25.377	946.506	764.118
216.665	25.659	945.545	764.472
217.680	25.497	944.443	762.829
218.694	25.002	943.297	759.733
219.709	24.821	942.960	758.631
220.723	25.209	942.890	760.149
221.738	25.386	941.764	759.922
222.753	25.169	941.521	758.744
223.767	25.380	941.125	759.246
224.782	25.543	940.953	759.732
225.796	25.690	939.900	759.434
226.811	24.880	938.545	754.859
227.826	24.261	937.161	751.069
228.840	24.404	936.478	751.057
229.855	24.408	935.995	750.623
230.869	24.214	935.015	748.953
231.884	24.534	934.909	750.146
232.899	25.252	934.835	753.036
233.913	25.177	934.352	752.268
234.928	25.077	934.011	751.504
235.942	25.069	932.993	750.585
236.957	24.769	932.329	748.728
237.972	24.778	931.773	748.253
238.986	24.898	931.006	748.075
240.001	24.854	930.382	747.323
241.015	25.041	930.006	747.735
242.030	25.187	929.467	747.845
243.045	25.353	928.703	747.856
244.059	25.450	928.437	747.978
245.074	25.262	927.400	746.296
246.088	24.896	926.395	743.901
247.103	25.243	926.074	745.018
248.117	25.678	925.985	746.687
249.132	25.923	926.014	747.659
250.147	26.061	925.352	747.630
251.161	26.265	924.688	747.872
252.176	26.099	924.398	746.885
253.190	26.321	923.598	747.088
254.205	26.427	923.242	747.173
255.220	26.299	922.723	746.157
256.234	26.219	921.666	744.909
257.249	26.070	920.968	743.663
258.263	26.198	920.058	743.390
259.278	26.227	919.767	743.207
260.293	26.180	919.133	742.438
261.307	26.145	918.333	741.581
262.322	25.981	917.365	740.063
263.336	25.250	915.749	735.695
264.351	24.266	913.401	729.720
265.366	24.436	913.110	730.117
266.380	25.402	914.223	734.898
267.395	25.728	913.664	735.717
268.409	25.724	913.239	735.294
269.424	26.058	912.713	736.168
270.439	26.091	912.191	735.814
271.453	26.031	911.353	734.832
272.468	26.227	911.141	735.390
273.482	26.174	910.565	734.646
274.497	25.887	909.175	732.294
275.512	25.608	908.285	730.380
276.526	25.952	908.552	731.925
277.541	26.114	907.882	731.977
278.555	25.803	907.189	730.094
279.570	25.747	906.438	729.199
280.585	25.886	905.968	729.319
281.599	25.809	905.014	728.174
282.614	25.371	903.396	725.039
283.628	25.221	903.301	724.294
284.643	25.562	902.981	725.353
285.657	25.243	901.821	723.071
286.672	24.869	901.044	720.876
287.687	25.444	901.010	723.099
288.701	25.735	900.248	723.595
289.716	25.370	899.399	721.381
290.730	25.300	898.609	720.402
291.745	24.978	897.888	718.472
292.760	25.325	897.612	719.577
293.774	26.291	898.207	723.862
294.789	26.435	898.070	724.263
295.803	26.500	897.557	724.045
296.818	26.611	896.863	723.867
297.833	26.090	895.504	720.626
298.847	26.064	894.657	719.777
299.862	26.321	894.548	720.650
300.876	26.437	894.541	721.041
301.891	26.396	893.485	719.966
302.906	25.994	892.619	717.604
303.920	26.187	892.281	718.036
304.935	26.605	892.250	719.609
305.949	26.430	891.354	718.130
306.964	26.166	890.715	716.503
307.979	26.382	889.729	716.504
308.993	26.658	889.989	717.743
310.008	26.766	889.351	717.592
311.022	26.417	888.313	715.311
312.037	26.316	887.742	714.388
313.052	26.095	886.907	712.779
314.066	25.180	885.084	707.644
315.081	24.786	884.744	705.756
316.095	25.641	884.936	709.217
317.110	26.178	884.577	710.982
318.125	25.429	882.598	706.386
319.139	24.239	881.546	700.804
320.154	24.083	881.401	700.016
321.168	25.048	881.796	704.059
322.183	25.879	881.673	707.161
323.197	25.978	881.195	707.104
324.212	26.123	881.076	707.513
325.227	26.283	880.230	707.400
326.241	26.143	879.842	706.476
327.256	26.059	879.029	705.431
328.270	25.934	878.250	704.256
329.285	25.792	877.322	702.896
330.300	25.600	876.753	701.628
331.314	25.772	876.550	702.075
332.329	26.255	876.311	703.704
333.343	26.425	875.734	703.841
334.358	26.317	875.498	703.167
335.373	26.356	875.451	703.219
336.387	26.690	875.257	704.300
337.402	26.837	874.824	704.460
338.416	26.670	874.803	703.732
339.431	26.794	874.308	703.753
340.446	26.904	873.844	703.744
341.460	26.961	873.076	703.284
342.475	26.778	872.689	702.200
343.489	26.772	872.270	701.777
344.504	27.111	872.024	702.833
345.519	27.188	871.806	702.889
346.533	27.176	870.952	702.092
347.548	27.219	870.511	701.843
348.562	27.127	870.099	701.091
349.577	27.154	869.426	700.591
350.592	27.070	868.600	699.540
351.606	27.035	867.925	698.802
352.621	26.983	866.831	697.660
353.635	27.001	865.549	696.634
354.650	26.277	864.525	692.971
355.665	25.341	863.149	688.224
356.679	25.705	863.012	689.447
357.694	26.279	862.244	690.969
358.708	26.098	861.900	689.941
359.723	26.433	861.847	691.116
360.738	26.713	861.737	692.037
361.752	26.861	861.202	692.112
362.767	27.229	860.978	693.272
363.781	27.435	860.591	693.683
364.796	27.744	859.481	693.903
365.810	27.659	859.755	693.741
366.825	27.458	859.330	692.572
367.840	27.262	858.137	690.804
368.854	26.977	857.055	688.792
369.869	26.871	856.680	688.027
370.883	26.964	856.283	687.999
371.898	26.848	856.066	687.324
372.913	26.931	855.879	687.429
373.927	27.187	855.211	687.798
374.942	27.232	854.766	687.550
375.956	27.316	854.426	687.535
376.971	27.488	854.284	688.009
377.986	27.552	853.890	687.870
379.000	27.508	853.121	687.027
380.015	27.276	852.351	685.470
381.029	27.206	852.343	685.142
382.044	27.430	851.627	685.345
383.059	27.514	850.765	684.909
384.073	27.565	850.094	684.499
385.088	27.541	849.694	684.028
386.102	27.431	848.311	682.439
387.117	27.334	848.006	681.771
388.132	26.908	846.892	679.223
389.146	26.435	845.739	676.466
390.161	26.802	846.099	678.069
391.175	27.312	845.968	679.812
392.190	26.847	844.954	677.199
393.205	25.468	842.589	670.105
394.219	24.050	840.885	663.410
395.234	23.835	840.748	662.443
396.248	25.582	841.945	669.840
397.263	27.189	842.989	676.600
398.278	27.023	842.364	675.420
399.292	26.841	841.434	673.938
400.307	26.635	841.342	673.040
401.321	26.850	840.828	673.365
402.336	27.266	840.637	674.699
403.350	27.599	840.797	676.000
404.365	27.970	840.489	677.069
405.380	28.283	840.114	677.865
406.394	28.332	839.814	677.744
407.409	28.223	839.000	676.627
408.423	28.117	838.761	675.982
409.438	28.333	838.412	676.439
410.453	28.275	838.112	675.921
411.467	28.136	837.150	674.574
412.482	28.185	837.095	674.650
413.496	28.174	837.119	674.569
414.511	28.265	836.366	674.237
415.526	28.302	835.754	673.821
416.540	28.032	834.974	672.141
417.555	27.868	834.314	670.947
418.569	27.869	833.955	670.602
419.584	27.811	833.467	669.937
420.599	27.785	832.298	668.845
421.613	100.752	1277.426	1416.101
422.628	87.337	1342.341	1416.229
