DTS Sentinel unit serial number:	SN413079Multiplexer serial number:	ORYXHardware model number:	OX4-SRSoftware version number:	ORYX F/W v4.00 Oryx Data Collector v3.7.2.0data status	okinstallation	princeton_trtdifferential loss correction	single-endedforward channel	channel 1reverse channel	N/Adate	2019/09/13time	10:42:36forward acquisition time	60.00reverse acquisition time	0.00gamma	496.2192k internal	0.2321k external	0.2321temperature offset calibration	1.0154default loss term (dB/km)	0.3790temperature slope calibration	1.0000multiplexer offset coefficient	1.0000multiplexer slope coefficient	1.0000fibre end	0.00T internal ref (°C)	31.50T ext. ref 1 (°C)	4.58T ext. ref 2 (°C)	28.35length (m)	temperature (°C)	Stokes	anti-Stokes-747.200	643.556	0.081	-0.210
-746.185	44.320	-0.070	-0.065
-745.171	-36.014	0.039	0.021
-744.156	-200.000	-0.082	0.399
-743.142	521.845	-0.064	0.152
-742.127	800.000	-0.024	0.079
-741.112	800.000	0.107	-0.367
-740.098	-115.361	-0.447	-0.085
-739.083	183.457	0.049	-0.073
-738.069	-200.000	-0.013	-0.231
-737.054	800.000	-0.078	0.324
-736.039	-200.000	0.033	0.291
-735.025	-9.822	0.289	0.194
-734.010	-45.162	-0.137	-0.069
-732.996	-163.013	-0.239	-0.012
-731.981	30.334	-0.164	0.142
-730.966	-200.000	0.045	-0.304
-729.952	800.000	0.055	-0.242
-728.937	-200.000	-0.018	-0.446
-727.923	-50.217	-0.218	0.104
-726.908	122.495	0.157	-0.198
-725.894	-47.663	-0.127	-0.062
-724.879	-200.000	-0.001	-0.080
-723.864	125.980	0.203	-0.259
-722.850	-41.532	0.436	-0.226
-721.835	-200.000	-0.001	0.155
-720.821	-200.000	-0.001	-0.221
-719.806	126.200	-0.141	-0.181
-718.791	800.000	-0.111	-0.316
-717.777	-83.020	-0.297	0.097
-716.762	-49.360	-0.107	0.052
-715.748	-84.419	0.227	0.072
-714.733	800.000	0.093	0.302
-713.718	-200.000	0.001	-0.031
-712.704	-7.477	0.197	-0.135
-711.689	189.528	-0.047	-0.071
-710.675	-200.000	0.027	-0.331
-709.660	53.102	0.094	0.091
-708.645	91.261	-0.148	-0.167
-707.631	219.722	0.154	0.248
-706.616	-148.233	-0.292	0.024
-705.602	-83.957	0.190	0.061
-704.587	13.729	-0.143	0.112
-703.572	545.104	0.078	-0.188
-702.558	-200.000	0.024	0.408
-701.543	365.464	0.119	-0.242
-700.529	-200.000	-0.006	-0.061
-699.514	-87.405	0.261	-0.080
-698.499	166.302	-0.097	-0.139
-697.485	495.256	0.092	-0.213
-696.470	-126.742	0.115	0.017
-695.456	92.210	0.025	-0.028
-694.441	-77.000	0.140	0.049
-693.426	97.209	-0.163	0.189
-692.412	-9.901	-0.150	0.100
-691.397	-200.000	-0.005	-0.282
-690.383	-195.212	-0.451	0.003
-689.368	49.817	0.242	0.231
-688.354	267.538	0.072	0.128
-687.339	305.147	-0.141	0.263
-686.324	5.445	0.117	0.087
-685.310	-119.281	0.388	-0.068
-684.295	800.000	-0.111	0.354
-683.281	50.836	0.057	-0.055
-682.266	253.918	-0.063	0.109
-681.251	283.420	-0.201	-0.365
-680.237	42.131	-0.271	0.248
-679.222	-155.740	-0.380	0.024
-678.208	-97.616	0.190	-0.050
-677.193	-61.638	-0.140	0.059
-676.178	-8.196	0.317	-0.215
-675.164	-200.000	0.017	-0.084
-674.149	549.893	-0.146	-0.353
-673.135	265.223	-0.068	-0.120
-672.120	253.591	0.056	0.096
-671.105	44.574	-0.153	-0.142
-670.091	-74.036	-0.082	-0.030
-669.076	-200.000	0.008	-0.115
-668.062	800.000	0.112	-0.358
-667.047	-200.000	0.012	0.576
-666.032	800.000	-0.116	0.393
-665.018	-107.393	0.303	0.067
-664.003	0.619	0.233	0.168
-662.989	-200.000	0.009	0.123
-661.974	28.217	0.241	-0.205
-660.959	-34.920	0.067	0.037
-659.945	-159.517	-0.072	0.004
-658.930	-200.000	-0.047	-0.210
-657.916	589.550	0.137	-0.340
-656.901	-129.967	0.242	0.033
-655.886	102.572	-0.055	-0.065
-654.872	-200.000	-0.012	-0.069
-653.857	-117.127	-0.061	-0.011
-652.843	-95.888	0.363	-0.098
-651.828	85.115	0.224	-0.248
-650.814	-75.183	0.353	-0.127
-649.799	-133.169	-0.354	-0.045
-648.784	342.301	0.037	0.073
-647.770	-85.478	0.170	-0.053
-646.755	47.815	0.080	-0.075
-645.741	40.398	0.163	0.148
-644.726	-200.000	-0.099	0.459
-643.711	160.897	-0.235	-0.331
-642.697	-158.693	-0.200	0.012
-641.682	32.285	0.226	0.197
-640.668	639.326	-0.069	-0.178
-639.653	5.599	0.097	-0.072
-638.638	-200.000	-0.025	0.225
-637.624	800.000	0.119	0.382
-636.609	212.842	0.151	-0.241
-635.595	-24.418	-0.125	-0.075
-634.580	-123.433	-0.190	0.030
-633.565	719.432	-0.108	0.290
-632.551	-60.612	0.186	0.080
-631.536	-109.069	0.191	0.041
-630.522	48.951	0.076	-0.072
-629.507	255.390	-0.147	0.253
-628.492	-39.326	-0.101	0.053
-627.478	-110.154	-0.262	-0.055
-626.463	-3.338	0.123	0.086
-625.449	405.503	0.029	0.061
-624.434	-98.641	0.393	-0.101
-623.419	-94.109	0.424	0.117
-622.405	223.676	0.132	-0.214
-621.390	117.010	-0.223	-0.275
-620.376	-63.905	0.407	0.167
-619.361	-98.321	-0.295	-0.076
-618.346	-200.000	0.010	-0.247
-617.332	-117.735	0.142	-0.026
-616.317	-102.166	0.125	0.030
-615.303	-200.000	-0.012	0.369
-614.288	-33.967	0.101	-0.056
-613.273	-200.000	0.076	0.336
-612.259	-58.769	-0.225	0.098
-611.244	-200.000	-0.024	-0.120
-610.230	-36.982	-0.092	-0.049
-609.215	-160.466	-0.248	-0.013
-608.201	-200.000	0.004	-0.243
-607.186	-178.885	-0.253	-0.006
-606.171	-170.930	-0.177	-0.006
-605.157	800.000	-0.055	-0.216
-604.142	-156.802	0.413	0.026
-603.128	-88.223	0.326	-0.098
-602.113	-121.373	0.190	-0.032
-601.098	-12.482	-0.373	0.245
-600.084	-114.893	0.328	0.063
-599.069	-200.000	0.054	-0.258
-598.055	-62.780	0.288	-0.120
-597.040	-102.006	0.208	0.050
-596.025	-43.025	-0.390	-0.199
-595.011	14.206	-0.264	-0.207
-593.996	-39.277	-0.294	0.155
-592.982	-161.075	0.223	-0.012
-591.967	22.324	-0.220	0.180
-590.952	-200.000	0.066	0.300
-589.938	-200.000	0.000	-0.109
-588.923	-200.000	-0.029	0.199
-587.909	-200.000	-0.040	0.241
-586.894	44.921	0.110	0.102
-585.879	800.000	-0.063	0.220
-584.865	163.178	0.160	0.226
-583.850	-149.043	-0.184	-0.015
-582.836	424.008	0.038	0.082
-581.821	39.373	-0.201	-0.180
-580.806	14.204	0.364	-0.285
-579.792	353.864	0.041	-0.081
-578.777	78.013	-0.181	-0.194
-577.763	-17.572	0.109	-0.069
-576.748	-95.711	0.202	0.054
-575.733	-144.371	0.146	0.014
-574.719	-18.501	-0.255	-0.160
-573.704	364.732	-0.081	0.163
-572.690	-200.000	-0.043	0.242
-571.675	143.741	0.178	-0.238
-570.661	-15.312	-0.056	-0.036
-569.646	-45.986	-0.362	-0.179
-568.631	348.793	0.197	-0.390
-567.617	473.473	-0.019	-0.044
-566.602	-191.830	0.197	0.002
-565.588	49.644	0.268	-0.253
-564.573	-81.534	-0.146	-0.048
-563.558	-101.671	-0.438	0.107
-562.544	-115.801	-0.220	-0.041
-561.529	-12.441	0.301	-0.198
-560.515	650.627	-0.055	-0.142
-559.500	153.322	0.167	0.230
-558.485	22.283	0.034	-0.028
-557.471	-136.659	0.042	-0.005
-556.456	-200.000	0.012	-0.169
-555.442	86.622	-0.218	-0.241
-554.427	-90.058	-0.059	-0.017
-553.412	72.168	-0.253	-0.264
-552.398	-96.820	0.208	-0.055
-551.383	101.164	-0.044	0.052
-550.369	-126.613	0.097	-0.014
-549.354	800.000	-0.059	-0.189
-548.339	20.435	-0.134	0.108
-547.325	27.630	0.186	-0.157
-546.310	-43.373	0.100	0.050
-545.296	368.436	0.194	0.394
-544.281	-200.000	-0.010	-0.318
-543.266	189.008	0.213	-0.319
-542.252	149.230	-0.122	-0.166
-541.237	50.111	-0.220	-0.208
-540.223	734.905	-0.041	-0.111
-539.208	-102.309	-0.171	-0.041
-538.193	31.455	-0.263	-0.227
-537.179	-194.547	0.092	-0.001
-536.164	26.344	-0.063	0.052
-535.150	-29.265	-0.163	0.094
-534.135	-73.035	0.115	0.042
-533.121	-51.179	0.297	0.140
-532.106	-84.674	0.208	-0.066
-531.091	-200.000	0.049	0.427
-530.077	-97.177	0.232	-0.061
-529.062	-156.790	0.406	-0.025
-528.048	82.384	-0.179	0.195
-527.033	745.789	-0.028	0.075
-526.018	-200.000	-0.019	-0.137
-525.004	263.015	0.052	0.091
-523.989	1.145	-0.046	0.033
-522.975	-110.546	0.094	0.019
-521.960	800.000	-0.082	0.248
-520.945	-136.770	0.050	0.006
-519.931	-162.816	-0.437	0.021
-518.916	178.832	-0.055	-0.081
-517.902	53.208	-0.171	0.164
-516.887	-128.701	-0.231	0.033
-515.872	800.000	-0.066	-0.254
-514.858	-134.974	0.179	-0.022
-513.843	-200.000	-0.006	0.035
-512.829	-200.000	-0.002	0.082
-511.814	-19.511	0.156	-0.097
-510.799	-162.027	-0.144	0.007
-509.785	-98.499	0.441	0.113
-508.770	-130.122	0.102	0.014
-507.756	800.000	0.031	0.110
-506.741	-142.369	0.185	0.018
-505.726	-200.000	-0.027	-0.127
-504.712	-67.272	-0.408	0.161
-503.697	-31.665	0.089	0.050
-502.683	62.212	-0.127	0.127
-501.668	349.237	-0.010	0.020
-500.653	-138.740	-0.199	-0.022
-499.639	-93.252	0.215	-0.060
-498.624	-51.526	0.261	-0.122
-497.610	30.608	0.247	-0.211
-496.595	49.078	-0.186	0.175
-495.581	-36.837	-0.246	-0.132
-494.566	168.397	0.080	0.115
-493.551	-200.000	0.012	0.234
-492.537	352.297	-0.060	0.118
-491.522	-68.198	-0.228	0.089
-490.508	-97.894	0.429	-0.111
-489.493	119.922	-0.090	-0.112
-488.478	-179.475	-0.203	0.004
-487.464	-19.920	-0.059	-0.036
-486.449	-200.000	0.010	0.072
-485.435	-145.057	-0.124	-0.011
-484.420	-41.386	0.183	-0.094
-483.405	23.488	-0.212	-0.174
-482.391	234.271	-0.127	0.209
-481.376	-46.613	0.161	-0.079
-480.362	800.000	-0.106	0.349
-479.347	-51.890	0.221	-0.103
-478.332	-151.901	-0.318	0.023
-477.318	-128.791	0.166	-0.023
-476.303	-124.751	0.154	-0.024
-475.289	-0.401	-0.105	0.075
-474.274	-63.560	-0.326	0.134
-473.259	65.500	-0.331	0.335
-472.245	-45.930	-0.156	0.077
-471.230	779.690	-0.095	0.259
-470.216	-145.230	0.149	-0.014
-469.201	-115.208	0.253	-0.048
-468.186	422.437	0.046	0.099
-467.172	-116.995	0.127	0.023
-466.157	473.746	0.105	0.237
-465.143	-28.316	0.195	-0.113
-464.128	-200.000	0.317	0.001
-463.113	251.069	-0.089	-0.151
-462.099	-67.543	0.121	0.048
-461.084	9.340	0.151	0.114
-460.070	-87.144	-0.233	-0.071
-459.055	341.190	0.017	-0.033
-458.040	-79.656	0.101	-0.034
-457.026	800.000	0.054	-0.210
-456.011	13.718	0.297	-0.231
-454.997	120.550	-0.308	0.383
-453.982	-81.930	0.131	0.043
-452.968	-5.532	-0.107	-0.073
-451.953	-130.313	-0.169	-0.023
-450.938	94.588	0.114	0.130
-449.924	156.924	-0.181	-0.250
-448.909	50.005	0.147	-0.139
-447.895	-56.979	-0.318	-0.140
-446.880	-101.889	-0.274	-0.066
-445.865	115.502	-0.251	0.306
-444.851	-120.805	-0.042	-0.007
-443.836	158.658	0.054	0.075
-442.822	720.874	0.026	0.069
-441.807	-185.063	0.142	-0.002
-440.792	-135.768	-0.111	0.013
-439.778	800.000	-0.024	-0.092
-438.763	-118.369	-0.325	-0.058
-437.749	162.762	0.136	-0.191
-436.734	-82.500	0.156	-0.050
-435.719	91.374	-0.139	-0.156
-434.705	800.000	-0.074	-0.252
-433.690	133.582	0.070	0.091
-432.676	64.244	-0.099	-0.100
-431.661	-43.986	-0.277	-0.139
-430.646	686.048	-0.011	0.028
-429.632	-169.708	-0.140	0.005
-428.617	227.839	-0.143	-0.233
-427.603	-200.000	-0.018	-0.198
-426.588	-104.514	0.112	0.026
-425.573	-45.012	-0.118	-0.058
-424.559	-90.692	0.560	0.162
-423.544	-78.598	-0.167	-0.057
-422.530	3.080	-0.080	0.058
-421.515	-66.962	0.159	0.062
-420.500	-17.029	0.012	0.008
-419.486	-113.221	-0.160	-0.031
-418.471	-41.135	-0.369	-0.190
-417.457	122.756	0.082	0.103
-416.442	20.539	0.206	-0.166
-415.428	-95.063	0.154	0.041
-414.413	765.852	0.059	0.159
-413.398	365.931	0.124	-0.248
-412.384	61.555	0.178	-0.177
-411.369	-87.083	-0.117	-0.035
-410.355	170.325	0.069	0.098
-409.340	-81.908	0.239	-0.078
-408.325	-91.140	0.103	-0.029
-407.311	-90.300	0.089	0.026
-406.296	24.593	-0.036	-0.030
-405.282	-17.216	-0.115	-0.072
-404.267	-18.753	-0.191	0.119
-403.252	71.700	-0.130	-0.135
-402.238	12.128	-0.037	0.028
-401.223	346.767	0.081	0.160
-400.209	341.067	0.138	0.269
-399.194	-49.770	0.265	0.126
-398.179	502.587	-0.091	0.209
-397.165	-46.572	-0.355	0.174
-396.150	172.139	-0.108	-0.154
-395.136	-33.319	-0.288	0.159
-394.121	129.297	0.277	-0.353
-393.106	800.000	-0.078	-0.236
-392.092	-29.632	0.238	-0.135
-391.077	361.347	-0.048	0.096
-390.063	-38.165	0.078	-0.041
-389.048	156.532	-0.049	0.068
-388.033	800.000	-0.025	-0.107
-387.019	-78.122	0.133	0.046
-386.004	15.956	0.032	-0.025
-384.990	-101.536	0.185	0.045
-383.975	-200.000	-0.102	-0.629
-382.960	326.318	-0.045	-0.085
-381.946	34.713	-0.140	0.122
-380.931	-65.236	0.168	-0.068
-379.917	-128.793	0.138	-0.019
-378.902	-200.000	0.009	0.216
-377.888	-29.590	-0.193	-0.110
-376.873	267.382	0.194	0.338
-375.858	-200.000	-0.032	-0.145
-374.844	291.817	0.138	-0.251
-373.829	257.902	-0.117	-0.201
-372.815	-126.080	0.322	0.048
-371.800	-200.000	0.011	-0.112
-370.785	-15.175	-0.293	-0.187
-369.771	91.799	0.211	-0.236
-368.756	47.674	-0.099	-0.092
-367.742	-48.417	-0.181	-0.087
-366.727	116.347	0.260	0.317
-365.712	105.634	-0.233	-0.274
-364.698	-63.218	-0.244	0.100
-363.683	62.584	-0.136	0.136
-362.669	-200.000	-0.004	0.099
-361.654	88.586	0.078	-0.087
-360.639	76.380	-0.230	0.243
-359.625	800.000	0.059	-0.220
-358.610	-115.781	-0.294	-0.055
-357.596	-13.732	0.239	-0.154
-356.581	-63.251	0.088	-0.036
-355.566	95.851	-0.096	0.109
-354.552	-200.000	-0.020	0.122
-353.537	7.283	-0.100	0.074
-352.523	-33.948	-0.253	0.138
-351.508	800.000	-0.036	0.127
-350.493	-200.000	0.003	0.052
-349.479	-118.459	-0.176	-0.031
-348.464	-79.114	0.112	-0.038
-347.450	800.000	-0.090	0.359
-346.435	33.329	0.157	-0.136
-345.420	-200.000	-0.059	-0.285
-344.406	406.131	0.079	0.167
-343.391	478.272	0.084	0.190
-342.377	148.672	0.131	-0.176
-341.362	800.000	0.052	0.177
-340.348	29.805	-0.059	-0.050
-339.333	-30.595	0.242	-0.136
-338.318	-200.000	-0.005	0.282
-337.304	1.997	0.046	0.033
-336.289	32.804	0.121	-0.104
-335.275	-200.000	0.095	0.000
-334.260	335.538	-0.152	-0.293
-333.245	19.308	0.080	-0.064
-332.231	-28.875	-0.131	0.075
-331.216	65.643	-0.031	-0.032
-330.202	171.594	0.062	-0.088
-329.187	-200.000	0.046	0.220
-328.172	-81.707	-0.166	0.054
-327.158	-200.000	0.023	0.588
-326.143	-35.277	0.083	0.045
-325.129	423.609	0.150	-0.320
-324.114	175.959	-0.273	-0.393
-323.099	127.723	-0.085	-0.107
-322.085	-170.955	0.131	-0.004
-321.070	88.189	-0.058	-0.064
-320.056	800.000	-0.025	-0.088
-319.041	227.653	0.168	0.272
-318.026	-200.000	-0.040	-0.203
-317.012	-108.947	0.274	-0.058
-315.997	217.070	0.187	-0.297
-314.983	330.968	0.134	0.257
-313.968	147.260	-0.066	0.088
-312.953	120.411	-0.204	-0.251
-311.939	168.317	-0.076	0.107
-310.924	-91.975	-0.258	-0.073
-309.910	-62.281	0.163	0.068
-308.895	215.010	-0.053	-0.083
-307.880	799.402	0.067	0.184
-306.866	-10.892	-0.033	-0.022
-305.851	2.386	0.038	-0.027
-304.837	-200.000	-0.008	0.182
-303.822	-51.617	-0.115	0.053
-302.807	160.036	0.252	-0.348
-301.793	-200.000	-0.022	0.114
-300.778	163.976	-0.167	0.233
-299.764	21.064	0.169	-0.136
-298.749	800.000	-0.018	-0.063
-297.735	-200.000	0.068	-0.379
-296.720	341.131	0.086	-0.166
-295.705	-83.948	-0.382	-0.121
-294.691	81.203	0.101	0.108
-293.676	-63.471	-0.178	-0.073
-292.662	-94.842	0.183	0.049
-291.647	-200.000	0.037	-0.360
-290.632	-200.000	0.045	-0.227
-289.618	-94.184	0.539	-0.147
-288.603	234.493	-0.180	0.294
-287.589	800.000	0.107	0.422
-286.574	800.000	-0.095	0.298
-285.559	-74.890	0.176	0.063
-284.545	800.000	-0.112	0.316
-283.530	-200.000	-0.024	0.171
-282.516	-200.000	-0.024	-0.225
-281.501	-102.017	0.395	-0.095
-280.486	-89.925	0.338	-0.098
-279.472	247.796	-0.088	-0.148
-278.457	-3.420	-0.221	0.153
-277.443	-19.237	-0.346	0.213
-276.428	62.920	-0.029	0.028
-275.413	128.395	0.213	0.269
-274.399	-45.082	0.205	0.101
-273.384	-114.383	0.074	-0.014
-272.370	-46.393	-0.309	0.151
-271.355	28.486	-0.173	-0.145
-270.340	-200.000	-0.045	-0.309
-269.326	-94.171	-0.151	0.041
-268.311	581.088	-0.083	-0.202
-267.297	-63.452	0.397	-0.162
-266.282	61.672	-0.027	0.027
-265.267	-106.607	-0.340	0.075
-264.253	-84.916	-0.267	-0.083
-263.238	411.394	0.157	0.331
-262.224	800.000	0.047	0.190
-261.209	612.584	0.125	0.309
-260.195	331.399	0.062	-0.118
-259.180	149.152	-0.106	-0.142
-258.165	800.000	0.063	0.216
-257.151	800.000	0.070	0.208
-256.136	-45.192	0.324	0.160
-255.122	-200.000	-0.025	-0.219
-254.107	800.000	0.007	0.029
-253.092	133.072	-0.167	0.213
-252.078	-200.000	-0.015	0.211
-251.063	8.681	0.315	-0.235
-250.049	57.832	0.246	0.239
-249.034	-200.000	-0.016	0.323
-248.019	-200.000	-0.010	-0.150
-247.005	-200.000	0.019	-0.214
-245.990	559.357	-0.168	-0.401
-244.976	-136.721	-0.161	0.018
-243.961	800.000	-0.029	-0.108
-242.946	-135.420	-0.248	-0.029
-241.932	146.754	0.061	0.081
-240.917	137.628	0.160	0.208
-239.903	136.994	-0.180	0.234
-238.888	294.633	0.255	0.462
-237.873	800.000	0.057	0.229
-236.859	280.809	-0.101	-0.179
-235.844	283.911	-0.173	0.308
-234.830	152.153	-0.042	-0.057
-233.815	-200.000	0.067	-0.473
-232.800	155.696	0.124	-0.169
-231.786	-39.924	-0.043	0.022
-230.771	-200.000	-0.023	-0.110
-229.757	27.674	0.503	-0.420
-228.742	-103.510	0.131	-0.031
-227.727	-155.402	-0.238	0.015
-226.713	800.000	0.066	-0.228
-225.698	377.662	0.112	0.227
-224.684	800.000	0.023	-0.076
-223.669	-200.000	0.017	-0.187
-222.655	213.579	-0.279	0.436
-221.640	-79.322	0.131	0.044
-220.625	-65.307	0.352	0.140
-219.611	-115.845	0.080	0.015
-218.596	800.000	0.143	-0.532
-217.582	49.549	0.194	0.181
-216.567	-112.522	-0.269	-0.053
-215.552	69.087	-0.230	-0.234
-214.538	129.906	-0.045	0.057
-213.523	-200.000	-0.010	-0.107
-212.509	39.121	0.272	0.241
-211.494	614.645	-0.041	-0.103
-210.479	359.865	-0.074	-0.146
-209.465	278.118	0.008	0.014
-208.450	-132.713	-0.394	0.050
-207.436	-81.973	-0.054	-0.017
-206.421	131.616	-0.070	-0.089
-205.406	161.399	-0.190	0.263
-204.392	800.000	-0.033	0.120
-203.377	-200.000	0.053	0.263
-202.363	49.309	0.133	0.124
-201.348	-137.164	0.200	-0.023
-200.333	556.579	-0.137	-0.327
-199.319	-200.000	-0.091	0.443
-198.304	-15.869	0.316	-0.199
-197.290	-93.929	-0.172	0.047
-196.275	-200.000	0.009	0.231
-195.260	-179.182	0.081	0.002
-194.246	378.892	-0.061	-0.124
-193.231	75.915	-0.134	0.140
-192.217	-136.683	0.187	-0.021
-191.202	800.000	0.059	-0.205
-190.187	134.587	0.125	-0.160
-189.173	800.000	-0.046	0.162
-188.158	800.000	0.025	-0.104
-187.144	-200.000	0.061	-0.313
-186.129	3.219	-0.210	0.151
-185.114	-200.000	0.015	0.125
-184.100	-200.000	0.001	-0.366
-183.085	7.309	0.132	0.098
-182.071	800.000	-0.055	-0.194
-181.056	-200.000	0.047	0.429
-180.042	-44.143	-0.334	-0.166
-179.027	800.000	-0.041	0.130
-178.012	102.890	0.175	-0.202
-176.998	-63.049	0.090	-0.037
-175.983	6.012	-0.137	0.100
-174.969	49.889	0.168	0.156
-173.954	188.051	-0.143	-0.212
-172.939	544.435	0.175	0.413
-171.925	800.000	0.086	0.281
-170.910	35.674	-0.191	-0.166
-169.896	138.892	-0.252	0.328
-168.881	800.000	0.039	-0.115
-167.866	61.689	-0.099	0.097
-166.852	8.736	0.285	-0.212
-165.837	445.895	0.026	0.057
-164.823	123.760	-0.119	-0.148
-163.808	309.918	-0.256	0.472
-162.793	12.737	-0.257	0.196
-161.779	-109.861	-0.221	0.046
-160.764	-91.772	-0.204	0.057
-159.750	-82.730	-0.169	0.054
-158.735	55.142	0.150	0.143
-157.720	-22.097	0.217	-0.130
-156.706	280.047	-0.149	0.263
-155.691	342.971	-0.078	-0.152
-154.677	36.015	-0.138	-0.120
-153.662	-200.000	0.022	0.358
-152.647	-58.173	-0.076	-0.033
-151.633	244.404	0.231	-0.382
-150.618	508.957	-0.036	0.083
-149.604	-200.000	0.058	0.354
-148.589	-200.000	0.020	-0.194
-147.574	334.913	-0.097	0.185
-146.560	-98.523	-0.438	-0.111
-145.545	-62.224	-0.103	-0.042
-144.531	-200.000	0.014	0.157
-143.516	712.776	-0.035	0.091
-142.502	-141.172	0.382	0.038
-141.487	-72.317	0.167	0.061
-140.472	-92.740	0.089	-0.024
-139.458	42.450	-0.206	0.185
-138.443	-200.000	-0.021	-0.121
-137.429	-65.836	0.153	0.061
-136.414	800.000	0.051	-0.203
-135.399	3.724	-0.271	0.195
-134.385	-47.992	-0.326	-0.156
-133.370	-200.000	-0.026	-0.257
-132.356	664.081	0.114	0.290
-131.341	-200.000	-0.017	0.245
-130.326	800.000	-0.077	-0.252
-129.312	284.513	0.011	0.019
-128.297	123.224	0.186	0.230
-127.283	-200.000	-0.081	0.426
-126.268	-108.521	0.422	-0.090
-125.253	131.914	0.242	0.307
-124.239	800.000	-0.054	-0.213
-123.224	-115.455	0.217	-0.040
-122.210	-115.214	-0.510	-0.095
-121.195	-200.000	-0.002	-0.107
-120.180	605.833	-0.031	0.076
-119.166	-55.419	-0.178	0.079
-118.151	-200.000	0.040	0.226
-117.137	-125.310	0.229	0.034
-116.122	78.007	0.250	0.263
-115.107	-95.269	0.181	-0.048
-114.093	235.099	0.169	-0.275
-113.078	-27.712	-0.139	0.080
-112.064	11.431	0.182	-0.138
-111.049	339.690	0.108	0.208
-110.034	8.015	0.218	-0.161
-109.020	351.603	0.095	-0.186
-108.005	761.687	0.080	0.215
-106.991	-102.300	-0.297	0.070
-105.976	9.526	0.302	-0.225
-104.962	-62.871	-0.126	0.051
-103.947	-200.000	-0.040	-0.178
-102.932	-83.136	-0.069	0.022
-101.918	-78.573	-0.057	-0.019
-100.903	-45.108	-0.082	-0.040
-99.889	-79.657	0.176	0.058
-98.874	107.901	0.215	-0.253
-97.859	665.943	0.013	0.032
-96.845	29.361	-0.277	-0.232
-95.830	-46.820	-0.064	-0.031
-94.816	-200.000	0.145	-0.000
-93.801	-48.168	-0.106	-0.050
-92.786	88.511	-0.088	-0.096
-91.772	-200.000	-0.037	-0.199
-90.757	211.406	-0.208	-0.322
-89.743	327.846	0.059	0.111
-88.728	34.795	0.140	-0.121
-87.713	-130.452	-0.151	-0.020
-86.699	-12.646	-0.120	-0.077
-85.684	739.357	0.105	-0.277
-84.670	-82.304	0.149	-0.048
-83.655	-25.996	0.116	0.067
-82.640	-130.272	-0.258	-0.035
-81.626	-200.000	0.024	0.267
-80.611	51.209	0.094	0.087
-79.597	139.735	-0.089	-0.116
-78.582	-117.276	-0.136	-0.024
-77.567	51.268	-0.110	0.103
-76.553	-174.185	-0.248	-0.007
-75.538	800.000	0.103	-0.325
-74.524	-21.558	-0.041	-0.024
-73.509	22.362	0.117	0.094
-72.494	-102.877	0.157	-0.037
-71.480	-87.188	0.141	0.042
-70.465	-200.000	-0.005	0.324
-69.451	-200.000	-0.005	-0.192
-68.436	109.124	-0.143	0.168
-67.422	-112.815	0.021	0.004
-66.407	-200.000	0.033	0.369
-65.392	800.000	0.015	-0.056
-64.378	198.460	-0.217	-0.327
-63.363	776.229	-0.054	-0.145
-62.349	749.377	0.069	-0.183
-61.334	130.969	-0.829	-1.047
-60.319	709.943	0.350	0.912
-59.305	158.011	-0.525	-0.716
-58.290	227.948	0.482	0.772
-57.276	283.333	0.813	1.437
-56.261	-200.000	95.627	594.068
-55.246	630.448	1392.298	3466.264
-54.232	192.880	2584.611	3842.169
-53.217	120.216	2165.166	2643.836
-52.203	43.940	1616.902	1457.554
-51.188	35.013	1352.015	1164.707
-50.173	31.787	1310.134	1109.519
-49.159	54.405	1357.284	1286.096
-48.144	56.451	1373.446	1313.655
-47.130	35.320	1332.330	1149.409
-46.115	31.686	1315.576	1113.349
-45.100	31.524	1310.444	1108.002
-44.086	31.445	1308.016	1105.441
-43.071	31.388	1305.469	1102.911
-42.057	31.363	1303.450	1101.011
-41.042	31.396	1301.712	1099.692
-40.027	31.444	1300.486	1098.898
-39.013	31.390	1298.571	1096.917
-37.998	31.488	1296.173	1095.422
-36.984	31.514	1294.893	1094.451
-35.969	31.571	1293.045	1093.176
-34.954	31.619	1291.122	1091.789
-33.940	31.598	1289.763	1090.474
-32.925	31.529	1288.863	1089.266
-31.911	31.565	1287.066	1087.913
-30.896	31.648	1285.301	1086.862
-29.881	31.623	1284.297	1085.826
-28.867	31.674	1282.902	1084.899
-27.852	31.595	1281.432	1083.156
-26.838	31.609	1279.767	1081.783
-25.823	31.569	1278.317	1080.285
-24.809	31.569	1277.129	1079.241
-23.794	31.622	1275.814	1078.389
-22.779	31.616	1274.603	1077.290
-21.765	31.556	1273.476	1075.950
-20.750	31.631	1271.531	1074.692
-19.736	31.502	1270.557	1073.087
-18.721	31.472	1269.569	1072.037
-17.706	31.415	1268.402	1070.681
-16.692	31.555	1266.474	1069.812
-15.677	31.331	1266.296	1068.339
-14.663	31.385	1265.035	1067.544
-13.648	31.363	1263.853	1066.379
-12.633	31.454	1262.161	1065.426
-11.619	31.410	1261.934	1064.942
-10.604	31.455	1260.680	1064.099
-9.590	31.425	1259.910	1063.238
-8.575	31.408	1258.891	1062.237
-7.560	31.365	1258.529	1061.642
-6.546	31.308	1257.394	1060.320
-5.531	31.399	1256.315	1059.886
-4.517	31.419	1255.208	1059.022
-3.502	31.437	1254.440	1058.436
-2.487	31.426	1253.579	1057.606
-1.473	31.347	1250.016	1054.110
-0.458	30.324	1235.011	1035.709
0.556	28.584	1216.702	996.959
1.571	24.791	1221.076	979.725
2.586	23.726	1234.908	984.836
3.600	22.425	1223.387	968.408
4.615	17.104	1150.668	883.164
5.629	8.810	1075.965	785.253
6.644	4.942	1056.621	752.423
7.659	4.526	1053.496	748.128
8.673	4.477	1052.244	746.936
9.688	4.377	1051.129	745.599
10.702	4.719	1049.922	746.319
11.717	10.303	1057.805	778.777
12.731	18.623	1068.336	826.715
13.746	21.918	1072.181	845.524
14.761	21.820	1072.021	844.854
15.775	21.066	1070.035	839.584
16.790	20.184	1068.008	833.681
17.804	19.460	1066.820	829.203
18.819	19.204	1065.652	826.991
19.834	19.132	1065.202	826.225
20.848	18.994	1064.316	824.803
21.863	18.682	1063.606	822.682
22.877	18.656	1063.002	822.020
23.892	18.651	1061.996	821.144
24.907	18.629	1060.955	820.163
25.921	18.605	1060.403	819.545
26.936	18.570	1058.824	818.087
27.950	18.546	1057.515	816.888
28.965	18.694	1056.484	816.725
29.980	18.785	1054.969	815.914
30.994	18.999	1053.781	815.940
32.009	18.991	1052.756	815.033
33.023	18.922	1051.799	813.896
34.038	18.778	1050.756	812.335
35.053	18.721	1049.964	811.380
36.067	18.634	1049.283	810.371
37.082	18.792	1047.895	809.976
38.096	18.872	1047.644	810.086
39.111	18.938	1046.973	809.807
40.126	18.565	1045.947	807.187
41.140	18.270	1044.090	804.294
42.155	18.203	1042.688	802.830
43.169	18.205	1041.690	801.997
44.184	18.122	1040.708	800.782
45.199	18.275	1039.588	800.567
46.213	18.538	1038.420	800.825
47.228	18.621	1038.337	801.076
48.242	18.669	1037.217	800.368
49.257	18.683	1035.916	799.355
50.271	18.735	1035.308	799.057
51.286	18.743	1034.478	798.386
52.301	18.772	1033.259	797.507
53.315	18.667	1032.289	796.202
54.330	18.547	1031.263	794.786
55.344	18.432	1030.527	793.615
56.359	18.467	1029.932	793.249
57.374	18.363	1028.683	791.733
58.388	18.226	1027.874	790.408
59.403	18.223	1027.010	789.659
60.417	18.186	1026.802	789.261
61.432	18.145	1026.049	788.423
62.447	18.144	1024.792	787.382
63.461	18.092	1023.863	786.361
64.476	18.108	1022.957	785.670
65.490	18.110	1022.251	785.064
66.505	18.105	1021.795	784.624
67.520	18.106	1021.104	784.029
68.534	18.041	1020.728	783.370
69.549	18.098	1019.953	782.969
70.563	18.035	1018.582	781.557
71.578	17.942	1017.639	780.340
72.593	17.908	1016.782	779.459
73.607	17.812	1016.010	778.360
74.622	17.856	1015.628	778.200
75.636	17.895	1014.961	777.798
76.651	17.907	1014.316	777.288
77.666	18.034	1013.612	777.257
78.680	17.983	1013.273	776.697
79.695	17.992	1012.910	776.389
80.709	18.273	1011.813	776.760
81.724	18.377	1011.310	776.776
82.739	18.354	1010.858	776.256
83.753	18.742	1010.502	777.671
84.768	18.895	1009.998	777.907
85.782	19.057	1008.963	777.772
86.797	18.996	1008.113	776.775
87.812	18.733	1007.192	774.806
88.826	18.781	1005.902	773.963
89.841	18.773	1005.496	773.548
90.855	18.865	1004.652	773.244
91.870	18.898	1003.845	772.699
92.884	18.896	1002.977	771.955
93.899	18.929	1002.160	771.405
94.914	18.975	1001.402	770.960
95.928	18.955	1000.246	769.914
96.943	18.798	999.517	768.584
97.957	18.780	998.114	767.354
98.972	18.786	997.616	766.930
99.987	18.916	996.688	766.728
101.001	18.793	995.850	765.468
102.016	18.774	994.786	764.497
103.030	19.024	994.014	764.948
104.045	18.757	993.848	763.568
105.060	18.641	992.846	762.214
106.074	18.413	991.263	759.920
107.089	18.286	990.219	758.492
108.103	18.201	989.113	757.197
109.118	18.137	988.163	756.124
110.133	18.043	987.492	755.126
111.147	18.175	986.380	754.793
112.162	18.199	985.926	754.484
113.176	18.350	984.960	754.343
114.191	18.368	984.700	754.155
115.206	18.253	984.020	753.064
116.220	18.256	982.938	752.179
117.235	18.248	981.923	751.304
118.249	18.277	980.857	750.547
119.264	18.164	980.534	749.737
120.279	18.051	979.494	748.381
121.293	18.130	978.460	747.871
122.308	18.049	977.296	746.560
123.322	17.819	976.641	744.991
124.337	17.966	975.617	744.783
125.352	17.952	974.479	743.788
126.366	17.954	973.489	742.976
127.381	18.053	972.489	742.578
128.395	18.077	971.690	742.005
129.410	18.085	971.153	741.565
130.424	18.167	970.491	741.349
131.439	18.342	969.385	741.198
132.454	18.244	969.063	740.461
133.468	18.396	967.965	740.213
134.483	18.411	967.293	739.699
135.497	18.348	966.258	738.570
136.512	18.344	965.399	737.830
137.527	18.341	964.685	737.210
138.541	18.441	964.119	737.139
139.556	18.460	963.449	736.644
140.570	18.552	963.046	736.666
141.585	18.691	962.081	736.460
142.600	18.849	961.479	736.610
143.614	18.949	960.343	736.103
144.629	18.967	960.116	735.942
145.643	18.911	958.654	734.517
146.658	18.754	957.018	732.528
147.673	18.634	956.246	731.361
148.687	18.553	955.424	730.323
149.702	18.386	954.490	728.835
150.716	18.321	954.068	728.170
151.731	18.486	953.346	728.255
152.746	18.359	952.713	727.168
153.760	18.573	951.939	727.420
154.775	18.736	951.546	727.749
155.789	18.671	950.747	726.798
156.804	18.681	949.938	726.159
157.819	18.796	949.554	726.287
158.833	18.918	948.774	726.142
159.848	18.911	948.454	725.799
160.862	18.839	947.029	724.341
161.877	18.491	945.623	721.740
162.892	18.482	944.357	720.671
163.906	18.472	943.219	719.696
164.921	18.529	942.813	719.561
165.935	18.510	942.313	719.038
166.950	18.704	940.827	718.650
167.964	18.631	940.246	717.838
168.979	18.514	939.544	716.749
169.994	18.555	938.451	716.024
171.008	18.637	938.117	716.051
172.023	18.911	937.202	716.430
173.037	18.868	937.009	716.039
174.052	18.869	936.089	715.276
175.067	18.575	934.996	713.155
176.081	18.525	934.118	712.216
177.096	18.334	933.828	711.138
178.110	18.445	933.422	711.226
179.125	18.577	932.956	711.358
180.140	18.413	933.100	710.723
181.154	18.819	932.250	711.695
182.169	18.963	931.558	711.701
183.183	18.986	930.745	711.110
184.198	18.980	930.104	710.531
185.213	18.851	929.694	709.622
186.227	18.927	928.847	709.230
187.242	19.167	928.470	709.869
188.256	19.340	927.664	709.900
189.271	19.120	927.179	708.560
190.286	18.830	926.237	706.585
191.300	18.305	925.140	703.529
192.315	18.304	924.174	702.730
193.329	18.370	923.945	702.763
194.344	18.633	923.074	703.115
195.359	18.723	922.423	702.927
196.373	19.025	921.604	703.477
197.388	19.029	922.205	703.889
198.402	19.174	921.723	704.050
199.417	19.164	921.232	703.572
200.432	19.278	920.809	703.654
201.446	19.425	920.369	703.854
202.461	19.474	919.925	703.651
203.475	19.337	919.125	702.419
204.490	19.183	918.015	700.883
205.504	19.182	917.016	700.055
206.519	19.104	916.411	699.212
207.534	18.890	915.755	697.784
208.548	19.015	915.106	697.732
209.563	19.010	914.636	697.295
210.577	19.098	913.914	697.037
211.592	19.323	913.309	697.426
212.607	19.385	912.819	697.241
213.621	19.272	911.930	696.041
214.636	19.219	911.285	695.276
215.650	19.236	910.659	694.806
216.665	19.323	909.925	694.534
217.680	19.537	909.267	694.830
218.694	19.511	908.672	694.209
219.709	19.434	908.041	693.358
220.723	19.367	907.536	692.643
221.738	19.298	906.944	691.850
222.753	19.358	906.372	691.594
223.767	19.489	905.719	691.558
224.782	19.682	905.037	691.752
225.796	19.808	904.689	691.928
226.811	19.605	903.827	690.397
227.826	19.353	902.823	688.563
228.840	19.301	902.176	687.799
229.855	19.399	901.025	687.252
230.869	19.318	900.423	686.409
231.884	19.128	900.006	685.274
232.899	19.343	898.965	685.275
233.913	19.188	898.688	684.389
234.928	19.160	897.347	683.195
235.942	19.094	897.104	682.690
236.957	19.108	896.716	682.386
237.972	19.143	896.007	681.927
238.986	19.173	895.194	681.366
240.001	19.086	894.912	680.746
241.015	19.269	894.061	680.764
242.030	19.275	893.952	680.642
243.045	19.350	893.396	680.457
244.059	19.368	893.088	680.233
245.074	19.426	892.126	679.669
246.088	19.596	891.374	679.705
247.103	19.592	891.100	679.417
248.117	19.777	890.930	679.957
249.132	20.117	890.424	680.845
250.147	20.402	889.687	681.340
251.161	20.297	889.268	680.547
252.176	20.252	888.760	679.920
253.190	20.477	887.812	680.019
254.205	20.349	887.542	679.248
255.220	20.225	886.831	678.160
256.234	20.347	886.088	678.009
257.249	20.389	885.407	677.590
258.263	20.128	885.021	676.220
259.278	20.255	884.041	675.903
260.293	20.284	883.827	675.793
261.307	20.509	883.011	675.986
262.322	20.450	882.579	675.367
263.336	20.433	881.618	674.503
264.351	20.600	880.617	674.327
265.366	20.502	880.303	673.645
266.380	20.509	879.803	673.233
267.395	20.363	879.245	672.182
268.409	20.276	877.992	670.825
269.424	20.224	877.448	670.151
270.439	20.183	876.717	669.373
271.453	20.263	876.058	669.122
272.468	20.168	875.451	668.232
273.482	20.073	874.821	667.327
274.497	20.058	874.401	666.890
275.512	20.250	873.874	667.164
276.526	20.246	873.146	666.535
277.541	20.488	872.434	666.863
278.555	20.441	872.604	666.752
279.570	20.487	871.964	666.381
280.585	20.580	870.868	665.840
281.599	20.447	869.775	664.437
282.614	20.198	869.225	663.005
283.628	20.244	868.618	662.663
284.643	20.381	868.024	662.671
285.657	20.289	867.676	661.996
286.672	20.388	867.113	661.885
287.687	20.283	866.547	660.994
288.701	20.370	865.698	660.621
289.716	20.307	865.340	660.049
290.730	20.471	864.470	659.949
291.745	20.391	864.457	659.579
292.760	20.589	863.810	659.778
293.774	20.799	862.725	659.685
294.789	20.731	862.085	658.881
295.803	20.429	861.307	657.084
296.818	20.444	860.787	656.689
297.833	20.435	860.168	656.122
298.847	20.517	859.622	655.956
299.862	20.534	858.959	655.457
300.876	20.502	859.066	655.360
301.891	20.786	858.106	655.642
302.906	20.948	857.574	655.786
303.920	21.015	857.551	655.963
304.935	21.075	856.759	655.523
305.949	20.881	856.372	654.441
306.964	20.833	855.595	653.610
307.979	20.594	855.287	652.419
308.993	20.826	854.852	652.899
310.008	20.952	853.938	652.615
311.022	20.866	853.439	651.854
312.037	20.666	852.512	650.342
313.052	20.503	851.930	649.230
314.066	20.402	851.568	648.522
315.081	20.405	850.465	647.635
316.095	20.470	850.024	647.483
317.110	20.411	849.653	646.924
318.125	20.475	849.058	646.652
319.139	20.464	848.700	646.281
320.154	20.411	848.229	645.668
321.168	20.704	847.741	646.329
322.183	20.563	846.962	645.153
323.197	20.611	846.925	645.245
324.212	20.665	845.958	644.651
325.227	20.623	845.550	644.131
326.241	20.539	844.963	643.313
327.256	20.528	844.654	642.979
328.270	20.534	843.406	641.996
329.285	20.513	843.214	641.717
330.300	20.534	842.480	641.177
331.314	20.568	842.124	640.977
332.329	20.737	841.814	641.305
333.343	20.810	841.758	641.474
334.358	20.922	840.869	641.153
335.373	20.902	840.571	640.795
336.387	20.957	840.285	640.722
337.402	21.050	840.231	640.966
338.416	21.169	839.759	640.989
339.431	21.317	839.581	641.336
340.446	21.267	839.094	640.725
341.460	21.334	839.072	640.896
342.475	21.407	838.670	640.801
343.489	21.436	838.389	640.635
344.504	21.579	837.660	640.547
345.519	21.585	837.089	640.074
346.533	21.531	836.302	639.220
347.548	21.314	835.700	637.910
348.562	21.139	835.219	636.846
349.577	21.077	834.120	635.730
350.592	20.940	833.685	634.841
351.606	20.789	833.550	634.133
352.621	20.925	832.430	633.719
353.635	21.258	831.689	634.307
354.650	21.149	831.186	633.473
355.665	21.165	830.547	632.987
356.679	21.303	829.955	632.980
357.694	21.237	829.228	632.132
358.708	21.338	828.563	631.932
359.723	21.213	828.018	631.011
360.738	21.127	827.451	630.210
361.752	21.314	826.977	630.469
362.767	21.600	826.575	631.139
363.781	21.478	826.480	630.570
364.796	21.739	825.727	630.880
365.810	21.813	825.540	630.949
366.825	21.898	825.461	631.137
367.840	21.842	824.610	630.230
368.854	21.793	823.699	629.302
369.869	21.734	823.278	628.713
370.883	21.644	823.137	628.228
371.898	21.969	822.817	629.093
372.913	21.877	822.279	628.295
373.927	21.651	822.155	627.336
374.942	21.716	821.185	626.772
375.956	21.884	821.245	627.363
376.971	21.973	820.551	627.096
377.986	21.913	820.528	626.809
379.000	22.083	819.927	626.901
380.015	21.924	819.596	626.026
381.029	22.007	818.543	625.460
382.044	21.965	818.196	624.989
383.059	22.055	817.441	624.678
384.073	21.948	816.657	623.645
385.088	21.651	815.735	621.830
386.102	21.595	815.429	621.344
387.117	21.584	814.782	620.757
388.132	21.779	814.063	620.845
389.146	21.747	813.582	620.310
390.161	21.960	813.534	620.972
391.175	22.081	812.925	620.881
392.190	21.760	812.494	619.360
393.205	21.772	811.673	618.723
394.219	21.821	811.275	618.538
395.234	21.649	811.204	617.821
396.248	21.424	810.442	616.395
397.263	21.523	809.814	616.210
398.278	21.409	809.734	615.692
399.292	21.546	809.263	615.762
400.307	21.543	808.761	615.317
401.321	21.481	808.364	614.740
402.336	21.626	808.130	615.017
403.350	21.695	807.417	614.664
404.365	21.992	807.208	615.490
405.380	22.210	806.566	615.710
406.394	22.196	806.042	615.207
407.409	22.215	806.103	615.267
408.423	22.215	805.739	614.934
409.438	22.366	805.269	615.050
410.453	22.350	805.057	614.778
411.467	22.272	804.712	614.185
412.482	22.614	803.958	614.749
413.496	22.581	803.466	614.206
414.511	22.415	803.500	613.599
415.526	22.413	802.816	613.013
416.540	22.431	802.285	612.616
417.555	22.397	801.881	612.136
418.569	22.307	801.416	611.414
419.584	22.363	800.982	611.224
420.599	22.575	800.462	611.507
421.613	162.799	1369.628	1794.837
422.628	141.436	1452.577	1794.942
