DTS Sentinel unit serial number:	SN413079Multiplexer serial number:	ORYXHardware model number:	OX4-SRSoftware version number:	ORYX F/W v4.00 Oryx Data Collector v3.7.2.0data status	okinstallation	princeton_trtdifferential loss correction	single-endedforward channel	channel 1reverse channel	N/Adate	2019/09/19time	07:06:35forward acquisition time	60.00reverse acquisition time	0.00gamma	496.2192k internal	0.2342k external	0.2342temperature offset calibration	1.0020default loss term (dB/km)	0.3790temperature slope calibration	1.0000multiplexer offset coefficient	1.0000multiplexer slope coefficient	1.0000fibre end	0.00T internal ref (°C)	19.00T ext. ref 1 (°C)	0.57T ext. ref 2 (°C)	13.18length (m)	temperature (°C)	Stokes	anti-Stokes-747.200	62.246	-0.242	0.242
-746.185	443.643	-0.130	0.287
-745.171	-44.341	-0.095	-0.048
-744.156	118.736	0.230	0.284
-743.142	800.000	-0.105	-0.309
-742.127	13.273	0.023	0.018
-741.112	-200.000	0.086	0.463
-740.098	-65.294	-0.205	-0.082
-739.083	130.188	-0.174	0.223
-738.069	-47.990	0.198	0.096
-737.054	156.027	-0.156	-0.215
-736.039	-98.445	-0.286	0.073
-735.025	-77.216	0.244	0.085
-734.010	19.337	-0.235	-0.189
-732.996	-150.041	-0.394	-0.031
-731.981	-187.738	0.301	-0.004
-730.966	-63.072	-0.226	-0.093
-729.952	-104.317	0.197	-0.046
-728.937	-200.000	-0.105	0.001
-727.923	42.766	-0.259	0.236
-726.908	483.397	-0.041	0.092
-725.894	227.766	-0.094	-0.154
-724.879	-143.456	-0.254	-0.024
-723.864	123.448	-0.221	-0.278
-722.850	196.583	-0.139	-0.212
-721.835	143.461	0.209	-0.279
-720.821	-200.000	0.281	0.000
-719.806	156.401	0.231	-0.318
-718.791	-49.046	0.105	-0.050
-717.777	59.196	0.161	0.159
-716.762	98.095	-0.251	-0.289
-715.748	-111.110	0.150	-0.031
-714.733	-14.475	-0.214	-0.138
-713.718	105.501	-0.166	-0.196
-712.704	285.937	-0.163	-0.295
-711.689	7.676	0.073	-0.054
-710.675	375.078	-0.068	-0.139
-709.660	-76.147	0.094	0.033
-708.645	-94.917	-0.187	-0.051
-707.631	-26.146	-0.240	-0.141
-706.616	70.498	0.219	0.227
-705.602	-104.117	0.334	0.078
-704.587	80.154	0.144	0.155
-703.572	-200.000	-0.012	0.170
-702.558	132.461	-0.150	-0.194
-701.543	-100.171	-0.169	-0.042
-700.529	259.062	0.028	-0.049
-699.514	-108.638	-0.422	0.091
-698.499	800.000	-0.048	0.140
-697.485	-156.879	-0.206	0.013
-696.470	0.501	0.187	0.134
-695.456	800.000	-0.102	0.367
-694.441	72.677	-0.250	-0.261
-693.426	-103.327	0.196	0.046
-692.412	800.000	0.083	0.233
-691.397	80.401	0.294	0.316
-690.383	-42.586	0.122	0.062
-689.368	176.265	0.216	-0.313
-688.354	-14.609	0.189	0.122
-687.339	800.000	-0.058	0.197
-686.324	-188.337	0.278	-0.004
-685.310	-149.294	-0.191	-0.015
-684.295	-200.000	0.004	-0.272
-683.281	105.928	-0.197	0.233
-682.266	247.680	0.195	-0.329
-681.251	55.456	-0.210	-0.203
-680.237	-75.688	0.213	-0.075
-679.222	111.007	-0.104	-0.125
-678.208	252.573	0.112	-0.191
-677.193	78.001	0.134	-0.143
-676.178	-105.916	0.132	-0.030
-675.164	800.000	-0.021	-0.073
-674.149	-200.000	0.006	-0.073
-673.135	-24.893	0.200	0.118
-672.120	-48.052	0.207	0.100
-671.105	81.305	0.043	0.046
-670.091	81.876	-0.178	-0.192
-669.076	800.000	-0.080	0.257
-668.062	-200.000	0.005	-0.254
-667.047	-200.000	0.120	0.550
-666.032	-56.037	0.241	-0.107
-665.018	-56.105	0.097	0.043
-664.003	-141.449	-0.211	-0.021
-662.989	-19.216	0.224	0.139
-661.974	47.428	-0.206	0.192
-660.959	77.577	-0.081	-0.086
-659.945	-103.891	0.224	0.052
-658.930	-130.909	0.259	0.035
-657.916	-191.183	0.323	0.003
-656.901	-87.420	-0.186	-0.056
-655.886	-62.917	-0.216	-0.089
-654.872	-200.000	-0.011	-0.066
-653.857	-28.739	-0.187	-0.108
-652.843	-200.000	-0.049	-0.249
-651.828	-200.000	-0.252	-0.000
-650.814	137.893	0.216	-0.282
-649.799	-200.000	0.003	0.093
-648.784	-97.725	-0.178	0.046
-647.770	4.498	-0.106	0.078
-646.755	154.913	-0.336	0.461
-645.741	131.867	0.137	0.176
-644.726	-67.041	0.088	-0.035
-643.711	-37.974	-0.102	-0.054
-642.697	-96.427	0.435	-0.115
-641.682	-166.115	0.208	0.009
-640.668	305.861	0.217	0.403
-639.653	-200.000	0.057	-0.287
-638.638	-138.975	-0.231	0.025
-637.624	493.760	0.131	-0.299
-636.609	-200.000	-0.053	-0.364
-635.595	70.661	-0.360	-0.372
-634.580	-158.506	0.395	0.023
-633.565	151.102	-0.144	-0.195
-632.551	539.322	-0.162	-0.384
-631.536	800.000	-0.069	-0.280
-630.522	-145.157	0.214	-0.019
-629.507	176.282	0.168	0.244
-628.492	-115.730	0.177	0.033
-627.478	32.168	0.070	-0.060
-626.463	197.664	-0.178	-0.271
-625.449	241.703	-0.019	-0.031
-624.434	-164.262	-0.095	0.004
-623.419	-200.000	-0.002	0.053
-622.405	800.000	-0.124	0.378
-621.390	800.000	0.031	-0.103
-620.376	76.514	-0.208	-0.220
-619.361	-20.627	-0.106	-0.065
-618.346	113.814	0.061	-0.074
-617.332	112.448	-0.287	-0.346
-616.317	-97.758	-0.124	-0.032
-615.303	125.241	-0.160	0.202
-614.288	-21.104	0.159	0.097
-613.273	217.953	0.153	-0.243
-612.259	430.703	0.203	0.438
-611.244	-182.612	0.248	0.005
-610.230	287.879	0.132	0.237
-609.215	800.000	-0.022	-0.063
-608.201	-8.480	-0.039	-0.026
-607.186	360.835	0.045	-0.090
-606.171	235.707	0.135	0.223
-605.157	-86.856	-0.105	0.032
-604.142	-9.043	-0.169	-0.113
-603.128	-47.209	-0.210	0.102
-602.113	-76.928	0.052	0.018
-601.098	-66.505	-0.110	0.044
-600.084	800.000	-0.110	0.438
-599.069	-73.754	0.362	-0.131
-598.055	-28.907	0.270	-0.155
-597.040	1.502	-0.212	-0.152
-596.025	591.606	0.051	0.124
-595.011	5.104	0.159	0.117
-593.996	465.257	-0.175	0.390
-592.982	105.298	0.164	-0.192
-591.967	-200.000	0.025	0.175
-590.952	59.728	0.217	0.213
-589.938	138.566	-0.053	0.070
-588.923	-79.864	-0.204	-0.068
-587.909	553.117	-0.112	0.267
-586.894	-200.000	0.044	-0.293
-585.879	-84.044	0.077	-0.024
-584.865	154.105	0.059	-0.080
-583.850	81.790	-0.142	-0.153
-582.836	800.000	0.071	0.270
-581.821	745.442	0.075	-0.200
-580.806	-200.000	0.000	0.093
-579.792	115.485	-0.090	-0.110
-578.777	132.513	0.061	-0.078
-577.763	568.288	-0.097	-0.234
-576.748	182.715	-0.221	0.325
-575.733	201.885	-0.076	0.116
-574.719	-200.000	-0.059	-0.347
-573.704	-136.208	-0.264	-0.031
-572.690	56.876	-0.133	0.129
-571.675	-154.930	0.103	-0.007
-570.661	307.442	0.115	0.213
-569.646	-51.464	0.158	0.073
-568.631	422.072	-0.036	0.076
-567.617	-86.786	0.145	0.044
-566.602	136.596	0.110	0.142
-565.588	-80.530	-0.223	0.074
-564.573	-200.000	0.027	-0.390
-563.558	-153.292	-0.286	-0.020
-562.544	-86.779	-0.287	0.087
-561.529	134.434	-0.088	0.113
-560.515	-94.861	0.438	0.118
-559.500	-3.525	-0.155	-0.107
-558.485	-111.198	-0.095	-0.019
-557.471	62.388	-0.166	0.164
-556.456	-200.000	-0.007	-0.141
-555.442	-117.438	-0.128	0.023
-554.427	-200.000	0.004	0.151
-553.412	-31.353	0.240	-0.134
-552.398	-11.121	-0.222	0.146
-551.383	374.983	-0.242	0.490
-550.369	-119.915	0.202	0.034
-549.354	-57.787	0.134	-0.058
-548.339	-88.068	-0.144	-0.043
-547.325	234.640	0.183	-0.300
-546.310	32.533	0.231	-0.198
-545.296	-94.021	-0.183	-0.050
-544.281	29.394	-0.197	0.167
-543.266	-45.069	-0.377	0.186
-542.252	-36.427	-0.204	0.109
-541.237	-76.934	-0.149	-0.052
-540.223	106.324	-0.266	0.313
-539.208	-165.573	-0.222	-0.010
-538.193	-177.160	-0.046	-0.001
-537.179	-50.635	0.146	0.068
-536.164	-200.000	-0.008	-0.222
-535.150	-19.349	0.147	0.091
-534.135	25.502	0.280	-0.231
-533.121	1.347	-0.231	-0.165
-532.106	-7.731	-0.169	0.114
-531.091	-173.854	0.360	0.011
-530.077	33.422	0.155	0.134
-529.062	-36.997	0.137	-0.073
-528.048	10.153	0.174	-0.131
-527.033	-10.297	-0.294	0.193
-526.018	70.342	0.043	-0.044
-525.004	-177.423	0.264	0.006
-523.989	59.343	0.202	0.197
-522.975	48.799	-0.118	-0.110
-521.960	101.422	-0.248	-0.287
-520.945	-41.839	-0.202	-0.103
-519.931	-84.358	0.125	0.039
-518.916	-200.000	-0.027	0.132
-517.902	-151.233	0.306	0.023
-516.887	800.000	-0.067	-0.265
-515.872	-97.175	0.305	0.079
-514.858	712.208	0.029	-0.076
-513.843	-30.285	-0.038	-0.021
-512.829	-16.339	-0.182	-0.115
-511.814	-60.730	0.147	-0.062
-510.799	-158.623	0.145	-0.008
-509.785	-200.000	0.020	-0.098
-508.770	-81.250	-0.123	0.040
-507.756	36.734	0.185	-0.162
-506.741	237.940	-0.258	-0.424
-505.726	9.590	0.119	0.089
-504.712	50.862	0.309	-0.291
-503.697	-200.000	0.049	-0.366
-502.683	800.000	0.086	-0.314
-501.668	47.902	0.141	0.131
-500.653	-49.961	0.322	0.152
-499.639	38.625	-0.172	0.153
-498.624	800.000	0.058	0.205
-497.610	246.446	-0.125	-0.209
-496.595	237.337	0.038	0.062
-495.581	-43.231	0.045	-0.023
-494.566	800.000	0.038	0.163
-493.551	622.822	0.022	-0.054
-492.537	-46.403	0.290	-0.141
-491.522	-70.678	0.111	0.042
-490.508	66.570	0.018	-0.018
-489.493	2.037	0.096	-0.069
-488.478	-94.211	0.227	0.061
-487.464	66.039	0.281	0.283
-486.449	208.436	0.087	-0.135
-485.435	-3.894	-0.233	0.160
-484.420	-3.368	-0.093	0.064
-483.405	10.574	-0.285	-0.215
-482.391	636.517	-0.042	0.107
-481.376	230.144	-0.026	0.042
-480.362	446.779	0.177	-0.385
-479.347	-194.014	0.043	0.000
-478.332	131.563	-0.091	-0.116
-477.318	800.000	-0.029	0.097
-476.303	181.912	0.109	-0.159
-475.289	-119.113	-0.271	0.047
-474.274	799.250	0.174	-0.475
-473.259	-101.892	-0.420	0.101
-472.245	-49.289	0.283	-0.134
-471.230	800.000	-0.039	0.164
-470.216	-149.420	-0.182	0.014
-469.201	-125.752	-0.318	-0.048
-468.186	-15.867	-0.084	0.053
-467.172	-98.714	0.129	-0.033
-466.157	-119.409	-0.157	-0.027
-465.143	-200.000	-0.001	0.038
-464.128	1.566	-0.154	0.110
-463.113	-176.947	-0.253	-0.006
-462.099	-200.000	-0.033	0.211
-461.084	176.303	-0.025	-0.036
-460.070	20.216	0.274	-0.219
-459.055	254.079	-0.059	-0.100
-458.040	-69.092	0.091	-0.035
-457.026	758.135	0.081	0.217
-456.011	-200.000	-0.005	-0.146
-454.997	-129.834	-0.531	0.072
-453.982	54.418	-0.167	0.160
-452.968	-200.000	-0.273	-0.000
-451.953	-125.332	0.148	-0.022
-450.938	-200.000	-0.003	-0.118
-449.924	-112.398	-0.039	0.008
-448.909	800.000	0.033	-0.134
-447.895	-82.623	0.120	0.039
-446.880	-5.238	0.171	0.117
-445.865	-31.220	0.286	0.160
-444.851	161.357	-0.099	-0.137
-443.836	7.425	0.082	0.061
-442.822	-129.878	0.349	-0.047
-441.807	-200.000	0.041	0.299
-440.792	-6.665	-0.275	0.185
-439.778	-106.029	-0.314	-0.070
-438.763	-29.424	0.097	0.055
-437.749	322.761	0.042	-0.080
-436.734	-23.089	-0.104	-0.062
-435.719	-174.474	-0.441	0.013
-434.705	3.248	0.476	0.343
-433.690	-80.856	0.224	0.074
-432.676	17.735	-0.216	0.170
-431.661	13.450	0.046	-0.035
-430.646	-10.365	-0.213	0.140
-429.632	-200.000	0.065	-0.299
-428.617	800.000	-0.039	-0.169
-427.603	164.421	0.135	0.189
-426.588	-200.000	-0.009	-0.161
-425.573	-200.000	-0.003	-0.108
-424.559	-200.000	0.027	0.176
-423.544	131.308	-0.080	0.102
-422.530	8.923	0.063	-0.047
-421.515	14.644	-0.181	-0.140
-420.500	-200.000	0.007	-0.123
-419.486	513.485	0.039	-0.090
-418.471	175.481	0.316	-0.453
-417.457	133.604	-0.241	0.308
-416.442	-42.562	0.086	-0.043
-415.428	-115.824	0.201	-0.037
-414.413	675.972	-0.080	0.205
-413.398	-188.220	0.193	0.002
-412.384	-71.474	-0.522	0.193
-411.369	-25.389	0.279	-0.163
-410.355	-101.623	-0.076	0.018
-409.340	800.000	-0.081	-0.246
-408.325	-200.000	0.006	-0.393
-407.311	484.539	0.127	-0.286
-406.296	-200.000	-0.013	0.075
-405.282	116.900	-0.108	-0.131
-404.267	203.945	-0.098	-0.150
-403.252	430.906	0.179	0.383
-402.238	482.492	-0.046	0.104
-401.223	1.971	-0.114	-0.081
-400.209	203.278	-0.215	-0.328
-399.194	-182.577	0.348	0.006
-398.179	4.672	-0.280	-0.203
-397.165	-200.000	-0.041	0.199
-396.150	-69.370	0.168	-0.064
-395.136	-17.727	0.030	0.019
-394.121	5.125	0.067	-0.049
-393.106	-119.990	-0.315	0.053
-392.092	346.359	0.067	0.129
-391.077	40.470	-0.163	0.145
-390.063	192.729	0.075	0.111
-389.048	800.000	0.023	0.091
-388.033	-82.378	-0.162	-0.052
-387.019	238.903	0.195	0.321
-386.004	-123.328	0.042	-0.007
-384.990	-200.000	0.058	-0.332
-383.975	346.288	0.145	0.282
-382.960	-107.258	0.217	-0.047
-381.946	-138.863	-0.193	-0.021
-380.931	41.767	-0.174	0.156
-379.917	800.000	0.106	0.288
-378.902	-105.600	0.132	0.030
-377.888	116.958	0.131	0.159
-376.873	-98.135	0.085	-0.021
-375.858	121.943	0.019	0.024
-374.844	454.149	0.131	-0.286
-373.829	77.054	-0.176	-0.184
-372.815	-38.405	0.191	-0.100
-371.800	560.099	0.149	-0.354
-370.785	-200.000	0.019	-0.120
-369.771	26.616	0.141	-0.117
-368.756	167.535	0.154	0.216
-367.742	-134.163	0.153	0.019
-366.727	800.000	0.023	0.087
-365.712	800.000	0.105	0.353
-364.698	482.745	0.072	-0.162
-363.683	3.891	-0.098	-0.071
-362.669	56.416	-0.153	0.147
-361.654	-200.000	-0.011	0.363
-360.639	23.357	0.296	0.240
-359.625	4.039	0.239	0.172
-358.610	-7.544	-0.085	-0.056
-357.596	115.548	-0.096	-0.115
-356.581	321.088	-0.221	0.414
-355.566	800.000	0.026	0.092
-354.552	330.204	0.043	0.081
-353.537	50.075	0.085	0.079
-352.523	-187.114	-0.095	-0.001
-351.508	800.000	0.048	-0.170
-350.493	800.000	0.160	-0.556
-349.479	493.605	0.102	0.230
-348.464	181.514	-0.285	-0.413
-347.450	-74.338	0.336	-0.120
-346.435	-200.000	-0.008	0.446
-345.420	-200.000	0.013	-0.060
-344.406	-111.505	0.054	0.011
-343.391	-200.000	0.028	0.155
-342.377	51.306	-0.029	-0.028
-341.362	733.198	-0.040	0.106
-340.348	428.649	-0.027	-0.058
-339.333	-179.891	0.284	0.006
-338.318	-29.678	0.331	-0.186
-337.304	-200.000	-0.044	-0.245
-336.289	-104.643	0.124	0.028
-335.275	-200.000	0.056	0.458
-334.260	181.364	-0.206	0.299
-333.245	455.023	0.044	-0.096
-332.231	196.438	0.096	-0.144
-331.216	-21.949	-0.375	0.225
-330.202	-48.252	-0.323	-0.153
-329.187	633.022	0.135	0.337
-328.172	-200.000	0.052	0.329
-327.158	136.907	-0.234	0.301
-326.143	-200.000	0.049	-0.263
-325.129	3.671	-0.211	-0.152
-324.114	-118.561	0.272	-0.047
-323.099	800.000	-0.040	-0.134
-322.085	800.000	-0.014	0.049
-321.070	-200.000	0.009	0.175
-320.056	37.675	-0.183	0.160
-319.041	-117.238	0.044	-0.008
-318.026	85.536	-0.075	-0.081
-317.012	-106.046	0.154	0.034
-315.997	-122.722	-0.293	0.047
-314.983	-200.000	-0.019	0.118
-313.968	-200.000	0.000	-0.374
-312.953	72.688	0.142	0.145
-311.939	800.000	-0.054	0.192
-310.924	251.949	0.125	0.209
-309.910	-1.797	-0.102	-0.071
-308.895	-40.245	-0.294	-0.151
-307.880	-54.645	0.085	-0.038
-306.866	-78.323	-0.154	0.052
-305.851	-147.506	-0.067	0.006
-304.837	-82.788	-0.305	0.097
-303.822	-197.173	0.181	-0.001
-302.807	369.104	-0.030	0.060
-301.793	-88.226	-0.258	0.076
-300.778	-31.988	0.136	-0.075
-299.764	381.466	-0.163	-0.329
-298.749	44.822	0.289	-0.261
-297.735	-66.424	-0.507	-0.198
-296.720	-200.000	0.037	-0.473
-295.705	292.512	0.056	0.101
-294.691	-200.000	-0.058	-0.336
-293.676	-200.000	-0.031	0.334
-292.662	286.842	-0.160	0.284
-291.647	250.325	0.162	0.270
-290.632	51.114	-0.130	-0.121
-289.618	-84.556	0.402	-0.125
-288.603	-200.000	-0.005	-0.024
-287.589	-157.539	-0.305	0.018
-286.574	-51.709	-0.105	-0.048
-285.559	4.069	-0.220	-0.158
-284.545	81.969	0.281	-0.300
-283.530	50.493	0.126	0.117
-282.516	1.649	0.190	0.135
-281.501	27.504	-0.315	-0.261
-280.486	-78.186	0.123	-0.041
-279.472	800.000	0.025	-0.085
-278.457	-200.000	-0.034	-0.209
-277.443	-200.000	-0.027	0.218
-276.428	125.840	0.268	0.333
-275.413	161.144	-0.204	0.281
-274.399	-149.071	-0.234	-0.018
-273.384	301.117	-0.077	0.139
-272.370	97.434	-0.092	0.104
-271.355	-200.000	-0.021	-0.142
-270.340	-91.496	0.164	0.046
-269.326	-119.387	-0.303	0.052
-268.311	177.063	0.294	0.420
-267.297	-200.000	-0.008	-0.377
-266.282	52.905	-0.215	-0.202
-265.267	-36.854	-0.176	-0.093
-264.253	159.720	-0.136	0.186
-263.238	120.607	-0.069	0.084
-262.224	-79.383	0.333	0.111
-261.209	61.044	-0.146	0.142
-260.195	58.667	0.229	0.221
-259.180	744.328	-0.048	-0.126
-258.165	263.952	-0.131	-0.224
-257.151	111.553	-0.048	-0.057
-256.136	-74.180	0.156	-0.055
-255.122	-163.645	0.196	0.009
-254.107	-92.672	0.246	0.068
-253.092	105.214	-0.088	0.102
-252.078	524.452	0.182	-0.421
-251.063	800.000	0.050	-0.188
-250.049	265.132	-0.180	0.309
-249.034	800.000	0.047	0.201
-248.019	800.000	0.066	0.282
-247.005	733.802	0.043	0.112
-245.990	-53.942	-0.185	-0.083
-244.976	588.020	0.126	-0.305
-243.961	-200.000	-0.008	0.111
-242.946	-200.000	-0.094	-0.579
-241.932	800.000	0.126	0.353
-240.917	-137.478	0.117	-0.013
-239.903	-200.000	-0.002	0.076
-238.888	-6.800	0.078	0.052
-237.873	-134.845	0.108	-0.013
-236.859	-200.000	0.010	0.127
-235.844	85.018	0.117	0.126
-234.830	-200.000	-0.006	0.038
-233.815	800.000	0.042	-0.166
-232.800	29.382	0.266	-0.222
-231.786	-134.900	0.149	-0.018
-230.771	-61.470	0.395	0.163
-229.757	-1.807	-0.283	0.195
-228.742	-103.279	-0.154	0.036
-227.727	-125.996	-0.137	0.020
-226.713	23.420	0.126	-0.102
-225.698	129.626	-0.012	-0.015
-224.684	-27.815	-0.205	0.117
-223.669	-19.763	0.146	0.088
-222.655	-132.217	-0.297	0.038
-221.640	-155.067	0.117	-0.008
-220.625	55.787	0.061	-0.058
-219.611	-133.023	-0.361	0.045
-218.596	343.610	-0.104	-0.200
-217.582	145.732	-0.185	-0.244
-216.567	-52.234	0.191	-0.087
-215.552	-75.621	0.288	-0.100
-214.538	-200.000	-0.014	0.168
-213.523	54.091	-0.031	0.029
-212.509	57.332	-0.116	0.111
-211.494	77.568	0.214	-0.223
-210.479	-200.000	-0.011	0.206
-209.465	78.643	-0.215	-0.226
-208.450	118.143	-0.035	0.042
-207.436	-3.952	-0.478	-0.325
-206.421	-200.000	0.008	0.133
-205.406	-200.000	0.007	-0.238
-204.392	-200.000	-0.041	-0.223
-203.377	-111.591	-0.076	0.015
-202.363	-200.000	-0.001	-0.098
-201.348	57.513	-0.143	-0.137
-200.333	800.000	-0.110	0.340
-199.319	800.000	0.100	-0.338
-198.304	-96.292	0.209	0.054
-197.290	-158.343	-0.127	-0.007
-196.275	241.996	0.055	0.090
-195.260	119.406	-0.132	0.161
-194.246	-200.000	-0.003	-0.050
-193.231	90.178	-0.185	-0.203
-192.217	324.141	-0.143	-0.268
-191.202	800.000	-0.082	0.340
-190.187	-118.462	0.291	0.051
-189.173	-55.871	-0.256	0.112
-188.158	-14.225	0.070	0.044
-187.144	46.715	-0.179	0.163
-186.129	194.397	0.246	-0.365
-185.114	-136.565	0.113	0.013
-184.100	213.227	0.058	-0.090
-183.085	-95.160	-0.293	-0.077
-182.071	526.170	-0.072	0.166
-181.056	174.085	0.033	0.046
-180.042	-200.000	-0.011	0.174
-179.027	12.763	0.304	-0.230
-178.012	122.850	-0.337	-0.413
-176.998	-96.509	0.317	-0.082
-175.983	-200.000	-0.002	0.370
-174.969	-200.000	0.005	0.070
-173.954	74.229	0.061	0.062
-172.939	-165.192	-0.126	-0.005
-171.925	15.620	0.235	0.181
-170.910	-103.092	0.358	0.083
-169.896	218.529	-0.041	-0.064
-168.881	-114.824	0.186	-0.035
-167.866	-169.526	-0.140	-0.005
-166.852	25.770	-0.228	0.186
-165.837	-93.618	0.168	0.045
-164.823	-200.000	-0.016	-0.069
-163.808	800.000	0.063	-0.203
-162.793	38.977	-0.049	-0.043
-161.779	-200.000	0.038	0.408
-160.764	-200.000	-0.035	0.248
-159.750	800.000	-0.033	-0.119
-158.735	-150.795	0.371	-0.028
-157.720	238.458	0.061	0.099
-156.706	612.548	-0.070	0.173
-155.691	-16.699	-0.357	-0.221
-154.677	184.461	0.058	0.084
-153.662	-200.000	0.053	0.340
-152.647	122.287	0.212	-0.259
-151.633	-150.144	0.337	0.026
-150.618	122.359	-0.074	-0.091
-149.604	53.384	0.060	-0.056
-148.589	-97.728	0.206	0.052
-147.574	66.848	-0.182	-0.181
-146.560	16.375	-0.072	0.056
-145.545	68.600	0.374	-0.375
-144.531	-181.031	-0.260	0.005
-143.516	-200.000	0.047	0.284
-142.502	-178.779	0.157	-0.004
-141.487	-104.034	-0.218	-0.050
-140.472	56.605	-0.196	0.186
-139.458	-81.993	0.060	0.019
-138.443	473.466	0.018	0.041
-137.429	49.769	-0.194	0.178
-136.414	-24.868	-0.292	0.170
-135.399	-200.000	0.066	0.330
-134.385	-51.940	-0.549	0.250
-133.370	-200.000	0.012	-0.188
-132.356	-89.041	-0.219	-0.063
-131.341	800.000	0.051	-0.180
-130.326	800.000	-0.106	-0.308
-129.312	258.469	0.229	0.385
-128.297	124.784	0.183	0.226
-127.283	-90.598	-0.163	0.046
-126.268	-200.000	0.010	0.133
-125.253	87.570	-0.079	0.086
-124.239	-200.000	-0.020	0.265
-123.224	517.162	0.067	0.154
-122.210	-142.165	0.079	0.008
-121.195	-42.170	-0.433	0.217
-120.180	713.704	0.154	0.400
-119.166	231.154	-0.199	0.319
-118.151	-39.333	-0.475	-0.243
-117.137	-156.659	-0.207	0.013
-116.122	-22.337	-0.155	0.092
-115.107	-5.162	-0.273	-0.184
-114.093	800.000	0.035	0.113
-113.078	421.070	-0.142	0.297
-112.064	-82.337	0.220	-0.070
-111.049	-140.265	0.070	0.007
-110.034	-115.793	-0.093	-0.017
-109.020	-2.378	0.203	-0.139
-108.005	303.744	-0.042	0.076
-106.991	-62.939	0.268	0.108
-105.976	-111.158	-0.084	-0.017
-104.962	-78.901	-0.249	0.083
-103.947	194.644	-0.078	0.116
-102.932	-69.254	-0.227	0.085
-101.918	-97.969	0.186	0.047
-100.903	-91.722	0.044	-0.012
-99.889	-14.733	0.176	-0.110
-98.874	-200.000	0.011	-0.278
-97.859	-200.000	0.003	0.344
-96.845	-200.000	0.263	-0.001
-95.830	-53.575	-0.220	-0.098
-94.816	361.364	0.142	0.278
-93.801	-200.000	-0.022	-0.168
-92.786	-14.380	0.128	0.080
-91.772	26.369	0.336	0.274
-90.757	198.364	-0.064	-0.095
-89.743	458.751	-0.099	0.215
-88.728	27.745	0.174	-0.143
-87.713	359.230	0.102	-0.199
-86.699	-200.000	0.041	0.456
-85.684	97.273	-0.135	-0.151
-84.670	105.424	0.077	0.089
-83.655	-107.884	0.115	0.024
-82.640	80.485	0.046	0.048
-81.626	-95.716	0.267	0.070
-80.611	-59.308	0.479	-0.201
-79.597	-200.000	-0.028	-0.144
-78.582	181.185	0.044	-0.063
-77.567	800.000	0.044	0.153
-76.553	-200.000	0.025	0.110
-75.538	263.530	-0.110	0.187
-74.524	-168.703	0.150	0.006
-73.509	18.018	-0.084	0.065
-72.494	415.685	0.114	-0.237
-71.480	-133.320	-0.243	0.030
-70.465	-41.671	-0.238	0.119
-69.451	458.746	0.138	-0.299
-68.436	-13.734	0.363	0.229
-67.422	89.001	-0.340	-0.369
-66.407	76.339	0.161	-0.166
-65.392	-121.516	0.459	-0.074
-64.378	-45.879	-0.084	-0.040
-63.363	-93.078	-0.280	0.076
-62.349	31.556	-0.302	0.253
-61.334	68.684	-1.098	-1.098
-60.319	142.131	0.650	0.840
-59.305	206.316	-0.723	-1.098
-58.290	252.137	0.980	1.628
-57.276	-200.000	0.078	1.480
-56.261	-200.000	135.645	627.739
-55.246	345.493	1634.131	3129.982
-54.232	137.363	2772.504	3535.866
-53.217	81.217	2156.197	2270.489
-52.203	29.557	1590.518	1318.763
-51.188	22.079	1342.367	1067.699
-50.173	20.104	1308.481	1028.989
-49.159	47.040	1382.396	1253.379
-48.144	42.109	1391.926	1231.741
-47.130	22.087	1340.203	1065.858
-46.115	19.199	1321.136	1033.354
-45.100	19.033	1316.211	1028.468
-44.086	19.060	1313.533	1026.496
-43.071	18.928	1311.267	1023.895
-42.057	18.815	1309.746	1021.994
-41.042	18.884	1308.180	1021.145
-40.027	18.865	1306.354	1019.563
-39.013	18.992	1304.033	1018.466
-37.998	19.035	1302.272	1017.301
-36.984	19.028	1300.787	1016.062
-35.969	19.004	1298.784	1014.315
-34.954	19.031	1297.070	1013.094
-33.940	18.945	1296.355	1011.988
-32.925	18.980	1294.968	1011.071
-31.911	19.071	1293.313	1010.277
-30.896	19.145	1291.412	1009.186
-29.881	19.123	1290.331	1008.171
-28.867	19.094	1288.993	1006.916
-27.852	19.127	1287.328	1005.766
-26.838	19.027	1286.624	1004.595
-25.823	19.072	1284.949	1003.508
-24.809	19.083	1283.659	1002.527
-23.794	19.104	1281.907	1001.238
-22.779	19.151	1280.532	1000.401
-21.765	19.110	1279.715	999.483
-20.750	19.005	1278.123	997.591
-19.736	19.065	1276.789	996.856
-18.721	18.996	1275.629	995.513
-17.706	18.972	1274.710	994.617
-16.692	18.987	1273.866	994.004
-15.677	18.955	1272.548	992.752
-14.663	18.881	1271.541	991.500
-13.648	18.868	1270.262	990.392
-12.633	18.982	1269.323	990.273
-11.619	18.928	1268.626	989.381
-10.604	19.025	1267.376	988.926
-9.590	18.864	1266.782	987.499
-8.575	18.891	1265.941	986.958
-7.560	18.909	1264.806	986.137
-6.546	18.912	1264.113	985.575
-5.531	18.856	1263.683	984.880
-4.517	18.927	1262.726	984.501
-3.502	18.990	1261.943	984.213
-2.487	19.064	1260.498	983.466
-1.473	18.864	1256.390	979.087
-0.458	17.361	1241.044	958.622
0.556	13.189	1226.012	923.309
1.571	9.647	1234.285	909.497
2.586	9.090	1249.892	917.731
3.600	9.491	1237.013	910.463
4.615	7.196	1165.988	845.867
5.629	2.686	1097.854	773.655
6.644	0.713	1081.834	752.481
7.659	0.521	1080.497	750.528
8.673	0.540	1080.038	750.236
9.688	0.506	1078.668	749.052
10.702	0.701	1075.415	747.691
11.717	3.356	1078.208	762.721
12.731	9.395	1086.175	798.333
13.746	14.919	1093.637	831.274
14.761	17.285	1095.477	844.365
15.775	16.489	1094.284	839.421
16.790	15.538	1092.173	833.014
17.804	14.816	1090.708	828.244
18.819	14.411	1089.570	825.300
19.834	14.328	1088.672	824.136
20.848	14.051	1088.010	822.193
21.863	13.788	1086.693	819.825
22.877	13.625	1086.367	818.703
23.892	13.665	1085.439	818.126
24.907	13.649	1084.940	817.598
25.921	13.582	1084.137	816.595
26.936	13.713	1083.193	816.457
27.950	13.626	1082.335	815.306
28.965	13.788	1080.729	814.822
29.980	13.768	1079.637	813.828
30.994	13.914	1078.180	813.371
32.009	13.869	1077.754	812.759
33.023	13.911	1076.267	811.770
34.038	13.832	1075.757	810.928
35.053	13.680	1075.088	809.612
36.067	13.754	1073.953	809.044
37.082	13.784	1072.921	808.341
38.096	13.859	1072.171	808.073
39.111	13.719	1071.511	806.819
40.126	13.785	1070.293	806.152
41.140	13.662	1069.404	804.817
42.155	13.761	1067.748	803.977
43.169	13.677	1066.777	802.770
44.184	13.592	1065.896	801.622
45.199	13.589	1065.043	800.895
46.213	13.713	1063.398	800.186
47.228	13.673	1062.385	799.159
48.242	13.793	1061.525	799.019
49.257	13.704	1060.294	797.595
50.271	13.881	1059.307	797.635
51.286	13.759	1058.637	796.471
52.301	13.696	1057.853	795.509
53.315	13.662	1056.881	794.545
54.330	13.638	1055.744	793.507
55.344	13.741	1054.590	793.063
56.359	13.717	1053.889	792.347
57.374	13.817	1052.861	791.985
58.388	13.621	1052.254	790.523
59.403	13.691	1051.443	790.175
60.417	13.709	1050.588	789.548
61.432	13.575	1050.294	788.621
62.447	13.591	1048.962	787.625
63.461	13.533	1048.595	787.004
64.476	13.568	1047.375	786.187
65.490	13.486	1046.850	785.334
66.505	13.621	1045.515	784.901
67.520	13.746	1044.575	784.718
68.534	13.676	1044.390	784.178
69.549	13.674	1043.710	783.590
70.563	13.649	1042.689	782.638
71.578	13.539	1042.150	781.644
72.593	13.500	1041.292	780.746
73.607	13.555	1040.529	780.362
74.622	13.533	1040.158	779.912
75.636	13.472	1039.513	779.072
76.651	13.408	1038.450	777.909
77.666	13.478	1037.995	777.826
78.680	13.640	1036.863	777.670
79.695	13.596	1036.186	776.888
80.709	13.676	1035.598	776.750
81.724	13.634	1035.125	776.130
82.739	13.662	1034.103	775.428
83.753	13.833	1033.244	775.515
84.768	13.692	1032.604	774.307
85.782	13.765	1031.581	773.811
86.797	13.839	1030.427	773.221
87.812	13.799	1029.327	772.144
88.826	13.758	1028.624	771.356
89.841	13.727	1028.055	770.718
90.855	13.799	1026.674	769.950
91.870	13.797	1026.332	769.613
92.884	13.732	1025.699	768.768
93.899	13.879	1024.123	768.203
94.914	13.784	1023.723	767.393
95.928	13.891	1022.687	767.043
96.943	13.936	1021.112	766.004
97.957	13.827	1020.634	765.074
98.972	13.764	1020.144	764.346
99.987	13.820	1018.852	763.569
101.001	13.866	1018.204	763.228
102.016	13.828	1017.335	762.334
103.030	13.787	1016.699	761.600
104.045	13.848	1016.123	761.385
105.060	13.701	1015.411	760.110
106.074	13.773	1014.333	759.565
107.089	13.795	1012.575	758.283
108.103	13.651	1012.067	757.174
109.118	13.785	1011.500	757.295
110.133	13.842	1010.244	756.547
111.147	13.692	1009.345	755.127
112.162	13.776	1008.850	755.071
113.176	13.703	1007.714	753.823
114.191	13.782	1007.205	753.734
115.206	13.751	1006.189	752.767
116.220	13.920	1005.456	752.916
117.235	13.730	1004.262	751.094
118.249	13.728	1003.826	750.692
119.264	13.898	1002.939	750.732
120.279	13.732	1002.443	749.546
121.293	13.850	1001.153	749.048
122.308	13.760	1000.647	748.197
123.322	13.610	999.444	746.557
124.337	13.732	998.384	746.244
125.352	13.714	997.275	745.268
126.366	13.767	995.787	744.329
127.381	13.616	994.989	742.991
128.395	13.746	994.127	742.863
129.410	13.758	993.018	742.022
130.424	13.687	992.582	741.315
131.439	13.815	991.450	740.973
132.454	13.732	991.055	740.245
133.468	13.826	990.123	739.902
134.483	13.660	989.459	738.599
135.497	13.800	988.320	738.306
136.512	13.706	987.587	737.276
137.527	13.833	986.646	737.071
138.541	13.902	985.641	736.563
139.556	13.815	985.261	735.826
140.570	13.969	984.675	736.006
141.585	14.092	983.376	735.517
142.600	13.964	982.649	734.341
143.614	13.913	982.097	733.637
144.629	13.994	981.331	733.358
145.643	13.918	980.307	732.193
146.658	13.888	979.340	731.272
147.673	13.935	978.304	730.643
148.687	13.943	977.438	729.967
149.702	13.735	977.266	728.860
150.716	13.883	975.960	728.471
151.731	13.911	975.896	728.480
152.746	13.988	974.453	727.677
153.760	13.935	974.267	727.240
154.775	13.886	973.809	726.620
155.789	14.069	972.291	726.225
156.804	13.950	972.148	725.533
157.819	14.285	970.991	726.066
158.833	14.078	970.742	724.913
159.848	14.106	969.903	724.346
160.862	14.064	968.800	723.276
161.877	14.292	967.445	723.188
162.892	14.087	966.911	721.836
163.906	14.046	966.266	721.111
164.921	14.044	965.590	720.533
165.935	14.053	964.570	719.749
166.950	14.107	963.554	719.163
167.964	14.129	962.690	718.547
168.979	14.023	961.861	717.405
169.994	14.128	960.899	717.077
171.008	14.149	959.926	716.382
172.023	14.089	959.646	715.852
173.037	14.199	958.656	715.523
174.052	14.166	958.066	714.873
175.067	14.210	957.366	714.477
176.081	14.110	957.129	713.811
177.096	14.139	955.958	712.998
178.110	14.218	955.760	713.127
179.125	14.104	955.300	712.231
180.140	14.161	954.706	711.967
181.154	14.322	953.983	712.056
182.169	14.189	953.679	711.198
183.183	14.327	952.649	710.954
184.198	14.274	952.010	710.190
185.213	14.268	951.210	709.505
186.227	14.394	950.180	709.209
187.242	14.425	949.823	709.013
188.256	14.453	948.726	708.247
189.271	14.385	948.350	707.615
190.286	14.248	947.752	706.525
191.300	14.233	947.213	705.999
192.315	14.246	946.638	705.563
193.329	14.218	946.003	704.907
194.344	14.332	945.336	704.833
195.359	14.462	944.156	704.437
196.373	14.307	944.162	703.725
197.388	14.471	943.322	703.729
198.402	14.332	942.982	702.825
199.417	14.518	942.403	703.116
200.432	14.546	941.763	702.697
201.446	14.675	940.855	702.499
202.461	14.552	940.799	701.878
203.475	14.634	940.015	701.575
204.490	14.600	939.106	700.690
205.504	14.560	938.454	699.978
206.519	14.703	937.438	699.754
207.534	14.508	937.203	698.700
208.548	14.493	936.615	698.139
209.563	14.742	935.285	698.124
210.577	14.727	934.819	697.655
211.592	14.717	934.210	697.094
212.607	14.797	933.453	696.801
213.621	14.724	932.825	695.969
214.636	14.783	932.172	695.665
215.650	14.863	931.016	695.074
216.665	14.890	930.317	694.603
217.680	14.740	929.877	693.591
218.694	14.818	929.288	693.413
219.709	14.917	928.343	693.058
220.723	14.952	927.626	692.605
221.738	14.837	927.200	691.749
222.753	14.889	926.589	691.447
223.767	14.834	926.141	690.824
224.782	14.909	925.556	690.638
225.796	15.014	924.777	690.429
226.811	14.957	923.798	689.401
227.826	14.891	923.246	688.656
228.840	15.055	922.593	688.782
229.855	14.939	921.624	687.522
230.869	14.973	921.133	687.233
231.884	14.917	920.408	686.401
232.899	14.937	919.646	685.855
233.913	15.014	918.869	685.530
234.928	14.940	918.166	684.642
235.942	14.996	917.557	684.358
236.957	14.926	916.807	683.449
237.972	15.092	916.310	683.697
238.986	14.949	915.741	682.630
240.001	15.026	915.148	682.441
241.015	15.096	914.789	682.398
242.030	15.041	913.870	681.429
243.045	15.149	913.253	681.347
244.059	15.070	912.941	680.733
245.074	15.124	912.223	680.356
246.088	15.192	911.249	679.848
247.103	15.142	910.507	679.031
248.117	15.334	909.804	679.223
249.132	15.373	909.608	679.176
250.147	15.217	909.363	678.299
251.161	15.340	908.448	678.055
252.176	15.387	907.730	677.647
253.190	15.362	907.105	677.019
254.205	15.413	906.290	676.559
255.220	15.398	905.699	675.999
256.234	15.507	904.579	675.541
257.249	15.437	903.972	674.748
258.263	15.465	903.496	674.442
259.278	15.465	902.786	673.855
260.293	15.400	902.478	673.301
261.307	15.544	901.569	673.142
262.322	15.715	900.799	673.192
263.336	15.646	900.156	672.375
264.351	15.685	899.347	671.871
265.366	15.706	899.060	671.678
266.380	15.617	898.198	670.621
267.395	15.737	897.344	670.401
268.409	15.643	896.461	669.307
269.424	15.615	895.817	668.655
270.439	15.703	894.936	668.291
271.453	15.737	894.382	667.952
272.468	15.683	894.346	667.651
273.482	15.733	893.323	667.026
274.497	15.789	892.359	666.472
275.512	15.797	892.098	666.248
276.526	15.749	891.779	665.760
277.541	15.748	891.515	665.499
278.555	15.753	890.798	664.928
279.570	15.887	889.705	664.579
280.585	15.886	889.097	664.064
281.599	15.964	888.240	663.673
282.614	15.968	887.533	663.100
283.628	15.817	886.917	661.987
284.643	15.883	886.419	661.818
285.657	15.946	885.705	661.472
286.672	15.973	885.049	661.029
287.687	15.870	884.388	660.076
288.701	15.947	883.816	659.889
289.716	15.958	883.453	659.606
290.730	16.007	882.893	659.318
291.745	16.075	881.759	658.682
292.760	16.081	881.620	658.543
293.774	16.110	880.643	657.865
294.789	16.071	880.171	657.303
295.803	16.133	879.530	657.007
296.818	16.011	878.823	655.949
297.833	16.096	878.300	655.832
298.847	16.152	877.573	655.448
299.862	16.065	877.176	654.754
300.876	16.158	876.649	654.666
301.891	16.062	875.997	653.748
302.906	16.236	875.324	653.861
303.920	16.333	874.847	653.821
304.935	16.267	874.363	653.146
305.949	16.339	873.361	652.621
306.964	16.312	873.016	652.198
307.979	16.357	872.483	651.919
308.993	16.495	871.606	651.736
310.008	16.427	871.174	651.092
311.022	16.433	870.291	650.400
312.037	16.406	870.142	650.127
313.052	16.404	869.190	649.349
314.066	16.227	869.051	648.507
315.081	16.346	868.499	648.497
316.095	16.322	867.759	647.793
317.110	16.428	867.504	647.953
318.125	16.329	866.869	647.042
319.139	16.238	866.603	646.437
320.154	16.393	866.084	646.588
321.168	16.433	865.455	646.212
322.183	16.558	863.913	645.481
323.197	16.395	864.262	645.062
324.212	16.406	863.497	644.476
325.227	16.536	863.081	644.604
326.241	16.523	862.359	643.958
327.256	16.389	862.008	643.129
328.270	16.336	861.304	642.344
329.285	16.652	860.455	642.858
330.300	16.576	859.835	642.047
331.314	16.370	859.998	641.329
332.329	16.598	859.231	641.566
333.343	16.500	858.799	640.815
334.358	16.673	857.891	640.738
335.373	16.746	857.827	640.907
336.387	16.594	857.314	639.892
337.402	16.822	857.259	640.657
338.416	16.645	856.632	639.464
339.431	16.676	856.456	639.392
340.446	16.771	855.591	639.048
341.460	16.792	855.470	638.981
342.475	16.710	855.139	638.368
343.489	16.845	854.591	638.413
344.504	16.808	854.362	638.045
345.519	16.878	853.923	637.923
346.533	16.874	853.309	637.393
347.548	16.957	852.359	636.940
348.562	16.836	852.063	636.210
349.577	16.759	851.692	635.583
350.592	16.869	850.736	635.226
351.606	17.050	850.142	635.406
352.621	16.918	849.449	634.336
353.635	17.016	848.723	634.105
354.650	16.813	848.577	633.181
355.665	16.818	847.784	632.553
356.679	17.117	846.810	632.885
357.694	17.005	846.528	632.202
358.708	17.062	845.518	631.602
359.723	17.034	845.376	631.338
360.738	17.064	844.472	630.718
361.752	17.167	843.396	630.239
362.767	17.178	843.095	630.000
363.781	17.065	843.180	629.590
364.796	17.166	842.249	629.211
365.810	17.220	841.969	629.148
366.825	17.249	841.504	628.850
367.840	17.213	841.041	628.316
368.854	17.297	840.382	628.079
369.869	17.277	839.934	627.614
370.883	17.181	839.756	627.073
371.898	17.282	839.469	627.176
372.913	17.431	838.756	627.134
373.927	17.379	837.962	626.295
374.942	17.367	837.924	626.168
375.956	17.265	838.184	625.930
376.971	17.386	836.973	625.415
377.986	17.482	836.687	625.498
379.000	17.529	836.202	625.253
380.015	17.467	835.780	624.654
381.029	17.555	834.844	624.224
382.044	17.650	834.245	624.068
383.059	17.555	833.600	623.183
384.073	17.581	833.227	622.943
385.088	17.570	832.256	622.122
386.102	17.554	832.193	621.964
387.117	17.661	831.537	621.805
388.132	17.477	831.115	620.767
389.146	17.618	830.431	620.712
390.161	17.689	829.781	620.432
391.175	17.589	829.598	619.875
392.190	17.660	829.185	619.771
393.205	17.556	828.370	618.727
394.219	17.615	828.319	618.849
395.234	17.550	827.890	618.240
396.248	17.396	828.180	617.843
397.263	17.440	827.019	617.081
398.278	17.659	826.297	617.280
399.292	17.526	826.197	616.667
400.307	17.599	825.160	616.104
401.321	17.640	824.916	616.016
402.336	17.591	824.585	615.537
403.350	17.725	823.837	615.408
404.365	17.741	823.661	615.280
405.380	17.870	822.808	615.051
406.394	17.955	822.379	614.983
407.409	17.918	822.038	614.543
408.423	17.928	822.068	614.544
409.438	17.889	821.580	613.987
410.453	17.999	821.354	614.159
411.467	18.029	820.566	613.624
412.482	17.982	820.156	613.094
413.496	18.080	819.737	613.078
414.511	18.033	819.507	612.680
415.526	17.995	819.368	612.386
416.540	17.990	818.539	611.697
417.555	18.185	818.003	611.939
418.569	18.073	817.374	611.014
419.584	18.038	817.078	610.612
420.599	18.271	816.376	610.868
421.613	116.010	1301.286	1493.202
422.628	100.564	1371.890	1493.271
