DTS Sentinel unit serial number:	SN413079Multiplexer serial number:	ORYXHardware model number:	OX4-SRSoftware version number:	ORYX F/W v4.00 Oryx Data Collector v3.7.2.0data status	okinstallation	princeton_trtdifferential loss correction	single-endedforward channel	channel 1reverse channel	N/Adate	2019/09/12time	02:04:11forward acquisition time	60.00reverse acquisition time	0.00gamma	496.2192k internal	0.2320k external	0.2320temperature offset calibration	1.0080default loss term (dB/km)	0.3790temperature slope calibration	1.0000multiplexer offset coefficient	1.0000multiplexer slope coefficient	1.0000fibre end	0.00T internal ref (°C)	32.75T ext. ref 1 (°C)	2.07T ext. ref 2 (°C)	27.18length (m)	temperature (°C)	Stokes	anti-Stokes-747.200	-33.867	-0.241	0.134
-746.185	64.099	-0.035	-0.036
-745.171	130.641	-0.147	-0.190
-744.156	-66.959	-0.304	0.121
-743.142	-91.170	0.487	0.141
-742.127	95.753	-0.062	0.071
-741.112	-74.076	-0.107	0.039
-740.098	209.702	-0.211	0.334
-739.083	253.866	0.112	-0.193
-738.069	-39.109	-0.152	0.081
-737.054	10.901	0.074	-0.057
-736.039	42.548	-0.384	-0.354
-735.025	11.477	0.108	0.084
-734.010	-200.000	0.056	-0.251
-732.996	-129.239	-0.158	0.022
-731.981	800.000	0.085	-0.246
-730.966	50.962	0.300	0.287
-729.952	-34.312	0.337	0.187
-728.937	-23.589	-0.209	-0.127
-727.923	-74.882	-0.087	-0.032
-726.908	-55.533	-0.124	-0.056
-725.894	800.000	0.076	-0.297
-724.879	604.040	-0.164	-0.411
-723.864	44.813	-0.165	0.153
-722.850	-200.000	-0.039	-0.248
-721.835	-115.548	0.207	0.039
-720.821	72.553	-0.320	0.337
-719.806	618.392	-0.167	0.423
-718.791	-156.492	0.107	-0.007
-717.777	-200.000	0.025	-0.158
-716.762	-200.000	-0.020	0.104
-715.748	10.644	-0.081	-0.062
-714.733	-22.514	-0.168	-0.103
-713.718	-43.192	0.115	-0.059
-712.704	47.900	0.113	-0.107
-711.689	-200.000	0.020	-0.253
-710.675	800.000	-0.035	0.117
-709.660	-55.286	0.330	0.150
-708.645	-132.797	0.498	-0.064
-707.631	-200.000	0.054	-0.247
-706.616	800.000	-0.024	0.070
-705.602	328.325	0.199	-0.386
-704.587	-65.017	0.089	0.036
-703.572	-82.593	0.307	0.101
-702.558	800.000	-0.100	0.348
-701.543	-107.290	-0.160	-0.035
-700.529	26.133	-0.082	-0.069
-699.514	70.888	0.363	-0.380
-698.499	800.000	0.102	0.340
-697.485	800.000	-0.058	-0.211
-696.470	551.274	-0.009	-0.022
-695.456	-123.433	-0.254	0.041
-694.441	-200.000	0.037	-0.179
-693.426	50.363	0.321	-0.306
-692.412	83.343	-0.162	-0.178
-691.397	-90.916	0.274	0.080
-690.383	151.329	0.111	-0.152
-689.368	377.017	-0.121	-0.250
-688.354	-95.027	0.292	0.080
-687.339	-200.000	-0.046	-0.267
-686.324	-32.818	0.315	-0.176
-685.310	800.000	-0.053	0.195
-684.295	-200.000	-0.037	0.272
-683.281	-10.647	-0.170	-0.113
-682.266	540.886	-0.023	-0.056
-681.251	466.534	-0.041	0.094
-680.237	800.000	0.035	0.112
-679.222	-46.266	-0.158	0.078
-678.208	-197.985	-0.112	-0.001
-677.193	-5.992	-0.202	-0.139
-676.178	-104.349	-0.187	0.044
-675.164	75.276	0.164	0.174
-674.149	-20.501	-0.237	-0.147
-673.135	520.988	-0.093	-0.219
-672.120	-43.083	-0.280	-0.143
-671.105	-200.000	-0.028	-0.258
-670.091	8.267	0.104	0.078
-669.076	-118.789	0.225	-0.040
-668.062	-141.068	-0.232	0.024
-667.047	342.284	0.136	0.269
-666.032	677.765	-0.098	-0.258
-665.018	-200.000	-0.001	-0.497
-664.003	800.000	-0.060	-0.245
-662.989	7.418	0.289	0.218
-661.974	145.965	0.078	0.105
-660.959	800.000	-0.094	0.375
-659.945	-154.106	0.233	0.016
-658.930	-65.464	-0.160	0.065
-657.916	-200.000	-0.009	-0.077
-656.901	358.082	0.070	0.140
-655.886	-116.386	0.319	0.059
-654.872	78.634	0.204	-0.220
-653.857	-142.837	-0.151	0.015
-652.843	-200.000	-0.018	-0.337
-651.828	212.663	-0.147	0.233
-650.814	800.000	0.078	0.221
-649.799	261.058	0.179	-0.312
-648.784	-116.868	0.139	-0.026
-647.770	658.661	0.035	-0.090
-646.755	-200.000	0.070	-0.340
-645.741	111.702	0.127	0.154
-644.726	22.270	0.126	-0.104
-643.711	-200.000	0.003	0.098
-642.697	676.403	-0.141	-0.368
-641.682	-167.593	0.209	0.008
-640.668	-133.845	0.072	-0.009
-639.653	150.618	-0.144	-0.198
-638.638	44.289	0.104	0.096
-637.624	161.660	0.083	0.116
-636.609	-126.788	-0.041	-0.006
-635.595	467.699	-0.072	0.162
-634.580	-77.365	0.138	0.048
-633.565	-130.178	-0.192	-0.026
-632.551	-200.000	0.060	0.366
-631.536	-200.000	-0.048	-0.268
-630.522	210.135	-0.080	0.126
-629.507	800.000	-0.070	-0.282
-628.492	800.000	0.006	-0.027
-627.478	-117.414	-0.498	0.091
-626.463	-200.000	-0.020	0.286
-625.449	367.311	-0.111	0.225
-624.434	52.753	-0.292	0.281
-623.419	463.259	-0.045	0.102
-622.405	52.384	0.272	-0.261
-621.390	-200.000	0.019	-0.208
-620.376	-40.902	-0.052	0.027
-619.361	-106.435	0.412	-0.093
-618.346	-56.098	0.451	-0.202
-617.332	138.286	-0.279	0.368
-616.317	800.000	0.058	0.173
-615.303	28.706	0.064	-0.055
-614.288	-137.681	-0.246	-0.028
-613.273	262.022	0.119	-0.207
-612.259	200.779	-0.075	-0.117
-611.244	-44.215	-0.061	0.031
-610.230	-170.853	-0.360	-0.012
-609.215	-94.758	0.258	0.070
-608.201	166.980	-0.220	-0.314
-607.186	80.878	0.110	-0.119
-606.171	136.929	-0.029	0.039
-605.157	-200.000	0.024	-0.418
-604.142	800.000	-0.030	0.110
-603.128	43.469	0.120	-0.110
-602.113	-98.511	0.267	-0.069
-601.098	358.569	0.038	0.075
-600.084	-135.820	0.164	-0.020
-599.069	-106.106	-0.082	-0.018
-598.055	800.000	0.010	0.039
-597.040	-200.000	-0.057	-0.271
-596.025	409.984	0.045	0.096
-595.011	602.022	-0.023	-0.058
-593.996	94.595	0.295	-0.337
-592.982	65.044	0.114	0.116
-591.967	800.000	-0.065	-0.258
-590.952	-2.320	-0.232	0.163
-589.938	241.609	-0.095	-0.159
-588.923	-200.000	0.013	0.059
-587.909	-80.965	0.124	-0.041
-586.894	59.517	0.146	-0.145
-585.879	-40.526	-0.164	-0.085
-584.865	-132.058	-0.167	0.022
-583.850	346.009	0.057	-0.113
-582.836	-18.725	0.327	0.205
-581.821	-13.611	-0.171	0.111
-580.806	800.000	-0.059	-0.173
-579.792	-8.163	-0.257	-0.174
-578.777	-160.188	-0.247	0.013
-577.763	248.934	0.059	0.101
-576.748	-200.000	0.008	0.119
-575.733	-34.944	0.081	-0.044
-574.719	-35.219	-0.119	0.065
-573.704	-132.803	-0.179	0.023
-572.690	-80.682	-0.147	0.049
-571.675	356.493	-0.102	-0.204
-570.661	800.000	-0.025	-0.087
-569.646	-200.000	0.030	-0.228
-568.631	8.960	-0.354	0.268
-567.617	-168.314	0.156	-0.006
-566.602	499.888	-0.090	0.209
-565.588	21.918	-0.277	-0.227
-564.573	-200.000	0.035	-0.368
-563.558	-133.098	0.173	-0.022
-562.544	-185.601	-0.161	0.002
-561.529	-128.741	-0.154	0.022
-560.515	580.213	0.077	-0.189
-559.500	164.028	0.237	0.335
-558.485	800.000	-0.108	-0.304
-557.471	-98.442	0.203	-0.052
-556.456	-200.000	-0.045	-0.336
-555.442	-32.305	0.280	0.157
-554.427	-69.024	-0.328	0.127
-553.412	-83.431	-0.232	0.074
-552.398	-161.627	-0.201	0.010
-551.383	800.000	0.135	0.385
-550.369	151.801	0.192	0.263
-549.354	-96.201	-0.214	0.057
-548.339	-35.450	0.371	-0.202
-547.325	-99.376	0.150	-0.038
-546.310	79.992	-0.260	0.280
-545.296	402.471	-0.136	0.286
-544.281	-122.633	0.157	-0.026
-543.266	-200.000	0.036	0.166
-542.252	96.618	-0.265	0.304
-541.237	-175.812	-0.152	0.004
-540.223	-59.657	-0.120	0.052
-539.208	331.689	0.199	-0.385
-538.193	800.000	0.106	0.410
-537.179	19.734	-0.236	-0.190
-536.164	74.748	0.107	-0.113
-535.150	-92.577	-0.185	-0.052
-534.135	-200.000	0.035	-0.184
-533.121	-200.000	-0.011	0.075
-532.106	71.287	0.221	0.229
-531.091	-85.466	-0.207	-0.065
-530.077	-95.621	0.141	0.038
-529.062	-84.555	0.215	0.068
-528.048	800.000	-0.117	0.327
-527.033	-200.000	-0.237	-0.000
-526.018	27.433	-0.303	-0.255
-525.004	168.351	-0.135	-0.193
-523.989	-200.000	-0.008	0.069
-522.975	451.114	0.059	-0.130
-521.960	-200.000	-0.005	-0.167
-520.945	-200.000	0.009	-0.222
-519.931	-165.696	0.142	-0.006
-518.916	-121.380	0.098	0.016
-517.902	-87.467	0.175	0.053
-516.887	-94.621	-0.327	-0.089
-515.872	-22.817	0.168	-0.102
-514.858	107.569	0.246	0.293
-513.843	280.076	0.064	0.115
-512.829	25.879	0.179	-0.150
-511.814	-11.832	-0.345	-0.227
-510.799	368.808	0.227	-0.460
-509.785	191.645	-0.160	-0.242
-508.770	-200.000	0.056	0.249
-507.756	-59.175	-0.248	0.107
-506.741	-149.265	0.081	0.006
-505.726	800.000	-0.055	-0.183
-504.712	377.937	-0.159	-0.326
-503.697	-59.544	-0.223	-0.096
-502.683	251.749	0.224	0.382
-501.668	51.254	0.349	0.332
-500.653	-40.526	0.114	-0.059
-499.639	22.871	-0.079	0.064
-498.624	155.479	0.164	-0.226
-497.610	-13.329	0.296	-0.192
-496.595	-200.000	0.026	-0.152
-495.581	-70.841	0.028	0.010
-494.566	196.042	-0.077	0.117
-493.551	-200.000	0.027	-0.231
-492.537	-96.410	-0.235	0.062
-491.522	-200.000	0.010	-0.048
-490.508	-38.812	-0.263	0.139
-489.493	-84.365	-0.177	-0.056
-488.478	-200.000	-0.029	-0.285
-487.464	-29.989	-0.177	0.101
-486.449	800.000	-0.027	-0.106
-485.435	-103.266	0.211	0.050
-484.420	663.426	-0.084	0.217
-483.405	-200.000	0.028	0.360
-482.391	-9.895	0.212	0.141
-481.376	800.000	-0.058	0.171
-480.362	343.359	-0.148	-0.291
-479.347	5.505	0.199	-0.147
-478.332	800.000	-0.061	-0.183
-477.318	-200.000	-0.005	-0.043
-476.303	-22.306	0.206	-0.125
-475.289	178.848	-0.043	0.063
-474.274	414.474	-0.051	-0.108
-473.259	-63.146	-0.313	0.129
-472.245	344.814	0.222	-0.437
-471.230	472.302	-0.018	-0.040
-470.216	-7.006	-0.124	0.084
-469.201	114.734	0.134	-0.163
-468.186	691.312	0.161	-0.423
-467.172	-200.000	0.017	-0.106
-466.157	-200.000	-0.042	0.226
-465.143	-61.519	0.179	-0.075
-464.128	-79.507	0.067	-0.022
-463.113	-32.702	-0.181	-0.101
-462.099	-23.481	0.331	0.199
-461.084	7.430	0.382	0.286
-460.070	0.282	-0.065	0.046
-459.055	-128.546	0.285	-0.040
-458.040	42.732	-0.156	0.142
-457.026	293.618	-0.099	0.180
-456.011	-123.220	-0.319	0.051
-454.997	334.134	0.123	-0.237
-453.982	22.237	0.074	0.061
-452.968	553.404	0.065	-0.157
-451.953	-200.000	-0.003	-0.319
-450.938	63.659	0.074	-0.075
-449.924	-72.000	0.093	-0.035
-448.909	252.875	-0.153	-0.260
-447.895	478.039	-0.067	0.151
-446.880	41.983	-0.070	0.063
-445.865	-200.000	0.035	0.230
-444.851	-64.966	-0.141	-0.057
-443.836	-56.380	-0.072	-0.032
-442.822	704.197	0.089	0.235
-441.807	377.724	0.120	-0.246
-440.792	322.785	0.126	0.241
-439.778	131.315	0.119	-0.153
-438.763	221.983	-0.143	-0.230
-437.749	800.000	0.151	0.511
-436.734	-93.843	-0.160	-0.044
-435.719	-37.063	-0.139	-0.074
-434.705	-11.895	0.123	0.081
-433.690	230.533	0.122	0.199
-432.676	187.521	-0.162	-0.242
-431.661	70.821	-0.174	-0.180
-430.646	249.318	-0.028	0.048
-429.632	-25.029	-0.242	0.144
-428.617	-74.799	0.315	0.113
-427.603	-112.960	0.333	0.066
-426.588	800.000	-0.091	0.390
-425.573	800.000	-0.026	0.084
-424.559	643.871	0.039	-0.100
-423.544	-72.865	-0.112	0.041
-422.530	367.063	0.186	0.374
-421.515	-200.000	0.010	-0.114
-420.500	-2.098	0.185	0.130
-419.486	84.647	-0.366	-0.400
-418.471	-70.682	0.208	0.078
-417.457	800.000	-0.095	0.345
-416.442	41.196	-0.265	-0.239
-415.428	-50.923	0.023	0.011
-414.413	-200.000	0.028	0.312
-413.398	69.977	-0.050	-0.052
-412.384	-128.387	-0.276	0.039
-411.369	800.000	-0.029	0.079
-410.355	115.768	0.081	0.098
-409.340	-200.000	-0.026	0.327
-408.325	-134.100	0.149	0.018
-407.311	-200.000	0.079	0.377
-406.296	-96.076	-0.250	0.066
-405.282	-96.541	0.114	-0.030
-404.267	-75.867	0.298	-0.105
-403.252	-75.891	-0.176	0.062
-402.238	800.000	-0.069	-0.210
-401.223	-200.000	0.006	-0.202
-400.209	-17.404	0.243	0.152
-399.194	468.001	-0.109	0.244
-398.179	-200.000	-0.005	-0.103
-397.165	-143.516	-0.160	-0.015
-396.150	-118.386	0.478	0.085
-395.136	-125.787	-0.094	0.014
-394.121	-126.767	-0.314	0.046
-393.106	-200.000	-0.052	0.280
-392.092	-19.397	-0.071	0.044
-391.077	-200.000	0.007	-0.226
-390.063	-200.000	0.014	0.262
-389.048	-200.000	0.018	0.247
-388.033	-200.000	0.042	0.215
-387.019	44.815	0.203	-0.186
-386.004	-148.154	0.091	-0.007
-384.990	183.648	-0.093	0.138
-383.975	365.181	0.061	0.122
-382.960	-79.217	-0.220	-0.074
-381.946	7.238	0.242	0.180
-380.931	-200.000	-0.024	-0.111
-379.917	119.440	0.149	0.184
-378.902	-109.261	0.249	-0.053
-377.888	373.044	-0.107	0.216
-376.873	-7.843	-0.304	-0.204
-375.858	-12.643	0.213	-0.138
-374.844	-106.753	0.184	-0.041
-373.829	355.861	-0.047	0.094
-372.815	-34.796	-0.228	0.124
-371.800	800.000	-0.059	-0.161
-370.785	-116.763	0.280	-0.051
-369.771	13.693	0.198	-0.153
-368.756	-96.933	-0.355	-0.093
-367.742	2.631	-0.027	0.019
-366.727	-200.000	0.037	-0.287
-365.712	-200.000	0.017	-0.084
-364.698	249.171	-0.163	-0.275
-363.683	800.000	0.001	-0.002
-362.669	-85.106	0.188	-0.059
-361.654	-167.546	0.312	-0.012
-360.639	657.649	0.063	-0.161
-359.625	75.685	0.273	0.287
-358.610	-200.000	-0.015	-0.223
-357.596	-57.185	0.212	0.093
-356.581	-200.000	-0.022	0.280
-355.566	800.000	-0.052	-0.148
-354.552	-200.000	0.021	0.358
-353.537	12.925	-0.193	0.149
-352.523	-92.304	-0.078	0.022
-351.508	19.483	-0.323	-0.259
-350.493	-102.471	-0.392	0.093
-349.479	-21.137	-0.285	-0.173
-348.464	-89.287	-0.148	0.043
-347.450	-140.926	-0.110	-0.011
-346.435	-200.000	0.042	0.388
-345.420	-139.186	-0.100	-0.011
-344.406	-200.000	-0.009	-0.050
-343.391	-200.000	0.009	-0.162
-342.377	61.918	-0.216	-0.214
-341.362	363.835	0.165	0.330
-340.348	800.000	0.086	-0.327
-339.333	-200.000	0.033	-0.147
-338.318	800.000	-0.096	0.265
-337.304	3.238	-0.056	0.040
-336.289	-63.827	-0.293	0.119
-335.275	-200.000	-0.014	-0.162
-334.260	-171.148	-0.166	-0.006
-333.245	268.855	-0.077	-0.134
-332.231	299.246	0.063	-0.116
-331.216	-200.000	0.016	-0.590
-330.202	-200.000	-0.001	0.242
-329.187	-45.233	-0.067	0.033
-328.172	-16.886	0.111	-0.070
-327.158	800.000	0.033	0.093
-326.143	290.912	-0.246	0.444
-325.129	800.000	-0.084	0.266
-324.114	-200.000	-0.025	-0.423
-323.099	500.346	-0.043	0.098
-322.085	38.444	0.158	0.140
-321.070	352.303	-0.057	0.112
-320.056	-200.000	-0.016	-0.428
-319.041	800.000	0.062	-0.187
-318.026	800.000	-0.013	-0.041
-317.012	301.169	0.100	-0.184
-315.997	-200.000	0.071	0.562
-314.983	-136.276	0.210	-0.024
-313.968	93.846	0.233	0.262
-312.953	291.575	-0.116	-0.210
-311.939	-113.097	-0.241	0.047
-310.924	-36.160	0.351	-0.188
-309.910	47.741	-0.202	0.187
-308.895	-21.963	-0.157	0.095
-307.880	-46.489	-0.313	0.153
-306.866	-58.014	0.243	-0.105
-305.851	-30.367	0.096	-0.054
-304.837	-108.936	0.161	-0.034
-303.822	475.500	-0.061	0.137
-302.807	501.649	-0.091	-0.209
-301.793	-133.739	0.053	-0.007
-300.778	-31.876	-0.132	0.073
-299.764	25.661	0.224	0.186
-298.749	-164.575	-0.268	-0.012
-297.735	84.924	0.169	0.184
-296.720	319.537	0.194	0.366
-295.705	-80.724	-0.255	-0.084
-294.691	-111.009	0.101	0.021
-293.676	9.960	0.226	0.170
-292.662	99.792	0.084	-0.096
-291.647	-200.000	0.093	0.408
-290.632	-200.000	-0.002	-0.073
-289.618	-132.933	-0.038	-0.005
-288.603	174.477	0.142	0.204
-287.589	372.296	-0.039	0.078
-286.574	-186.901	-0.264	-0.004
-285.559	49.266	0.387	-0.362
-284.545	33.133	-0.032	-0.027
-283.530	7.290	0.130	0.097
-282.516	-200.000	-0.005	-0.047
-281.501	-200.000	-0.039	0.325
-280.486	-81.309	0.027	0.009
-279.472	43.196	0.152	0.138
-278.457	-77.010	-0.124	-0.043
-277.443	-193.689	0.273	-0.002
-276.428	147.127	0.100	0.134
-275.413	-9.681	-0.221	-0.146
-274.399	51.779	0.177	-0.167
-273.384	-200.000	0.038	0.176
-272.370	800.000	-0.047	-0.173
-271.355	-53.349	-0.210	0.096
-270.340	-200.000	-0.035	-0.275
-269.326	-120.061	0.282	-0.048
-268.311	-200.000	-0.043	0.191
-267.297	-82.255	0.092	-0.030
-266.282	-143.909	0.177	-0.017
-265.267	800.000	-0.009	-0.032
-264.253	15.099	-0.101	-0.078
-263.238	240.713	-0.130	0.215
-262.224	-29.997	-0.401	-0.227
-261.209	-117.874	-0.252	-0.045
-260.195	-45.446	-0.084	0.041
-259.180	721.945	-0.056	0.149
-258.165	-111.502	-0.037	-0.007
-257.151	249.204	-0.097	-0.164
-256.136	318.510	-0.148	-0.279
-255.122	48.773	-0.049	-0.046
-254.107	800.000	-0.024	0.077
-253.092	-200.000	-0.060	0.402
-252.078	-72.020	-0.425	0.157
-251.063	61.640	-0.205	-0.203
-250.049	84.281	-0.101	0.109
-249.034	800.000	-0.043	-0.185
-248.019	-148.332	-0.247	0.020
-247.005	609.910	-0.098	0.243
-245.990	-37.079	-0.210	0.112
-244.976	-76.970	0.145	0.050
-243.961	-200.000	-0.011	0.419
-242.946	411.040	0.055	0.116
-241.932	122.945	0.135	0.168
-240.917	-131.745	-0.164	-0.021
-239.903	164.076	0.199	0.278
-238.888	372.416	0.146	-0.294
-237.873	-53.021	-0.074	-0.034
-236.859	-65.122	0.203	-0.081
-235.844	197.559	0.122	0.184
-234.830	420.644	0.199	-0.424
-233.815	-200.000	0.020	-0.253
-232.800	-41.177	0.304	0.155
-231.786	722.488	0.040	0.104
-230.771	-52.985	-0.178	0.081
-229.757	-148.638	-0.207	-0.017
-228.742	-144.771	0.082	0.007
-227.727	-80.109	-0.070	-0.023
-226.713	37.492	0.059	0.052
-225.698	-200.000	-0.009	0.264
-224.684	26.781	0.176	0.146
-223.669	-130.933	-0.106	-0.014
-222.655	30.472	0.223	0.189
-221.640	549.181	0.089	0.210
-220.625	72.731	0.263	-0.272
-219.611	800.000	0.052	-0.194
-218.596	171.895	0.150	-0.214
-217.582	-81.283	-0.112	-0.036
-216.567	170.224	0.048	0.068
-215.552	-109.579	-0.331	0.069
-214.538	85.696	0.077	-0.084
-213.523	438.686	-0.097	0.209
-212.509	452.745	-0.076	0.167
-211.494	-200.000	-0.033	-0.364
-210.479	353.882	0.148	-0.290
-209.465	800.000	-0.076	-0.241
-208.450	-69.328	0.545	0.207
-207.436	-200.000	0.027	-0.118
-206.421	478.408	-0.158	0.355
-205.406	-200.000	0.019	0.381
-204.392	250.418	0.170	-0.285
-203.377	-139.851	0.224	0.024
-202.363	192.100	0.234	0.349
-201.348	388.184	-0.086	-0.177
-200.333	-200.000	-0.005	-0.473
-199.319	-200.000	-0.008	-0.159
-198.304	-200.000	-0.008	-0.090
-197.290	-200.000	-0.290	0.001
-196.275	-200.000	0.050	-0.387
-195.260	800.000	0.035	0.119
-194.246	-200.000	-0.035	0.161
-193.231	112.694	0.187	-0.224
-192.217	183.270	-0.061	-0.089
-191.202	-134.288	0.275	0.033
-190.187	-45.611	-0.383	-0.187
-189.173	-200.000	-0.006	-0.061
-188.158	-147.376	0.024	-0.002
-187.144	-82.276	0.399	-0.128
-186.129	-19.710	-0.047	0.029
-185.114	-200.000	-0.012	0.274
-184.100	-15.133	-0.313	-0.198
-183.085	800.000	-0.017	-0.054
-182.071	-121.424	-0.257	-0.042
-181.056	-200.000	-0.016	0.086
-180.042	800.000	0.014	0.054
-179.027	210.742	-0.252	-0.391
-178.012	-200.000	-0.029	-0.183
-176.998	168.110	0.158	-0.222
-175.983	-161.794	0.297	0.015
-174.969	-200.000	-0.007	0.421
-173.954	-172.886	0.235	-0.007
-172.939	782.231	0.066	-0.179
-171.925	700.446	0.020	0.052
-170.910	76.619	-0.010	0.010
-169.896	-65.400	0.151	0.060
-168.881	150.177	-0.185	0.248
-167.866	-200.000	-0.036	0.289
-166.852	-98.174	0.331	-0.084
-165.837	-144.058	0.123	-0.011
-164.823	506.717	0.072	-0.166
-163.808	-23.058	0.217	0.129
-162.793	-175.260	0.161	0.004
-161.779	-200.000	-0.055	0.377
-160.764	-124.150	0.135	0.021
-159.750	-144.141	0.047	0.004
-158.735	51.203	-0.278	0.261
-157.720	-120.322	-0.183	-0.031
-156.706	-200.000	-0.005	0.101
-155.691	-137.426	-0.260	-0.029
-154.677	-129.935	0.103	-0.014
-153.662	303.111	-0.098	-0.179
-152.647	418.961	0.105	-0.222
-151.633	341.514	0.025	0.048
-150.618	-71.890	-0.151	0.056
-149.604	399.518	0.209	-0.433
-148.589	-200.000	0.019	0.169
-147.574	-51.846	-0.166	-0.077
-146.560	30.321	-0.313	-0.264
-145.545	-28.150	0.206	-0.117
-144.531	-76.490	-0.271	-0.094
-143.516	119.881	-0.118	0.144
-142.502	-24.654	-0.108	0.063
-141.487	26.979	0.158	0.131
-140.472	604.795	0.144	-0.354
-139.458	99.789	0.101	-0.116
-138.443	9.159	0.093	-0.069
-137.429	656.894	-0.081	-0.205
-136.414	-65.730	-0.257	0.101
-135.399	353.658	0.039	-0.076
-134.385	-16.267	-0.233	-0.146
-133.370	107.796	-0.152	-0.179
-132.356	-15.687	-0.088	0.055
-131.341	44.257	0.191	0.173
-130.326	187.959	-0.154	0.227
-129.312	800.000	-0.135	-0.389
-128.297	149.897	0.089	-0.119
-127.283	320.791	-0.073	0.137
-126.268	800.000	0.091	-0.262
-125.253	-200.000	-0.002	0.093
-124.239	434.078	0.088	-0.189
-123.224	800.000	0.039	-0.154
-122.210	800.000	-0.038	0.136
-121.195	384.045	-0.202	0.411
-120.180	-200.000	-0.069	-0.345
-119.166	138.567	-0.093	0.120
-118.151	-35.947	0.314	0.168
-117.137	-25.394	-0.156	-0.091
-116.122	800.000	-0.071	-0.238
-115.107	112.887	-0.117	0.140
-114.093	800.000	0.088	-0.249
-113.078	800.000	0.036	0.111
-112.064	-200.000	0.010	0.213
-111.049	225.145	0.140	-0.223
-110.034	541.417	0.106	-0.249
-109.020	-44.563	-0.206	-0.101
-108.005	800.000	0.116	0.356
-106.991	-14.788	-0.252	-0.160
-105.976	-200.000	0.018	0.109
-104.962	-74.407	0.055	-0.020
-103.947	183.722	0.118	0.171
-102.932	51.111	0.213	0.199
-101.918	-190.464	0.257	-0.003
-100.903	312.015	0.094	-0.173
-99.889	-98.865	0.206	0.052
-98.874	800.000	0.039	-0.127
-97.859	469.230	0.120	0.266
-96.845	-57.343	0.079	0.034
-95.830	-200.000	0.016	-0.417
-94.816	-91.511	0.098	-0.028
-93.801	752.762	0.181	0.481
-92.786	36.199	0.171	-0.149
-91.772	-149.114	-0.129	0.010
-90.757	344.676	0.137	0.264
-89.743	-140.667	0.267	0.027
-88.728	64.088	-0.068	-0.067
-87.713	-200.000	-0.093	0.000
-86.699	-34.906	0.112	0.060
-85.684	-126.347	0.185	-0.027
-84.670	329.624	-0.021	0.039
-83.655	-200.000	0.007	0.473
-82.640	-200.000	-0.019	-0.149
-81.626	-60.574	0.482	0.201
-80.611	515.380	-0.068	0.156
-79.597	-200.000	0.005	-0.207
-78.582	238.887	-0.109	-0.178
-77.567	-31.514	0.190	0.105
-76.553	-200.000	-0.008	0.226
-75.538	3.112	0.081	0.058
-74.524	124.911	-0.034	0.042
-73.509	121.897	-0.142	0.174
-72.494	-44.468	-0.270	-0.133
-71.480	108.579	0.296	-0.348
-70.465	269.669	0.132	-0.228
-69.451	128.073	0.066	-0.082
-68.436	800.000	0.086	-0.278
-67.422	-200.000	0.012	-0.161
-66.407	246.955	-0.109	0.181
-65.392	48.994	-0.100	0.092
-64.378	-92.582	0.153	0.042
-63.363	106.277	0.217	0.254
-62.349	-37.415	0.358	0.188
-61.334	-9.460	-0.801	-0.526
-60.319	-55.657	0.683	0.301
-59.305	800.000	-0.284	-0.957
-58.290	183.209	0.617	0.898
-57.276	335.230	0.838	1.598
-56.261	-200.000	96.286	579.779
-55.246	559.769	1374.305	3266.275
-54.232	161.178	2547.743	3504.792
-53.217	112.737	2139.271	2549.583
-52.203	44.364	1603.483	1448.736
-51.188	36.302	1341.431	1163.576
-50.173	33.030	1299.920	1108.364
-49.159	54.585	1346.709	1277.367
-48.144	56.904	1363.485	1307.060
-47.130	36.376	1322.301	1147.238
-46.115	32.893	1305.030	1111.743
-45.100	32.738	1300.205	1106.673
-44.086	32.653	1297.191	1103.566
-43.071	32.539	1295.764	1101.645
-42.057	32.555	1293.549	1099.811
-41.042	32.545	1292.005	1098.393
-40.027	32.688	1290.060	1097.530
-39.013	32.552	1288.204	1095.117
-37.998	32.672	1286.289	1094.144
-36.984	32.804	1284.359	1093.224
-35.969	32.687	1282.943	1091.297
-34.954	32.807	1280.947	1090.251
-33.940	32.837	1279.590	1089.226
-32.925	32.870	1278.730	1088.642
-31.911	32.778	1277.315	1086.865
-30.896	32.860	1275.577	1085.812
-29.881	32.859	1274.205	1084.596
-28.867	32.892	1272.623	1083.395
-27.852	32.948	1271.213	1082.473
-26.838	32.964	1269.734	1081.263
-25.823	32.955	1268.301	1079.946
-24.809	32.847	1267.524	1078.623
-23.794	32.814	1266.018	1077.113
-22.779	32.800	1264.316	1075.544
-21.765	32.863	1263.230	1074.934
-20.750	32.844	1261.943	1073.686
-19.736	32.720	1260.560	1071.767
-18.721	32.715	1259.598	1070.876
-17.706	32.719	1258.487	1069.913
-16.692	32.663	1257.981	1069.120
-15.677	32.595	1256.347	1067.307
-14.663	32.762	1255.060	1067.115
-13.648	32.617	1254.389	1065.679
-12.633	32.708	1253.319	1065.244
-11.619	32.517	1252.893	1063.758
-10.604	32.727	1251.552	1063.768
-9.590	32.658	1250.550	1062.480
-8.575	32.654	1249.666	1061.665
-7.560	32.668	1248.718	1060.897
-6.546	32.699	1247.508	1060.003
-5.531	32.664	1247.400	1059.670
-4.517	32.638	1246.203	1058.467
-3.502	32.685	1245.359	1057.972
-2.487	32.610	1244.201	1056.526
-1.473	32.638	1240.388	1053.400
-0.458	31.226	1225.618	1033.010
0.556	28.360	1208.041	996.070
1.571	24.745	1212.948	980.253
2.586	23.761	1228.490	987.258
3.600	23.278	1217.633	975.784
4.615	17.057	1144.635	884.875
5.629	6.911	1067.963	775.945
6.644	2.422	1047.277	739.200
7.659	2.062	1044.634	735.538
8.673	1.905	1043.875	734.182
9.688	1.871	1042.329	732.867
10.702	2.377	1040.868	734.201
11.717	8.973	1050.431	772.743
12.731	19.070	1064.745	832.278
13.746	24.129	1070.615	861.327
14.761	25.214	1071.777	867.434
15.775	25.219	1071.372	867.053
16.790	25.032	1070.572	865.429
17.804	25.070	1069.827	864.930
18.819	25.197	1069.508	865.209
19.834	25.286	1068.863	865.042
20.848	25.310	1068.847	865.067
21.863	25.210	1068.324	864.085
22.877	25.241	1067.349	863.368
23.892	25.100	1066.799	862.170
24.907	25.139	1066.498	862.037
25.921	25.226	1064.973	861.148
26.936	25.316	1063.419	860.245
27.950	25.125	1062.342	858.385
28.965	25.077	1060.543	856.626
29.980	25.167	1059.108	855.817
30.994	25.328	1057.826	855.473
32.009	25.371	1057.058	854.985
33.023	25.188	1055.249	852.576
34.038	25.233	1054.922	852.447
35.053	25.214	1055.050	852.384
36.067	25.264	1053.416	851.228
37.082	25.377	1052.967	851.324
38.096	25.447	1052.298	851.040
39.111	25.515	1051.718	850.816
40.126	25.329	1050.341	848.749
41.140	24.957	1048.621	845.531
42.155	24.823	1047.045	843.552
43.169	24.946	1046.170	843.350
44.184	24.846	1045.849	842.546
45.199	24.783	1044.227	840.869
46.213	24.892	1043.528	840.746
47.228	25.124	1042.651	841.051
48.242	25.252	1041.558	840.694
49.257	25.154	1041.551	840.155
50.271	25.314	1040.502	839.984
51.286	25.342	1039.929	839.580
52.301	25.458	1038.657	839.019
53.315	25.298	1038.043	837.701
54.330	25.175	1037.419	836.551
55.344	25.209	1036.573	835.951
56.359	25.136	1035.941	835.028
57.374	24.987	1034.685	833.250
58.388	25.020	1033.906	832.702
59.403	24.991	1032.567	831.415
60.417	24.896	1031.946	830.401
61.432	24.897	1031.772	830.195
62.447	25.116	1030.870	830.406
63.461	24.980	1030.383	829.315
64.476	24.919	1029.440	828.200
65.490	24.846	1028.179	826.772
66.505	24.984	1027.561	826.838
67.520	24.940	1027.095	826.189
68.534	24.745	1025.770	824.152
69.549	24.516	1024.727	822.184
70.563	24.533	1023.724	821.387
71.578	24.490	1023.092	820.610
72.593	24.370	1021.854	818.995
73.607	24.458	1021.837	819.313
74.622	24.751	1021.302	820.153
75.636	24.764	1020.573	819.554
76.651	24.614	1019.971	818.314
77.666	24.660	1018.977	817.652
78.680	24.709	1017.862	816.908
79.695	24.786	1017.543	816.934
80.709	24.791	1017.484	816.838
81.724	24.789	1016.427	815.906
82.739	24.984	1015.452	815.940
83.753	25.160	1015.412	816.635
84.768	25.393	1014.975	817.275
85.782	25.502	1013.646	816.628
86.797	25.417	1012.670	815.381
87.812	25.332	1011.635	814.092
88.826	25.329	1010.867	813.386
89.841	25.657	1009.422	813.637
90.855	25.614	1008.552	812.671
91.870	25.452	1007.515	811.031
92.884	25.390	1006.654	809.984
93.899	25.301	1005.655	808.710
94.914	25.553	1004.759	809.050
95.928	25.334	1003.763	807.192
96.943	24.995	1003.093	805.058
97.957	24.864	1001.886	803.430
98.972	24.652	1000.847	801.578
99.987	24.939	1000.162	802.243
101.001	25.269	999.206	802.883
102.016	25.233	998.508	802.090
103.030	25.174	997.394	800.862
104.045	25.031	996.427	799.375
105.060	24.883	995.481	797.886
106.074	24.985	995.182	798.031
107.089	25.260	994.660	798.763
108.103	25.195	993.686	797.623
109.118	24.878	992.706	795.359
110.133	25.072	991.084	794.846
111.147	24.896	989.516	792.741
112.162	24.609	989.513	791.400
113.176	24.934	988.802	792.197
114.191	24.810	987.886	790.845
115.206	24.464	986.897	788.454
116.220	24.441	986.183	787.714
117.235	24.717	985.129	788.018
118.249	24.625	984.300	786.880
119.264	24.433	983.814	785.579
120.279	24.638	983.019	785.773
121.293	24.736	982.222	785.501
122.308	24.646	981.126	784.156
123.322	24.661	979.863	783.145
124.337	24.476	978.946	781.532
125.352	23.939	977.066	777.617
126.366	23.944	976.121	776.818
127.381	24.812	975.829	780.304
128.395	25.094	976.086	781.669
129.410	25.290	974.603	781.266
130.424	25.310	973.947	780.756
131.439	25.214	973.199	779.672
132.454	25.109	972.208	778.352
133.468	25.126	971.089	777.464
134.483	25.266	970.544	777.564
135.497	25.336	970.355	777.646
136.512	25.432	969.303	777.151
137.527	25.497	968.005	776.322
138.541	25.479	967.319	775.623
139.556	25.540	966.628	775.263
140.570	25.601	965.539	774.586
141.585	25.472	964.859	773.416
142.600	25.473	964.079	772.728
143.614	25.530	963.455	772.404
144.629	25.609	962.865	772.201
145.643	25.500	961.218	770.347
146.658	25.410	959.943	768.870
147.673	25.452	958.721	768.003
148.687	25.381	957.821	766.912
149.702	25.127	957.306	765.349
150.716	25.261	956.315	765.058
151.731	25.329	955.693	764.782
152.746	25.410	955.471	764.882
153.760	25.686	954.678	765.355
154.775	25.653	954.197	764.761
155.789	25.431	953.405	763.112
156.804	25.538	951.998	762.373
157.819	25.546	951.536	761.970
158.833	25.912	950.466	762.594
159.848	25.650	949.518	760.659
160.862	25.466	948.407	758.924
161.877	25.600	947.313	758.549
162.892	25.676	946.472	758.129
163.906	25.541	945.684	756.860
164.921	25.418	944.841	755.603
165.935	25.702	943.865	755.949
166.950	25.590	942.811	754.565
167.964	25.553	942.050	753.739
168.979	25.524	940.732	752.495
169.994	25.347	939.829	750.967
171.008	25.633	939.349	751.711
172.023	25.793	938.351	751.512
173.037	25.477	937.157	749.175
174.052	25.151	936.719	747.398
175.067	25.372	935.522	747.297
176.081	25.317	935.747	747.180
177.096	25.378	934.633	746.478
178.110	25.025	933.952	744.404
179.125	24.851	933.133	742.963
180.140	24.931	932.822	742.980
181.154	24.963	932.692	742.946
182.169	25.420	932.304	744.464
183.183	25.605	931.921	744.860
184.198	25.492	931.425	743.926
185.213	25.531	930.059	742.931
186.227	25.565	929.555	742.605
187.242	25.620	928.794	742.158
188.256	25.616	928.609	741.929
189.271	25.678	927.522	741.251
190.286	25.431	926.187	739.099
191.300	24.717	925.103	735.237
192.315	23.966	923.464	730.784
193.329	23.870	923.558	730.398
194.344	24.755	924.105	734.402
195.359	25.515	923.562	737.023
196.373	25.500	923.155	736.572
197.388	25.436	922.214	735.495
198.402	25.352	921.572	734.574
199.417	25.517	920.989	734.720
200.432	25.287	919.716	732.699
201.446	25.111	919.274	731.563
202.461	25.128	918.749	731.151
203.475	24.355	916.721	726.326
204.490	23.457	915.705	721.803
205.504	24.409	915.970	725.823
206.519	25.061	916.186	728.580
207.534	25.072	915.672	728.152
208.548	25.604	915.346	729.989
209.563	25.277	914.748	728.120
210.577	25.300	913.861	727.444
211.592	25.774	913.309	728.858
212.607	25.762	912.252	727.902
213.621	25.591	912.055	726.990
214.636	25.743	911.149	726.817
215.650	25.729	910.155	725.901
216.665	25.786	909.534	725.573
217.680	25.765	908.795	724.836
218.694	25.206	907.732	721.674
219.709	24.991	907.646	720.678
220.723	25.296	907.170	721.461
221.738	25.433	906.651	721.536
222.753	25.452	905.767	720.844
223.767	25.550	905.273	720.781
224.782	25.707	905.014	721.139
225.796	25.801	904.674	721.183
226.811	25.090	902.704	716.707
227.826	24.503	901.499	713.340
228.840	24.541	901.515	713.443
229.855	24.855	900.469	713.803
230.869	24.392	899.480	711.113
231.884	24.955	899.468	713.284
232.899	25.571	899.448	715.656
233.913	25.523	899.027	715.067
234.928	25.300	898.601	713.776
235.942	25.252	897.814	712.900
236.957	24.899	897.020	710.804
237.972	25.010	896.676	710.907
238.986	25.116	896.103	710.813
240.001	25.212	895.177	710.394
241.015	25.288	894.518	710.109
242.030	25.436	894.159	710.348
243.045	25.530	893.779	710.354
244.059	25.668	893.634	710.721
245.074	25.355	892.458	708.486
246.088	25.113	891.514	706.720
247.103	25.440	891.214	707.712
248.117	25.997	891.270	709.887
249.132	26.160	890.775	710.070
250.147	26.142	890.519	709.730
251.161	26.369	890.044	710.181
252.176	26.324	889.421	709.444
253.190	26.559	888.837	709.838
254.205	26.725	887.992	709.749
255.220	26.529	887.464	708.497
256.234	26.309	887.014	707.218
257.249	26.232	886.023	706.062
258.263	26.239	885.617	705.704
259.278	26.321	885.039	705.501
260.293	26.447	884.112	705.190
261.307	26.284	883.521	704.022
262.322	26.134	882.527	702.584
263.336	25.266	881.023	697.951
264.351	24.447	878.581	692.778
265.366	24.449	879.070	693.109
266.380	25.494	879.506	697.447
267.395	26.054	879.242	699.348
268.409	26.011	878.308	698.376
269.424	26.176	877.885	698.619
270.439	26.170	877.485	698.216
271.453	26.215	876.754	697.746
272.468	26.441	876.528	698.376
273.482	26.499	876.181	698.261
274.497	26.165	874.798	695.809
275.512	25.681	873.829	693.117
276.526	26.068	874.244	694.874
277.541	26.275	873.966	695.388
278.555	26.040	872.739	693.445
279.570	25.895	871.992	692.235
280.585	26.111	871.488	692.603
281.599	26.119	870.656	691.911
282.614	25.437	869.384	688.228
283.628	25.422	868.851	687.686
284.643	25.999	868.334	689.421
285.657	25.561	867.463	687.000
286.672	25.187	866.779	684.969
287.687	25.594	866.895	686.554
288.701	25.849	866.287	686.981
289.716	25.495	865.283	684.777
290.730	25.445	864.710	684.071
291.745	25.061	863.824	681.851
292.760	25.479	863.536	683.153
293.774	26.415	864.109	687.103
294.789	26.665	863.790	687.736
295.803	26.666	863.487	687.440
296.818	26.897	862.250	687.271
297.833	26.391	861.300	684.537
298.847	26.126	861.013	683.244
299.862	26.703	860.472	684.935
300.876	26.736	860.281	684.849
301.891	26.738	859.657	684.301
302.906	26.228	858.822	681.650
303.920	26.352	858.441	681.754
304.935	26.690	858.008	682.623
305.949	26.634	857.284	681.776
306.964	26.319	856.608	679.994
307.979	26.524	856.465	680.591
308.993	26.973	856.127	681.948
310.008	26.896	855.313	680.953
311.022	26.593	854.686	679.256
312.037	26.283	854.200	677.646
313.052	26.178	853.021	676.258
314.066	25.353	851.397	671.826
315.081	24.989	850.939	670.045
316.095	25.842	851.040	673.252
317.110	26.353	851.008	675.079
318.125	25.494	849.681	670.761
319.139	24.422	847.656	665.109
320.154	24.510	847.758	665.460
321.168	25.419	848.025	668.998
322.183	26.044	848.504	671.642
323.197	26.193	848.051	671.780
324.212	26.399	847.628	672.152
325.227	26.471	846.978	671.843
326.241	26.304	846.374	670.684
327.256	26.302	845.165	669.662
328.270	26.158	844.816	668.793
329.285	26.048	844.195	667.832
330.300	25.833	843.386	666.338
331.314	26.103	842.809	666.822
332.329	26.498	842.882	668.280
333.343	26.635	842.307	668.270
334.358	26.521	842.409	667.870
335.373	26.714	841.536	667.833
336.387	26.926	841.730	668.709
337.402	26.989	841.630	668.802
338.416	27.026	841.331	668.639
339.431	27.085	840.862	668.426
340.446	27.249	840.447	668.638
341.460	27.070	840.038	667.596
342.475	26.999	839.165	666.585
343.489	27.062	838.888	666.537
344.504	27.223	839.036	667.187
345.519	27.569	838.401	667.891
346.533	27.273	838.310	666.673
347.548	27.409	837.439	666.420
348.562	27.561	836.624	666.268
349.577	27.427	836.377	665.524
350.592	27.435	835.546	664.832
351.606	27.388	834.852	664.049
352.621	27.243	834.228	662.964
353.635	27.099	833.165	661.536
354.650	26.439	831.815	658.005
355.665	25.656	830.187	653.816
356.679	26.033	830.180	655.122
357.694	26.484	830.016	656.572
358.708	26.309	829.293	655.308
359.723	26.836	829.427	657.268
360.738	27.070	829.170	657.852
361.752	27.207	828.655	657.882
362.767	27.513	828.192	658.563
363.781	27.691	828.018	659.008
364.796	27.775	827.525	658.861
365.810	27.716	827.063	658.222
366.825	27.648	826.827	657.731
367.840	27.512	825.761	656.335
368.854	27.122	824.642	653.984
369.869	27.088	824.487	653.680
370.883	27.157	824.196	653.639
371.898	27.051	823.388	652.560
372.913	27.332	823.029	653.229
373.927	27.243	822.856	652.713
374.942	27.360	822.493	652.788
375.956	27.427	822.532	653.000
376.971	27.606	821.950	653.123
377.986	27.752	821.513	653.239
379.000	27.720	820.694	652.416
380.015	27.565	820.497	651.646
381.029	27.564	819.556	650.839
382.044	27.732	818.931	650.885
383.059	27.718	818.271	650.252
384.073	27.774	818.022	650.197
385.088	27.735	817.260	649.393
386.102	27.426	816.720	647.809
387.117	27.574	815.541	647.342
388.132	27.194	814.464	645.082
389.146	26.634	813.761	642.482
390.161	27.049	814.130	644.189
391.175	27.568	814.095	645.946
392.190	27.033	812.974	643.105
393.205	25.800	810.483	636.721
394.219	24.257	808.833	629.921
395.234	24.277	808.608	629.761
396.248	25.759	810.281	636.248
397.263	27.397	810.954	642.507
398.278	27.180	810.839	641.594
399.292	26.965	809.759	639.923
400.307	27.028	809.539	639.917
401.321	27.116	809.147	639.859
402.336	27.452	808.883	640.776
403.350	27.910	808.990	642.417
404.365	28.164	809.046	643.297
405.380	28.397	808.717	643.797
406.394	28.307	808.260	643.061
407.409	28.362	807.346	642.468
408.423	28.361	807.096	642.210
409.438	28.412	806.807	642.101
410.453	28.550	806.031	641.910
411.467	28.359	805.668	640.896
412.482	28.456	805.317	640.897
413.496	28.539	804.867	640.772
414.511	28.578	804.552	640.602
415.526	28.462	804.060	639.750
416.540	28.500	803.230	639.165
417.555	28.274	802.491	637.732
418.569	28.105	802.472	637.074
419.584	28.050	801.829	636.315
420.599	27.962	801.209	635.462
421.613	111.409	1284.725	1456.857
422.628	96.175	1355.181	1456.966
