DTS Sentinel unit serial number:	SN413079Multiplexer serial number:	ORYXHardware model number:	OX4-SRSoftware version number:	ORYX F/W v4.00 Oryx Data Collector v3.7.2.0data status	okinstallation	princeton_trtdifferential loss correction	single-endedforward channel	channel 1reverse channel	N/Adate	2019/09/13time	08:14:35forward acquisition time	60.00reverse acquisition time	0.00gamma	496.2192k internal	0.2330k external	0.2330temperature offset calibration	1.0163default loss term (dB/km)	0.3790temperature slope calibration	1.0000multiplexer offset coefficient	1.0000multiplexer slope coefficient	1.0000fibre end	0.00T internal ref (°C)	27.14T ext. ref 1 (°C)	4.27T ext. ref 2 (°C)	23.08length (m)	temperature (°C)	Stokes	anti-Stokes-747.200	228.108	-0.139	-0.227
-746.185	151.480	-0.159	-0.218
-745.171	-60.560	0.068	0.029
-744.156	-171.650	-0.214	-0.007
-743.142	-138.807	0.273	0.030
-742.127	663.327	-0.155	0.402
-741.112	-47.175	0.392	-0.192
-740.098	-9.522	0.113	0.076
-739.083	-45.040	0.171	-0.086
-738.069	41.378	-0.212	-0.193
-737.054	-158.382	-0.267	0.016
-736.039	-38.303	-0.245	-0.130
-735.025	94.496	0.090	-0.103
-734.010	-22.755	-0.151	0.091
-732.996	-106.449	0.421	-0.095
-731.981	-200.000	-0.043	0.228
-730.966	800.000	-0.085	0.316
-729.952	-87.988	-0.246	-0.074
-728.937	26.250	0.116	0.097
-727.923	-109.866	-0.363	-0.077
-726.908	-45.059	0.243	0.122
-725.894	-73.379	-0.576	-0.212
-724.879	147.894	-0.045	0.062
-723.864	-200.000	0.017	-0.189
-722.850	-74.943	-0.200	0.072
-721.835	159.095	-0.166	-0.233
-720.821	32.882	-0.077	-0.067
-719.806	-101.574	0.157	0.038
-718.791	-145.501	-0.173	-0.016
-717.777	143.816	0.178	-0.238
-716.762	-78.784	0.121	0.042
-715.748	-200.000	-0.044	-0.235
-714.733	53.112	0.156	0.150
-713.718	-49.646	0.110	0.053
-712.704	-182.546	-0.145	0.003
-711.689	202.627	0.078	-0.121
-710.675	-176.066	-0.436	-0.012
-709.660	200.582	0.049	-0.076
-708.645	-159.159	0.550	-0.031
-707.631	-85.977	-0.331	-0.103
-706.616	-132.287	-0.135	-0.018
-705.602	318.430	-0.052	-0.099
-704.587	67.206	-0.066	0.067
-703.572	-200.000	-0.007	-0.035
-702.558	151.409	-0.226	-0.309
-701.543	-107.732	0.085	0.019
-700.529	68.844	-0.139	0.144
-699.514	-200.000	-0.254	-0.001
-698.499	-90.926	0.216	-0.063
-697.485	-113.161	-0.084	-0.017
-696.470	256.213	-0.033	0.057
-695.456	-200.000	-0.002	0.062
-694.441	62.962	0.047	0.047
-693.426	-200.000	-0.001	-0.192
-692.412	334.521	-0.106	-0.206
-691.397	19.613	0.210	-0.170
-690.383	253.648	-0.039	-0.066
-689.368	-3.386	-0.448	0.313
-688.354	181.900	-0.084	-0.125
-687.339	81.933	-0.039	0.043
-686.324	-20.324	0.199	0.123
-685.310	800.000	0.048	-0.175
-684.295	64.800	-0.022	0.023
-683.281	-200.000	0.057	-0.340
-682.266	-200.000	0.019	-0.247
-681.251	-200.000	-0.033	-0.258
-680.237	-194.613	0.188	-0.001
-679.222	-55.025	-0.206	-0.093
-678.208	16.953	0.213	-0.170
-677.193	-74.109	0.319	0.116
-676.178	330.071	-0.149	-0.289
-675.164	683.674	0.095	0.249
-674.149	-12.412	-0.166	0.109
-673.135	288.132	-0.092	-0.166
-672.120	63.633	-0.131	0.132
-671.105	29.399	-0.185	0.158
-670.091	800.000	-0.055	-0.157
-669.076	-200.000	-0.009	0.100
-668.062	210.570	-0.151	0.238
-667.047	800.000	-0.109	-0.461
-666.032	126.418	-0.132	0.168
-665.018	104.712	0.118	0.139
-664.003	-200.000	-0.015	-0.159
-662.989	163.958	-0.178	0.251
-661.974	51.721	-0.206	0.196
-660.959	73.293	0.140	0.147
-659.945	104.084	0.175	-0.206
-658.930	-120.902	0.133	-0.022
-657.916	-66.187	-0.482	-0.193
-656.901	161.353	0.094	-0.132
-655.886	-163.839	-0.228	-0.011
-654.872	-139.916	-0.066	-0.007
-653.857	-33.639	-0.176	-0.097
-652.843	23.265	-0.147	-0.121
-651.828	-73.835	0.222	0.081
-650.814	-102.046	0.021	0.005
-649.799	457.786	-0.058	-0.130
-648.784	800.000	-0.115	-0.379
-647.770	6.376	-0.184	-0.137
-646.755	-92.827	-0.143	0.040
-645.741	1.184	-0.163	-0.117
-644.726	-166.128	0.104	-0.004
-643.711	-1.087	0.115	0.082
-642.697	-200.000	-0.020	0.191
-641.682	-26.385	0.468	0.275
-640.668	800.000	0.055	-0.164
-639.653	375.349	-0.203	0.415
-638.638	-23.379	-0.343	-0.207
-637.624	75.820	-0.410	-0.435
-636.609	-60.711	-0.182	-0.077
-635.595	591.878	-0.064	-0.158
-634.580	182.563	0.173	0.256
-633.565	-200.000	0.005	0.022
-632.551	-200.000	-0.031	-0.142
-631.536	59.864	-0.028	0.028
-630.522	-65.439	-0.170	0.068
-629.507	175.946	0.195	0.284
-628.492	-200.000	0.021	0.149
-627.478	-12.861	0.158	-0.103
-626.463	800.000	0.122	-0.372
-625.449	210.944	-0.085	0.134
-624.434	-148.655	-0.353	-0.029
-623.419	318.427	0.071	0.136
-622.405	-100.017	0.221	0.055
-621.390	303.941	-0.090	-0.167
-620.376	333.377	0.083	0.161
-619.361	633.898	-0.060	-0.153
-618.346	-200.000	-0.009	0.146
-617.332	-200.000	0.050	0.228
-616.317	646.508	-0.099	-0.254
-615.303	16.767	-0.120	0.095
-614.288	-181.385	-0.173	-0.003
-613.273	-200.000	-0.045	0.302
-612.259	-161.035	0.285	-0.015
-611.244	-121.447	0.217	0.036
-610.230	-200.000	0.001	0.316
-609.215	88.738	0.081	0.090
-608.201	-164.227	0.132	-0.006
-607.186	44.827	0.121	0.112
-606.171	-6.466	-0.150	-0.102
-605.157	-200.000	0.033	-0.178
-604.142	-200.000	0.002	0.010
-603.128	-16.697	-0.237	0.150
-602.113	-200.000	-0.011	-0.309
-601.098	132.338	-0.163	0.210
-600.084	-28.389	0.361	0.208
-599.069	-200.000	0.022	-0.172
-598.055	-15.638	0.143	0.091
-597.040	-130.831	0.112	0.015
-596.025	206.252	-0.084	-0.131
-595.011	800.000	0.044	-0.140
-593.996	18.811	-0.226	-0.181
-592.982	-200.000	0.025	-0.132
-591.967	314.336	-0.066	0.124
-590.952	362.228	-0.223	0.448
-589.938	-200.000	-0.024	0.150
-588.923	90.407	0.173	0.194
-587.909	800.000	0.007	-0.026
-586.894	193.666	-0.219	-0.331
-585.879	791.825	-0.051	-0.140
-584.865	-200.000	-0.022	-0.191
-583.850	32.774	0.135	0.117
-582.836	-200.000	0.021	0.134
-581.821	-1.795	-0.287	0.202
-580.806	800.000	0.034	-0.114
-579.792	689.945	-0.027	-0.072
-578.777	-25.064	-0.262	-0.155
-577.763	-200.000	0.269	-0.001
-576.748	-159.555	-0.358	0.020
-575.733	44.591	0.212	-0.195
-574.719	-70.145	-0.213	-0.081
-573.704	29.809	0.104	-0.088
-572.690	800.000	0.086	0.356
-571.675	16.103	0.101	-0.080
-570.661	-200.000	-0.017	0.393
-569.646	28.705	-0.084	0.071
-568.631	246.178	0.077	-0.130
-567.617	800.000	-0.027	0.118
-566.602	65.508	-0.075	0.075
-565.588	3.986	-0.269	0.197
-564.573	-33.227	0.062	0.034
-563.558	-125.208	0.291	0.045
-562.544	-200.000	-0.012	-0.172
-561.529	-9.187	0.205	-0.137
-560.515	-73.945	-0.093	-0.034
-559.500	649.741	-0.110	0.282
-558.485	444.668	-0.120	0.263
-557.471	800.000	-0.068	0.283
-556.456	-200.000	0.029	0.169
-555.442	-200.000	-0.040	-0.252
-554.427	-200.000	-0.007	-0.422
-553.412	17.524	-0.140	0.112
-552.398	75.440	-0.019	0.020
-551.383	-200.000	0.010	-0.106
-550.369	-200.000	-0.064	0.349
-549.354	-200.000	0.004	0.121
-548.339	-102.297	0.463	-0.111
-547.325	-93.645	-0.442	-0.122
-546.310	35.690	-0.211	0.186
-545.296	-44.736	0.097	0.048
-544.281	-43.996	0.066	0.033
-543.266	-200.000	0.026	0.245
-542.252	110.991	-0.185	0.223
-541.237	288.714	-0.158	0.286
-540.223	70.521	-0.163	0.168
-539.208	800.000	-0.026	-0.114
-538.193	587.706	-0.048	-0.117
-537.179	163.354	-0.157	-0.221
-536.164	-55.818	0.082	0.036
-535.150	-16.973	-0.069	-0.043
-534.135	37.345	-0.112	0.099
-533.121	-200.000	-0.002	-0.243
-532.106	262.679	-0.191	-0.331
-531.091	51.665	-0.193	0.183
-530.077	-200.000	0.016	-0.076
-529.062	50.760	0.068	0.064
-528.048	800.000	-0.061	0.211
-527.033	17.450	-0.023	0.019
-526.018	144.301	-0.237	0.316
-525.004	-131.158	-0.702	-0.093
-523.989	-105.657	0.101	0.023
-522.975	272.254	0.119	0.210
-521.960	800.000	-0.072	-0.207
-520.945	-200.000	0.009	-0.108
-519.931	32.321	0.175	0.151
-518.916	-80.477	0.062	-0.021
-517.902	-121.319	0.177	0.029
-516.887	794.603	0.072	-0.198
-515.872	-200.000	0.016	-0.280
-514.858	123.697	-0.225	-0.282
-513.843	36.248	-0.205	-0.180
-512.829	-39.300	0.069	0.036
-511.814	800.000	-0.048	0.158
-510.799	-200.000	-0.023	-0.102
-509.785	-200.000	0.003	-0.234
-508.770	-200.000	-0.030	-0.194
-507.756	-131.937	-0.269	0.035
-506.741	49.481	0.028	-0.026
-505.726	800.000	-0.039	0.148
-504.712	-102.895	0.108	-0.026
-503.697	-140.469	-0.252	-0.026
-502.683	13.914	0.099	0.077
-501.668	800.000	0.050	-0.170
-500.653	-69.808	-0.165	0.063
-499.639	-62.149	-0.334	-0.139
-498.624	145.735	-0.185	0.247
-497.610	-105.042	-0.100	-0.023
-496.595	185.303	0.191	0.283
-495.581	-88.138	0.118	0.035
-494.566	715.769	-0.141	0.372
-493.551	87.103	0.155	-0.170
-492.537	-93.144	0.482	0.134
-491.522	-200.000	0.012	0.121
-490.508	7.393	-0.129	0.096
-489.493	126.558	-0.147	-0.185
-488.478	95.063	-0.081	0.092
-487.464	-3.006	-0.171	-0.119
-486.449	800.000	0.041	-0.149
-485.435	384.256	0.224	0.460
-484.420	-200.000	0.008	-0.346
-483.405	-61.345	0.076	0.032
-482.391	-81.015	0.158	0.052
-481.376	-32.814	0.529	-0.293
-480.362	-62.239	-0.410	0.170
-479.347	66.639	-0.243	-0.247
-478.332	-98.432	-0.322	-0.082
-477.318	734.891	-0.056	-0.149
-476.303	800.000	0.081	0.261
-475.289	-30.911	0.230	0.130
-474.274	174.225	-0.170	0.245
-473.259	800.000	-0.042	0.125
-472.245	-33.317	0.295	-0.162
-471.230	-200.000	-0.022	0.300
-470.216	-92.124	-0.358	0.101
-469.201	-65.239	-0.370	0.148
-468.186	8.952	-0.073	-0.055
-467.172	-127.778	0.110	-0.016
-466.157	210.025	0.128	-0.201
-465.143	168.075	-0.125	-0.177
-464.128	-107.309	0.169	-0.037
-463.113	-200.000	-0.012	-0.328
-462.099	-31.825	0.233	-0.130
-461.084	1.901	-0.038	0.028
-460.070	-4.200	0.155	0.107
-459.055	156.858	-0.109	0.150
-458.040	800.000	0.024	-0.073
-457.026	-45.854	-0.123	0.060
-456.011	800.000	-0.048	0.146
-454.997	-200.000	-0.024	0.144
-453.982	-0.176	0.181	0.128
-452.968	-70.217	0.090	0.034
-451.953	800.000	0.092	-0.335
-450.938	-200.000	0.115	0.000
-449.924	-91.863	0.066	0.019
-448.909	-85.397	-0.165	-0.051
-447.895	-107.661	0.205	-0.045
-446.880	-154.911	0.197	-0.013
-445.865	98.474	-0.169	0.194
-444.851	-200.000	-0.009	0.205
-443.836	8.678	-0.223	0.167
-442.822	-200.000	-0.063	0.376
-441.807	-200.000	0.028	0.164
-440.792	79.384	-0.125	-0.133
-439.778	-107.516	0.290	-0.063
-438.763	35.243	-0.160	-0.140
-437.749	21.391	-0.138	0.111
-436.734	624.954	0.060	-0.149
-435.719	56.242	-0.192	0.185
-434.705	-34.994	-0.138	0.075
-433.690	-34.780	-0.168	0.091
-432.676	25.493	-0.122	0.101
-431.661	330.399	-0.033	-0.063
-430.646	-8.981	-0.138	0.092
-429.632	-132.363	0.229	-0.029
-428.617	-200.000	-0.000	-0.324
-427.603	199.005	-0.155	-0.236
-426.588	478.633	0.143	-0.321
-425.573	-35.925	-0.051	-0.027
-424.559	-179.784	0.409	0.009
-423.544	-200.000	-0.009	0.137
-422.530	-16.098	0.072	0.045
-421.515	3.329	-0.415	-0.300
-420.500	-24.115	0.146	-0.086
-419.486	-190.505	0.385	-0.004
-418.471	115.649	0.192	-0.233
-417.457	582.300	-0.062	-0.151
-416.442	81.893	0.050	0.054
-415.428	-28.009	-0.730	0.420
-414.413	800.000	0.094	0.375
-413.398	-8.056	-0.153	-0.103
-412.384	238.036	0.012	-0.020
-411.369	5.977	0.209	-0.154
-410.355	-27.439	-0.251	0.145
-409.340	10.742	0.168	0.128
-408.325	-89.141	0.117	-0.034
-407.311	-146.434	0.157	-0.014
-406.296	67.740	-0.107	-0.109
-405.282	-61.615	0.177	-0.074
-404.267	-150.133	0.160	0.012
-403.252	-20.839	-0.172	0.105
-402.238	483.446	0.078	0.177
-401.223	-130.946	0.121	0.016
-400.209	-127.652	-0.156	-0.022
-399.194	-107.478	-0.338	0.074
-398.179	-71.872	0.164	0.061
-397.165	-144.169	-0.177	-0.016
-396.150	59.455	-0.042	0.041
-395.136	800.000	-0.091	-0.301
-394.121	-65.101	-0.404	0.162
-393.106	172.702	0.058	0.083
-392.092	-27.883	0.143	0.082
-391.077	-145.663	0.261	-0.023
-390.063	55.140	-0.033	0.032
-389.048	50.347	-0.087	-0.081
-388.033	-200.000	-0.002	0.098
-387.019	-145.821	-0.027	0.002
-386.004	-82.829	0.225	0.072
-384.990	-143.417	0.116	0.011
-383.975	-114.028	-0.140	0.027
-382.960	108.969	-0.083	-0.099
-381.946	-74.586	-0.116	-0.041
-380.931	-120.739	-0.327	0.055
-379.917	-28.231	0.056	0.032
-378.902	-29.516	0.137	-0.078
-377.888	314.184	0.035	-0.065
-376.873	234.848	0.085	0.139
-375.858	-53.828	0.207	0.094
-374.844	16.122	0.060	0.047
-373.829	-160.621	0.199	0.011
-372.815	800.000	0.081	0.233
-371.800	28.059	0.178	-0.149
-370.785	-200.000	0.011	-0.171
-369.771	16.297	-0.187	-0.147
-368.756	268.547	0.106	-0.185
-367.742	-10.605	0.232	-0.153
-366.727	475.589	-0.069	-0.154
-365.712	-20.963	0.350	-0.213
-364.698	-4.332	0.325	-0.223
-363.683	155.215	0.113	0.154
-362.669	274.296	0.134	0.236
-361.654	1.539	-0.189	-0.135
-360.639	-98.067	-0.378	-0.097
-359.625	-29.048	0.043	0.024
-358.610	-119.400	-0.166	0.029
-357.596	-200.000	-0.006	-0.209
-356.581	-200.000	-0.019	0.118
-355.566	14.978	0.338	-0.262
-354.552	-29.781	0.353	-0.200
-353.537	36.252	0.079	-0.069
-352.523	800.000	-0.093	0.325
-351.508	-7.410	0.064	-0.043
-350.493	-75.715	0.076	-0.027
-349.479	394.482	-0.100	0.206
-348.464	-42.733	0.217	0.109
-347.450	-110.942	-0.333	0.068
-346.435	-15.518	0.165	0.105
-345.420	-69.552	0.241	0.091
-344.406	490.409	-0.047	-0.107
-343.391	235.719	-0.068	0.111
-342.377	124.864	-0.071	0.088
-341.362	-60.449	-0.319	0.134
-340.348	13.088	0.150	0.115
-339.333	-46.339	-0.170	-0.083
-338.318	655.784	-0.024	0.060
-337.304	124.275	-0.258	-0.322
-336.289	-136.751	0.332	0.038
-335.275	-67.962	-0.083	0.032
-334.260	-121.451	-0.062	-0.010
-333.245	-102.578	-0.331	-0.078
-332.231	537.110	-0.114	-0.269
-331.216	174.707	-0.140	0.201
-330.202	800.000	-0.091	0.274
-329.187	205.279	-0.124	0.191
-328.172	800.000	-0.077	-0.249
-327.158	-127.092	0.248	0.036
-326.143	-40.338	0.216	-0.111
-325.129	26.441	0.104	0.086
-324.114	204.365	0.103	0.158
-323.099	-200.000	-0.001	0.108
-322.085	-200.000	0.014	0.089
-321.070	800.000	0.058	-0.162
-320.056	-200.000	-0.000	-0.351
-319.041	29.658	0.095	-0.080
-318.026	-129.225	-0.289	-0.040
-317.012	-45.944	0.224	-0.110
-315.997	118.328	0.203	-0.248
-314.983	-120.096	0.461	-0.078
-313.968	-186.097	0.244	-0.004
-312.953	24.489	-0.177	0.145
-311.939	-18.774	-0.080	-0.049
-310.924	800.000	0.115	-0.347
-309.910	6.809	0.227	-0.167
-308.895	-79.296	-0.073	0.024
-307.880	14.511	0.285	-0.220
-306.866	-169.116	0.206	0.008
-305.851	614.820	-0.098	0.244
-304.837	-170.418	0.270	0.009
-303.822	800.000	0.087	-0.258
-302.807	106.126	0.080	-0.094
-301.793	-111.897	0.137	-0.027
-300.778	-63.713	0.179	0.073
-299.764	-152.439	-0.324	-0.023
-298.749	-50.870	-0.187	0.087
-297.735	-90.140	0.061	0.018
-296.720	168.374	0.123	-0.173
-295.705	-91.397	0.217	0.061
-294.691	-65.063	-0.290	0.116
-293.676	-93.140	0.418	0.115
-292.662	216.224	-0.121	0.191
-291.647	-76.888	-0.158	-0.055
-290.632	578.799	-0.115	-0.279
-289.618	-200.000	-0.021	0.241
-288.603	47.591	-0.325	-0.300
-287.589	-200.000	0.046	0.236
-286.574	-64.952	-0.391	-0.156
-285.559	-60.933	-0.258	0.108
-284.545	15.508	-0.214	0.166
-283.530	-81.731	-0.203	-0.066
-282.516	8.260	0.297	-0.221
-281.501	194.371	0.177	-0.266
-280.486	150.829	0.195	-0.262
-279.472	45.618	-0.130	-0.119
-278.457	29.080	0.240	-0.202
-277.443	-97.005	-0.173	-0.045
-276.428	-38.457	-0.225	-0.118
-275.413	-85.794	0.182	0.056
-274.399	800.000	-0.044	-0.146
-273.384	200.906	-0.160	0.243
-272.370	109.789	-0.099	0.118
-271.355	407.689	-0.041	0.085
-270.340	-29.355	-0.126	-0.071
-269.326	63.619	0.384	-0.381
-268.311	282.434	-0.075	0.133
-267.297	800.000	-0.052	0.192
-266.282	-86.139	0.225	0.068
-265.267	800.000	0.044	-0.157
-264.253	800.000	-0.031	0.089
-263.238	800.000	0.035	0.116
-262.224	-100.411	-0.236	0.058
-261.209	-71.770	-0.301	-0.111
-260.195	101.930	0.192	-0.222
-259.180	-132.293	0.405	0.052
-258.165	-3.670	-0.174	-0.119
-257.151	-34.212	0.160	-0.087
-256.136	-179.241	0.176	0.004
-255.122	-200.000	0.053	-0.316
-254.107	800.000	-0.043	-0.149
-253.092	-71.754	0.230	0.085
-252.078	181.523	-0.025	0.036
-251.063	100.953	0.070	-0.080
-250.049	-200.000	0.026	-0.276
-249.034	-137.977	0.224	-0.025
-248.019	-200.000	0.049	0.364
-247.005	65.586	0.036	0.036
-245.990	800.000	0.023	0.082
-244.976	-162.304	0.175	-0.009
-243.961	-89.044	0.217	-0.063
-242.946	102.923	0.334	-0.386
-241.932	23.480	0.339	-0.275
-240.917	67.048	-0.027	-0.027
-239.903	277.483	0.038	-0.068
-238.888	-200.000	0.010	0.114
-237.873	-15.000	-0.097	0.062
-236.859	-16.099	-0.307	0.192
-235.844	-99.926	0.046	0.011
-234.830	-175.282	-0.198	0.005
-233.815	-20.370	-0.140	0.085
-232.800	-141.643	-0.144	0.014
-231.786	-151.965	0.239	-0.017
-230.771	-200.000	0.003	-0.250
-229.757	-200.000	0.064	-0.373
-228.742	-142.439	0.226	-0.022
-227.727	9.078	0.117	0.087
-226.713	512.291	-0.026	0.059
-225.698	10.158	-0.107	0.081
-224.684	-80.855	0.255	0.083
-223.669	-131.767	0.216	0.028
-222.655	-200.000	-0.005	-0.033
-221.640	-200.000	-0.015	0.197
-220.625	-126.500	-0.199	-0.029
-219.611	-64.444	-0.029	0.012
-218.596	-71.757	0.071	-0.026
-217.582	36.290	0.199	0.173
-216.567	-1.271	-0.172	0.120
-215.552	-200.000	0.009	-0.209
-214.538	189.701	-0.177	0.262
-213.523	800.000	-0.059	-0.235
-212.509	-20.245	-0.215	-0.131
-211.494	-175.499	0.144	0.004
-210.479	84.645	0.112	0.121
-209.465	-67.476	0.281	0.109
-208.450	81.279	-0.146	-0.155
-207.436	-89.931	-0.086	0.025
-206.421	55.265	0.251	0.240
-205.406	501.625	-0.050	0.114
-204.392	-200.000	0.036	-0.175
-203.377	27.378	0.164	-0.136
-202.363	6.243	0.166	-0.121
-201.348	-149.735	0.316	0.024
-200.333	136.063	-0.082	0.105
-199.319	116.761	-0.089	0.107
-198.304	-60.911	0.089	0.037
-197.290	800.000	-0.118	-0.345
-196.275	800.000	0.127	-0.376
-195.260	-200.000	0.015	-0.246
-194.246	-57.401	0.215	-0.093
-193.231	-200.000	0.004	0.182
-192.217	-200.000	0.104	0.452
-191.202	-34.604	0.155	-0.084
-190.187	-200.000	-0.029	0.189
-189.173	-94.929	0.053	0.014
-188.158	38.858	-0.273	-0.240
-187.144	-146.795	-0.230	0.020
-186.129	-70.190	0.300	-0.112
-185.114	0.434	-0.070	-0.049
-184.100	800.000	-0.071	0.199
-183.085	293.744	0.117	-0.211
-182.071	-94.161	0.265	-0.072
-181.056	-19.307	-0.227	0.139
-180.042	366.083	-0.200	-0.398
-179.027	-200.000	-0.005	0.060
-178.012	800.000	-0.034	-0.119
-176.998	-71.810	0.133	-0.049
-175.983	1.558	-0.191	-0.135
-174.969	62.652	0.219	0.215
-173.954	-200.000	0.083	0.000
-172.939	-162.969	-0.293	-0.014
-171.925	-112.615	0.105	-0.021
-170.910	-105.780	0.171	-0.038
-169.896	28.826	0.151	0.126
-168.881	235.449	-0.090	0.147
-167.866	10.083	-0.052	0.039
-166.852	-91.221	0.378	-0.106
-165.837	416.985	-0.057	0.119
-164.823	-7.638	-0.101	-0.067
-163.808	-151.272	-0.243	0.018
-162.793	-95.789	-0.182	0.048
-161.779	800.000	0.111	0.363
-160.764	18.330	0.243	0.191
-159.750	-136.351	0.190	-0.022
-158.735	-58.078	0.277	0.119
-157.720	-79.898	-0.384	0.127
-156.706	145.175	-0.105	0.138
-155.691	528.554	-0.051	0.117
-154.677	-137.275	-0.109	0.012
-153.662	-200.000	-0.014	0.174
-152.647	643.514	0.135	0.340
-151.633	-107.755	-0.351	0.075
-150.618	-53.594	0.365	-0.164
-149.604	373.288	-0.158	-0.316
-148.589	-51.650	0.426	-0.195
-147.574	-163.471	-0.220	0.010
-146.560	117.845	-0.044	-0.054
-145.545	18.582	-0.088	-0.069
-144.531	228.648	0.052	0.083
-143.516	800.000	-0.087	-0.314
-142.502	-200.000	0.000	-0.146
-141.487	139.238	0.108	-0.140
-140.472	-34.817	-0.272	-0.146
-139.458	-115.974	0.056	0.010
-138.443	419.053	0.080	0.168
-137.429	-47.284	0.330	-0.158
-136.414	800.000	0.029	-0.107
-135.399	-99.452	-0.094	-0.023
-134.385	-67.368	0.133	0.052
-133.370	48.121	-0.133	0.123
-132.356	415.017	-0.082	-0.173
-131.341	29.931	-0.295	-0.247
-130.326	-29.864	0.075	-0.042
-129.312	-200.000	-0.013	-0.252
-128.297	-200.000	-0.008	0.074
-127.283	-138.325	-0.272	-0.030
-126.268	-200.000	-0.050	0.348
-125.253	52.552	-0.235	0.221
-124.239	549.469	0.039	0.091
-123.224	171.103	-0.129	0.182
-122.210	-77.364	0.090	0.031
-121.195	-92.798	-0.046	0.013
-120.180	123.148	0.026	0.032
-119.166	-86.858	0.227	-0.068
-118.151	-24.143	-0.296	0.174
-117.137	-76.985	-0.197	0.068
-116.122	-92.793	-0.109	0.030
-115.107	98.303	-0.097	-0.110
-114.093	-200.000	-0.113	0.000
-113.078	48.776	-0.036	-0.033
-112.064	-134.363	0.139	-0.017
-111.049	-22.879	0.198	0.117
-110.034	245.396	-0.197	0.326
-109.020	450.032	0.082	-0.177
-108.005	110.412	0.096	0.114
-106.991	-88.791	0.179	0.052
-105.976	-98.279	-0.205	0.052
-104.962	800.000	0.062	-0.257
-103.947	236.318	0.162	-0.263
-102.932	410.352	-0.196	-0.407
-101.918	-200.000	-0.006	-0.291
-100.903	-200.000	-0.044	-0.275
-99.889	800.000	0.053	0.172
-98.874	219.330	0.142	0.223
-97.859	-21.275	-0.291	-0.175
-96.845	-127.372	0.335	-0.048
-95.830	-200.000	-0.002	0.116
-94.816	-200.000	-0.029	-0.189
-93.801	-165.046	-0.344	-0.015
-92.786	-76.711	0.263	0.091
-91.772	-22.005	0.136	0.081
-90.757	37.119	0.066	0.057
-89.743	107.993	-0.231	-0.271
-88.728	-164.073	-0.177	0.008
-87.713	-200.000	-0.010	-0.229
-86.699	439.806	-0.104	-0.222
-85.684	800.000	-0.020	-0.066
-84.670	134.927	0.123	0.157
-83.655	-200.000	-0.060	0.287
-82.640	-143.071	-0.358	0.034
-81.626	-200.000	-0.039	-0.240
-80.611	-77.837	-0.179	0.061
-79.597	50.074	-0.226	0.209
-78.582	-200.000	-0.062	-0.299
-77.567	-34.444	0.113	-0.061
-76.553	-131.037	0.173	-0.023
-75.538	14.923	0.194	0.149
-74.524	-56.416	0.183	0.079
-73.509	-28.413	-0.172	-0.097
-72.494	421.344	-0.093	-0.195
-71.480	415.415	-0.053	0.111
-70.465	-116.588	0.128	-0.023
-69.451	-98.658	0.072	-0.018
-68.436	-150.390	0.256	0.019
-67.422	-19.727	-0.236	0.143
-66.407	-200.000	-0.038	-0.233
-65.392	-160.203	0.254	0.014
-64.378	4.018	-0.248	-0.178
-63.363	445.807	-0.017	-0.036
-62.349	114.544	0.158	0.189
-61.334	205.468	-0.658	-1.002
-60.319	171.925	0.339	0.478
-59.305	800.000	-0.463	-1.304
-58.290	446.912	0.543	1.170
-57.276	341.144	0.788	1.508
-56.261	-200.000	114.001	649.734
-55.246	530.486	1529.618	3542.179
-54.232	175.853	2700.632	3840.027
-53.217	108.109	2164.316	2528.654
-52.203	38.754	1604.423	1403.407
-51.188	30.379	1348.506	1128.847
-50.173	27.532	1310.507	1080.142
-49.159	55.183	1367.412	1295.042
-48.144	53.638	1380.934	1298.484
-47.130	30.772	1336.247	1120.776
-46.115	27.303	1318.446	1085.148
-45.100	26.974	1313.837	1079.355
-44.086	26.957	1311.420	1077.230
-43.071	27.020	1308.893	1075.480
-42.057	27.032	1306.513	1073.553
-41.042	27.028	1304.793	1072.078
-40.027	27.098	1303.468	1071.357
-39.013	26.986	1302.285	1069.683
-37.998	27.118	1299.462	1068.098
-36.984	27.278	1297.346	1067.253
-35.969	27.153	1296.516	1065.799
-34.954	27.147	1294.730	1064.252
-33.940	27.142	1293.387	1063.079
-32.925	27.217	1291.947	1062.285
-31.911	27.091	1290.272	1060.133
-30.896	27.159	1289.161	1059.575
-29.881	27.284	1287.827	1059.166
-28.867	27.211	1286.038	1057.225
-27.852	27.117	1284.934	1055.730
-26.838	27.206	1283.395	1054.939
-25.823	27.335	1281.642	1054.203
-24.809	27.226	1280.788	1052.828
-23.794	27.199	1279.213	1051.338
-22.779	27.230	1278.225	1050.660
-21.765	27.336	1276.785	1050.049
-20.750	27.237	1275.531	1048.406
-19.736	27.195	1274.210	1047.038
-18.721	27.110	1273.215	1045.688
-17.706	27.050	1272.324	1044.569
-16.692	27.113	1271.181	1043.953
-15.677	27.187	1270.139	1043.480
-14.663	27.075	1268.872	1041.756
-13.648	27.067	1267.537	1040.570
-12.633	27.063	1266.877	1039.965
-11.619	27.150	1265.839	1039.569
-10.604	27.085	1265.081	1038.532
-9.590	27.133	1263.859	1037.765
-8.575	27.051	1263.057	1036.599
-7.560	27.001	1262.242	1035.601
-6.546	27.008	1261.349	1034.865
-5.531	27.051	1260.551	1034.418
-4.517	27.101	1259.459	1033.761
-3.502	27.136	1258.754	1033.342
-2.487	27.171	1257.659	1032.604
-1.473	27.177	1253.663	1029.313
-0.458	25.799	1238.851	1009.394
0.556	24.323	1221.677	972.836
1.571	20.590	1227.804	957.121
2.586	19.466	1242.773	962.438
3.600	18.894	1230.229	949.483
4.615	14.523	1159.017	871.643
5.629	7.594	1087.467	783.681
6.644	4.586	1069.198	755.839
7.659	4.285	1066.513	752.415
8.673	4.168	1065.302	750.922
9.688	4.052	1064.305	749.593
10.702	4.600	1062.169	750.671
11.717	9.027	1068.283	776.384
12.731	16.507	1079.613	820.997
13.746	21.144	1084.554	847.245
14.761	21.985	1085.785	852.219
15.775	21.390	1083.659	847.587
16.790	20.378	1081.895	841.234
17.804	19.816	1080.207	837.128
18.819	19.435	1079.802	834.895
19.834	19.407	1079.086	834.133
20.848	19.370	1078.288	833.264
21.863	19.274	1077.170	831.862
22.877	18.984	1076.971	830.236
23.892	19.027	1075.838	829.494
24.907	18.982	1075.208	828.720
25.921	18.893	1073.992	827.280
26.936	19.091	1072.501	827.010
27.950	18.966	1071.485	825.556
28.965	19.037	1070.453	825.029
29.980	19.127	1068.602	823.960
30.994	19.355	1067.598	824.200
32.009	19.319	1066.914	823.426
33.023	19.164	1065.975	821.891
34.038	19.149	1064.812	820.851
35.053	19.143	1063.769	819.944
36.067	19.060	1062.780	818.715
37.082	19.186	1061.565	818.303
38.096	19.267	1061.769	818.775
39.111	19.226	1060.864	817.808
40.126	19.014	1059.457	815.646
41.140	18.616	1057.870	812.470
42.155	18.579	1056.419	811.109
43.169	18.643	1055.417	810.569
44.184	18.533	1054.453	809.238
45.199	18.582	1053.498	808.665
46.213	18.646	1052.665	808.255
47.228	19.023	1052.301	809.677
48.242	19.149	1051.445	809.540
49.257	19.151	1050.128	808.464
50.271	19.080	1049.292	807.417
51.286	19.108	1049.053	807.292
52.301	19.092	1047.910	806.266
53.315	19.013	1046.503	804.743
54.330	18.825	1045.282	802.853
55.344	18.743	1044.301	801.649
56.359	18.801	1043.682	801.371
57.374	18.669	1042.542	799.813
58.388	18.575	1041.978	798.870
59.403	18.601	1041.027	798.192
60.417	18.592	1040.144	797.403
61.432	18.535	1039.339	796.448
62.447	18.499	1038.310	795.422
63.461	18.442	1037.845	794.730
64.476	18.400	1036.713	793.600
65.490	18.320	1035.672	792.362
66.505	18.411	1035.112	792.283
67.520	18.549	1034.665	792.510
68.534	18.475	1034.172	791.721
69.549	18.510	1033.266	791.117
70.563	18.360	1032.397	789.692
71.578	18.137	1031.391	787.825
72.593	18.070	1030.859	787.040
73.607	18.076	1030.027	786.361
74.622	18.221	1029.173	786.309
75.636	18.191	1028.964	785.940
76.651	18.310	1027.863	785.578
77.666	18.301	1027.689	785.334
78.680	18.321	1026.846	784.711
79.695	18.368	1026.040	784.243
80.709	18.625	1025.421	784.873
81.724	18.538	1025.219	784.255
82.739	18.738	1024.305	784.397
83.753	18.972	1024.117	785.252
84.768	19.223	1022.980	785.456
85.782	19.418	1022.598	785.983
86.797	19.423	1021.242	784.892
87.812	19.098	1020.164	782.518
88.826	19.180	1019.577	782.372
89.841	19.322	1018.482	782.107
90.855	19.266	1018.068	781.464
91.870	19.465	1016.556	781.138
92.884	19.358	1015.895	780.076
93.899	19.264	1015.441	779.234
94.914	19.373	1014.473	778.913
95.928	19.446	1013.332	778.298
96.943	19.355	1012.206	776.951
97.957	19.241	1011.628	775.930
98.972	19.270	1010.798	775.354
99.987	19.186	1009.796	774.138
101.001	19.339	1008.036	773.405
102.016	19.329	1007.597	772.956
103.030	19.330	1007.313	772.673
104.045	19.324	1006.544	771.990
105.060	19.105	1005.473	770.121
106.074	18.854	1003.713	767.584
107.089	18.697	1002.609	765.969
108.103	18.412	1002.314	764.408
109.118	18.549	1000.850	763.831
110.133	18.547	999.824	762.971
111.147	18.343	999.647	761.864
112.162	18.571	998.678	762.070
113.176	18.609	998.233	761.832
114.191	18.673	997.985	761.857
115.206	18.581	997.024	760.648
116.220	18.511	996.190	759.636
117.235	18.573	994.904	758.863
118.249	18.480	994.422	758.016
119.264	18.486	993.542	757.306
120.279	18.339	992.805	756.026
121.293	18.516	991.161	755.489
122.308	18.287	990.675	754.042
123.322	18.267	989.139	752.720
124.337	18.345	988.042	752.160
125.352	18.299	987.209	751.258
126.366	18.208	986.663	750.376
127.381	18.317	985.464	749.873
128.395	18.246	984.850	749.033
129.410	18.311	983.922	748.543
130.424	18.488	983.152	748.665
131.439	18.742	982.442	749.164
132.454	18.688	981.716	748.308
133.468	18.689	981.101	747.781
134.483	18.617	980.336	746.816
135.497	18.587	979.769	746.191
136.512	18.671	978.292	745.363
137.527	18.682	977.871	745.026
138.541	18.609	977.134	744.080
139.556	18.768	976.477	744.205
140.570	18.886	976.002	744.287
141.585	19.197	974.806	744.655
142.600	19.245	974.064	744.226
143.614	19.271	973.513	743.853
144.629	19.512	972.409	743.981
145.643	19.190	971.899	742.141
146.658	19.059	970.097	740.133
147.673	18.868	969.390	738.709
148.687	18.778	968.422	737.518
149.702	18.758	967.781	736.879
150.716	18.688	966.883	735.830
151.731	18.749	966.462	735.705
152.746	18.826	965.549	735.278
153.760	18.905	964.658	734.870
154.775	18.917	964.681	734.872
155.789	19.130	963.641	734.927
156.804	19.018	962.884	733.807
157.819	19.180	962.277	733.968
158.833	19.315	961.720	734.054
159.848	19.489	960.902	734.105
160.862	19.274	959.692	732.204
161.877	18.946	958.623	729.931
162.892	18.772	957.421	728.211
163.906	18.682	956.694	727.213
164.921	18.727	955.809	726.667
165.935	18.831	955.196	726.579
166.950	18.922	954.460	726.335
167.964	18.995	953.297	725.694
168.979	18.864	952.394	724.391
169.994	18.831	951.643	723.617
171.008	18.991	951.214	723.900
172.023	19.198	950.638	724.267
173.037	19.352	949.574	724.039
174.052	19.407	948.846	723.653
175.067	18.768	948.016	720.275
176.081	18.802	947.234	719.761
177.096	18.776	946.836	719.286
178.110	18.774	946.312	718.815
179.125	18.827	945.847	718.622
180.140	18.901	945.367	718.500
181.154	19.059	945.228	718.993
182.169	19.307	944.537	719.439
183.183	19.220	944.246	718.790
184.198	19.365	942.953	718.349
185.213	19.271	942.530	717.569
186.227	19.327	941.421	716.894
187.242	19.512	941.099	717.355
188.256	19.567	940.918	717.380
189.271	19.502	939.943	716.307
190.286	19.154	938.743	713.885
191.300	18.733	937.477	711.114
192.315	18.540	936.791	709.733
193.329	18.699	936.345	709.991
194.344	18.955	936.171	710.856
195.359	19.076	935.149	710.513
196.373	18.995	935.054	710.047
197.388	19.080	934.971	710.272
198.402	19.570	934.106	711.572
199.417	19.560	933.779	711.218
200.432	19.776	932.924	711.393
201.446	19.764	933.027	711.359
202.461	19.871	932.586	711.398
203.475	19.743	931.602	710.060
204.490	19.433	930.335	707.758
205.504	19.365	929.744	706.968
206.519	19.320	928.756	705.968
207.534	19.279	928.101	705.242
208.548	19.470	927.331	705.376
209.563	19.298	926.974	704.340
210.577	19.448	926.297	704.373
211.592	19.695	926.254	705.290
212.607	19.702	925.222	704.469
213.621	19.537	924.704	703.339
214.636	19.398	924.031	702.199
215.650	19.542	923.277	702.149
216.665	19.903	921.810	702.438
217.680	19.985	921.907	702.781
218.694	19.888	921.318	701.878
219.709	19.778	920.721	700.914
220.723	19.770	919.999	700.270
221.738	19.606	919.207	698.943
222.753	19.917	918.023	699.237
223.767	19.811	918.382	699.021
224.782	19.862	917.550	698.532
225.796	19.873	917.481	698.461
226.811	19.967	916.189	697.793
227.826	19.748	915.248	696.135
228.840	19.619	914.536	695.011
229.855	19.775	913.839	695.048
230.869	19.491	913.422	693.530
231.884	19.604	912.137	692.946
232.899	19.453	911.376	691.700
233.913	19.231	911.058	690.507
234.928	19.360	910.207	690.319
235.942	19.442	909.555	690.090
236.957	19.443	908.982	689.600
237.972	19.424	908.296	688.939
238.986	19.435	907.543	688.354
240.001	19.419	907.063	687.865
241.015	19.495	906.547	687.714
242.030	19.597	906.079	687.705
243.045	19.733	905.316	687.606
244.059	19.641	905.277	687.149
245.074	19.805	904.581	687.214
246.088	19.911	903.630	686.851
247.103	19.962	903.471	686.869
248.117	20.106	902.988	687.013
249.132	20.465	902.780	688.215
250.147	20.600	902.095	688.169
251.161	20.731	901.495	688.166
252.176	20.597	900.987	687.190
253.190	20.826	900.307	687.512
254.205	20.840	899.848	687.158
255.220	20.692	898.873	685.768
256.234	20.547	898.552	684.894
257.249	20.757	897.704	685.012
258.263	20.668	896.860	683.958
259.278	20.570	896.404	683.165
260.293	20.842	895.533	683.506
261.307	20.828	895.323	683.232
262.322	20.902	894.406	682.762
263.336	20.809	894.060	682.073
264.351	20.717	893.376	681.128
265.366	20.847	892.407	680.840
266.380	20.850	891.978	680.462
267.395	20.814	890.874	679.422
268.409	20.598	890.389	678.148
269.424	20.592	889.377	677.294
270.439	20.523	888.533	676.324
271.453	20.571	887.990	676.037
272.468	20.409	887.614	675.062
273.482	20.452	887.474	675.063
274.497	20.466	886.572	674.372
275.512	20.612	886.029	674.462
276.526	20.621	885.124	673.749
277.541	20.509	885.106	673.244
278.555	20.683	884.903	673.701
279.570	20.903	884.093	673.877
280.585	20.932	883.126	673.191
281.599	20.840	881.836	671.796
282.614	20.744	881.100	670.805
283.628	20.614	880.802	670.019
284.643	20.609	880.434	669.659
285.657	20.661	879.723	669.258
286.672	20.612	878.991	668.454
287.687	20.543	878.737	667.936
288.701	20.747	877.699	667.873
289.716	20.722	877.252	667.376
290.730	20.723	876.566	666.802
291.745	20.701	876.449	666.567
292.760	20.885	875.621	666.583
293.774	21.070	874.938	666.710
294.789	20.825	874.631	665.482
295.803	20.687	873.437	663.990
296.818	20.679	872.607	663.270
297.833	20.697	871.985	662.806
298.847	20.709	871.517	662.436
299.862	20.905	871.051	662.768
300.876	20.942	870.902	662.737
301.891	21.110	870.315	662.869
302.906	21.160	869.878	662.669
303.920	21.346	869.403	662.953
304.935	21.403	868.588	662.489
305.949	21.334	867.644	661.450
306.964	21.024	867.083	659.793
307.979	21.197	866.633	660.046
308.993	21.239	866.205	659.818
310.008	21.377	865.551	659.783
311.022	21.179	865.598	659.014
312.037	20.909	864.466	657.074
313.052	20.891	863.228	656.008
314.066	20.623	863.049	654.807
315.081	20.754	862.767	655.028
316.095	20.840	861.755	654.522
317.110	20.912	861.007	654.169
318.125	20.753	860.490	653.119
319.139	20.731	860.142	652.716
320.154	20.807	860.033	652.860
321.168	20.829	859.420	652.419
322.183	21.017	858.638	652.473
323.197	20.812	858.531	651.567
324.212	20.852	858.084	651.318
325.227	20.828	857.610	650.813
326.241	20.820	856.570	649.936
327.256	20.682	855.853	648.820
328.270	20.796	855.511	648.929
329.285	20.755	854.577	648.009
330.300	20.814	854.013	647.743
331.314	20.870	853.557	647.548
332.329	20.954	853.324	647.626
333.343	21.347	852.773	648.610
334.358	21.236	852.143	647.661
335.373	21.172	852.148	647.369
336.387	21.243	851.898	647.386
337.402	21.266	851.878	647.400
338.416	21.558	851.401	648.062
339.431	21.588	851.210	647.968
340.446	21.692	850.598	647.832
341.460	21.644	850.510	647.530
342.475	21.798	850.133	647.753
343.489	21.897	849.552	647.617
344.504	21.782	849.434	647.046
345.519	22.090	848.602	647.492
346.533	21.853	847.931	646.048
347.548	21.673	847.192	644.766
348.562	21.460	846.343	643.279
349.577	21.311	845.837	642.291
350.592	21.207	844.862	641.111
351.606	21.204	844.639	640.875
352.621	21.290	843.829	640.519
353.635	21.355	843.299	640.300
354.650	21.397	842.834	640.042
355.665	21.435	842.155	639.611
356.679	21.573	841.151	639.294
357.694	21.547	840.717	638.812
358.708	21.677	840.076	638.743
359.723	21.746	839.501	638.501
360.738	21.572	838.948	637.388
361.752	21.646	838.588	637.329
362.767	21.870	837.862	637.536
363.781	21.995	837.437	637.611
364.796	22.225	837.123	638.148
365.810	22.086	837.278	637.705
366.825	22.150	836.840	637.549
367.840	22.116	836.177	636.862
368.854	22.175	835.004	636.129
369.869	21.860	834.757	634.742
370.883	22.086	834.623	635.403
371.898	22.095	834.286	635.122
372.913	22.183	833.999	635.164
373.927	21.907	833.052	633.391
374.942	22.057	832.760	633.656
375.956	22.182	832.578	633.912
376.971	22.375	831.808	633.964
377.986	22.360	831.503	633.622
379.000	22.470	830.989	633.570
380.015	22.380	830.451	632.779
381.029	22.350	830.023	632.290
382.044	22.248	829.509	631.476
383.059	22.289	829.047	631.215
384.073	22.156	828.070	629.938
385.088	22.135	826.823	628.859
386.102	22.057	826.449	628.242
387.117	21.860	826.342	627.400
388.132	21.794	825.528	626.489
389.146	22.018	824.931	626.782
390.161	22.154	824.787	627.103
391.175	22.299	824.174	627.098
392.190	22.138	823.466	625.928
393.205	22.164	823.254	625.807
394.219	21.996	822.698	624.730
395.234	21.964	822.029	624.052
396.248	21.685	821.845	622.867
397.263	21.890	820.959	622.866
398.278	21.821	820.574	622.276
399.292	21.703	820.357	621.636
400.307	21.757	819.958	621.473
401.321	21.733	819.470	620.961
402.336	21.875	818.807	620.905
403.350	22.243	818.332	621.792
404.365	22.196	818.512	621.710
405.380	22.375	818.061	621.944
406.394	22.512	817.376	621.851
407.409	22.730	817.007	622.283
408.423	22.654	817.354	622.225
409.438	22.625	816.756	621.613
410.453	22.710	816.247	621.469
411.467	22.727	815.772	621.114
412.482	22.763	815.696	621.127
413.496	23.043	814.717	621.311
414.511	22.867	814.700	620.623
415.526	22.582	814.295	619.259
416.540	22.631	813.914	619.086
417.555	22.643	813.102	618.456
418.569	22.716	812.789	618.420
419.584	22.717	812.173	617.898
420.599	22.779	811.923	617.872
421.613	163.892	1372.000	1794.044
422.628	142.776	1453.590	1794.108
