DTS Sentinel unit serial number:	SN413079Multiplexer serial number:	ORYXHardware model number:	OX4-SRSoftware version number:	ORYX F/W v4.00 Oryx Data Collector v3.7.2.0data status	okinstallation	princeton_trtdifferential loss correction	single-endedforward channel	channel 1reverse channel	N/Adate	2019/09/19time	02:10:35forward acquisition time	60.00reverse acquisition time	0.00gamma	496.2192k internal	0.2344k external	0.2344temperature offset calibration	1.0014default loss term (dB/km)	0.3790temperature slope calibration	1.0000multiplexer offset coefficient	1.0000multiplexer slope coefficient	1.0000fibre end	0.00T internal ref (°C)	21.19T ext. ref 1 (°C)	0.68T ext. ref 2 (°C)	14.79length (m)	temperature (°C)	Stokes	anti-Stokes-747.200	-103.059	-0.101	-0.024
-746.185	202.281	0.109	0.168
-745.171	-77.090	0.492	0.172
-744.156	-79.138	-0.229	-0.078
-743.142	-200.000	-0.005	-0.022
-742.127	243.887	-0.082	-0.138
-741.112	-111.114	-0.302	0.062
-740.098	-102.031	0.230	-0.056
-739.083	-92.526	-0.146	0.041
-738.069	-113.157	-0.178	-0.035
-737.054	-111.585	0.302	-0.061
-736.039	302.088	-0.183	-0.339
-735.025	-88.276	0.165	0.049
-734.010	33.532	-0.413	-0.359
-732.996	800.000	-0.096	-0.274
-731.981	732.430	-0.117	0.314
-730.966	-81.731	-0.215	0.071
-729.952	141.070	-0.217	-0.288
-728.937	-200.000	-0.036	-0.289
-727.923	-38.759	-0.363	-0.191
-726.908	-14.464	-0.088	0.057
-725.894	-19.526	0.527	-0.327
-724.879	44.515	-0.177	-0.163
-723.864	800.000	0.044	-0.170
-722.850	-114.708	-0.124	-0.024
-721.835	17.312	-0.177	0.141
-720.821	352.151	-0.047	0.093
-719.806	778.628	-0.028	0.075
-718.791	47.429	-0.207	-0.193
-717.777	-12.661	-0.056	-0.036
-716.762	42.743	0.141	-0.129
-715.748	-45.888	-0.274	-0.135
-714.733	-200.000	-0.009	-0.085
-713.718	751.073	-0.035	0.093
-712.704	-139.413	-0.175	-0.019
-711.689	159.197	-0.085	0.118
-710.675	-162.003	-0.121	0.006
-709.660	129.862	-0.105	-0.134
-708.645	-200.000	0.051	-0.365
-707.631	-200.000	0.010	0.407
-706.616	168.659	0.046	-0.066
-705.602	-69.337	-0.281	0.108
-704.587	50.541	0.095	-0.090
-703.572	58.783	-0.185	0.182
-702.558	-200.000	-0.053	-0.369
-701.543	50.327	0.288	-0.272
-700.529	158.989	0.045	0.063
-699.514	-200.000	-0.052	-0.273
-698.499	-200.000	-0.044	0.204
-697.485	117.688	-0.075	0.092
-696.470	-200.000	0.051	-0.413
-695.456	-166.293	-0.200	0.008
-694.441	-172.751	-0.456	-0.014
-693.426	120.537	0.148	-0.183
-692.412	102.446	-0.104	-0.122
-691.397	326.116	0.088	0.168
-690.383	25.915	-0.109	0.091
-689.368	136.464	0.047	0.061
-688.354	800.000	-0.036	-0.142
-687.339	-146.927	-0.207	0.018
-686.324	7.821	0.210	0.157
-685.310	-137.392	0.340	-0.038
-684.295	1.547	-0.006	0.004
-683.281	354.137	-0.018	0.036
-682.266	-1.252	0.224	0.158
-681.251	127.771	0.080	0.102
-680.237	547.216	-0.020	0.047
-679.222	-200.000	0.000	-0.210
-678.208	64.359	0.325	0.327
-677.193	-90.169	0.156	0.045
-676.178	22.634	-0.182	-0.148
-675.164	-200.000	-0.002	-0.055
-674.149	232.720	0.202	0.331
-673.135	58.022	-0.146	-0.143
-672.120	58.769	0.291	-0.286
-671.105	-98.906	0.213	-0.054
-670.091	800.000	-0.061	-0.215
-669.076	-44.072	0.141	0.070
-668.062	52.152	-0.425	0.404
-667.047	581.404	0.118	-0.289
-666.032	-22.650	0.191	0.115
-665.018	157.119	-0.032	0.044
-664.003	-109.002	-0.290	-0.062
-662.989	-200.000	-0.044	-0.289
-661.974	-50.317	-0.161	-0.076
-660.959	-147.117	-0.162	0.014
-659.945	-200.000	-0.005	-0.056
-658.930	-157.861	-0.214	-0.013
-657.916	63.700	0.077	0.078
-656.901	-200.000	0.013	0.147
-655.886	120.421	0.070	0.086
-654.872	-138.971	0.314	0.034
-653.857	286.379	0.074	0.134
-652.843	-194.055	0.106	0.001
-651.828	204.919	-0.292	-0.452
-650.814	-84.644	-0.059	0.019
-649.799	373.621	0.119	0.241
-648.784	-200.000	0.014	-0.067
-647.770	259.985	0.034	0.059
-646.755	-200.000	-0.014	-0.377
-645.741	-17.932	-0.133	-0.083
-644.726	297.991	-0.160	-0.293
-643.711	800.000	-0.062	-0.187
-642.697	-200.000	0.000	0.328
-641.682	800.000	0.080	-0.278
-640.668	6.673	0.209	0.155
-639.653	-136.455	0.314	-0.036
-638.638	424.072	0.100	0.215
-637.624	152.858	-0.143	-0.195
-636.609	800.000	0.110	-0.426
-635.595	-96.577	-0.211	0.056
-634.580	451.079	0.049	0.109
-633.565	526.408	-0.047	0.110
-632.551	69.555	-0.019	0.020
-631.536	54.985	-0.087	0.083
-630.522	-34.302	0.239	-0.131
-629.507	72.730	-0.093	-0.097
-628.492	-61.358	0.132	-0.055
-627.478	-102.176	-0.100	0.024
-626.463	-31.160	-0.200	0.112
-625.449	-115.483	-0.134	0.025
-624.434	-200.000	-0.078	-0.424
-623.419	4.265	-0.072	-0.053
-622.405	-97.245	0.228	0.059
-621.390	37.485	0.116	0.102
-620.376	-23.928	0.278	0.166
-619.361	317.737	0.072	-0.136
-618.346	-59.141	0.189	0.081
-617.332	-200.000	0.001	0.155
-616.317	149.471	-0.184	0.248
-615.303	246.890	0.096	0.162
-614.288	10.350	0.233	-0.177
-613.273	174.257	-0.116	0.166
-612.259	356.055	-0.069	0.136
-611.244	230.911	-0.069	0.112
-610.230	-63.740	0.195	0.080
-609.215	-195.694	0.309	0.002
-608.201	-77.520	0.221	0.076
-607.186	-41.831	0.013	0.007
-606.171	-69.646	-0.012	0.004
-605.157	800.000	0.122	-0.385
-604.142	18.062	-0.219	0.174
-603.128	-79.066	-0.423	0.143
-602.113	419.993	-0.151	0.322
-601.098	603.140	-0.035	0.087
-600.084	-86.448	-0.241	0.074
-599.069	30.083	0.357	-0.303
-598.055	800.000	-0.037	-0.103
-597.040	-111.817	0.336	-0.068
-596.025	762.881	-0.077	-0.208
-595.011	-164.095	0.071	-0.003
-593.996	419.602	0.063	-0.134
-592.982	-107.980	0.357	0.077
-591.967	-13.100	-0.016	-0.010
-590.952	721.170	-0.114	0.301
-589.938	-63.616	0.335	-0.137
-588.923	238.493	-0.184	-0.305
-587.909	44.139	0.185	-0.169
-586.894	-145.640	-0.320	0.028
-585.879	-200.000	-0.081	0.401
-584.865	-100.079	0.323	0.080
-583.850	9.737	0.212	0.160
-582.836	360.936	0.081	0.162
-581.821	-42.755	0.225	0.114
-580.806	-124.900	-0.130	0.020
-579.792	70.717	-0.277	0.285
-578.777	234.825	-0.097	0.160
-577.763	335.461	-0.076	-0.146
-576.748	59.548	0.046	-0.045
-575.733	800.000	0.030	0.111
-574.719	-187.591	-0.315	-0.004
-573.704	27.546	0.243	-0.203
-572.690	-96.653	-0.175	0.046
-571.675	220.894	0.128	0.205
-570.661	-200.000	0.027	0.237
-569.646	-14.237	-0.241	-0.155
-568.631	-200.000	0.059	-0.280
-567.617	240.050	0.080	0.132
-566.602	800.000	0.060	0.188
-565.588	-200.000	-0.007	-0.304
-564.573	-200.000	0.246	0.000
-563.558	800.000	0.021	-0.078
-562.544	-178.052	0.101	-0.002
-561.529	-71.935	0.118	0.044
-560.515	430.708	-0.191	-0.412
-559.500	612.776	-0.088	-0.219
-558.485	128.756	0.203	-0.257
-557.471	-44.794	-0.120	-0.060
-556.456	-200.000	0.031	-0.215
-555.442	-87.194	-0.104	0.031
-554.427	800.000	-0.055	-0.184
-553.412	-130.343	-0.156	0.021
-552.398	-108.615	-0.286	0.061
-551.383	-85.583	-0.194	-0.060
-550.369	-60.415	-0.245	-0.103
-549.354	501.027	-0.102	0.235
-548.339	-200.000	0.027	0.134
-547.325	-105.726	0.293	0.066
-546.310	144.321	-0.185	0.245
-545.296	225.266	-0.178	0.286
-544.281	458.254	-0.132	0.292
-543.266	460.768	-0.150	-0.332
-542.252	396.005	0.084	0.173
-541.237	-55.522	0.219	0.098
-540.223	-23.992	0.209	-0.124
-539.208	-200.000	-0.074	0.369
-538.193	-39.910	0.223	0.116
-537.179	-68.828	-0.220	0.084
-536.164	-63.302	0.317	-0.130
-535.150	-200.000	0.067	-0.325
-534.135	412.180	-0.080	-0.168
-533.121	264.192	0.050	-0.086
-532.106	-76.923	-0.212	0.074
-531.091	-200.000	0.002	-0.335
-530.077	-134.166	0.273	0.033
-529.062	-71.967	-0.130	-0.048
-528.048	-200.000	0.016	0.338
-527.033	126.112	-0.136	-0.171
-526.018	82.192	0.144	-0.155
-525.004	185.431	-0.249	-0.367
-523.989	20.014	-0.092	-0.074
-522.975	-97.095	0.035	0.009
-521.960	-200.000	0.038	0.239
-520.945	800.000	0.079	0.227
-519.931	406.732	-0.045	0.095
-518.916	-111.495	0.177	-0.036
-517.902	800.000	-0.041	0.130
-516.887	800.000	0.036	-0.146
-515.872	2.106	-0.227	0.162
-514.858	-137.504	0.456	-0.051
-513.843	-67.188	-0.130	0.051
-512.829	174.093	0.185	0.264
-511.814	-200.000	0.014	0.107
-510.799	488.407	0.061	0.138
-509.785	-92.204	0.264	0.074
-508.770	-200.000	0.012	0.199
-507.756	-134.558	-0.227	0.027
-506.741	-200.000	-0.003	0.208
-505.726	-77.112	-0.205	0.071
-504.712	18.892	-0.348	0.276
-503.697	800.000	0.034	0.138
-502.683	-171.293	0.298	0.010
-501.668	-200.000	0.018	0.249
-500.653	369.487	0.125	0.251
-499.639	129.162	0.124	-0.156
-498.624	-200.000	0.031	-0.547
-497.610	800.000	0.052	-0.153
-496.595	375.135	-0.194	-0.392
-495.581	800.000	-0.067	-0.220
-494.566	-52.688	-0.054	-0.025
-493.551	208.674	-0.069	0.107
-492.537	-95.318	-0.282	0.075
-491.522	-86.944	0.239	-0.072
-490.508	-158.890	0.215	0.012
-489.493	723.942	0.048	-0.127
-488.478	287.582	-0.043	0.077
-487.464	-59.007	0.152	0.065
-486.449	330.359	-0.122	-0.233
-485.435	-141.337	-0.214	0.022
-484.420	-200.000	0.028	-0.218
-483.405	219.932	-0.158	-0.250
-482.391	800.000	0.036	0.154
-481.376	96.211	0.045	0.051
-480.362	-150.977	-0.104	-0.008
-479.347	-6.522	0.126	-0.085
-478.332	-200.000	-0.015	-0.276
-477.318	-133.768	-0.310	-0.038
-476.303	800.000	0.042	-0.139
-475.289	800.000	0.076	-0.273
-474.274	51.268	-0.228	-0.215
-473.259	-32.680	0.138	0.076
-472.245	-34.875	0.386	-0.209
-471.230	-200.000	0.026	-0.211
-470.216	93.464	0.158	0.177
-469.201	-113.701	0.279	-0.054
-468.186	751.449	-0.041	0.108
-467.172	-148.101	-0.167	-0.014
-466.157	172.917	-0.114	0.163
-465.143	-200.000	-0.035	-0.174
-464.128	639.268	-0.100	-0.251
-463.113	127.852	-0.117	-0.148
-462.099	198.940	-0.139	-0.210
-461.084	114.262	-0.150	0.181
-460.070	-17.308	-0.114	0.071
-459.055	-140.203	0.332	0.034
-458.040	-200.000	0.038	-0.324
-457.026	-54.172	-0.269	-0.121
-456.011	46.430	-0.114	-0.105
-454.997	-23.482	-0.284	-0.169
-453.982	119.406	-0.245	0.299
-452.968	-137.337	0.186	-0.021
-451.953	-200.000	0.040	0.272
-450.938	-161.242	0.580	-0.030
-449.924	25.583	-0.056	-0.046
-448.909	-99.316	0.203	0.051
-447.895	-200.000	-0.012	0.260
-446.880	800.000	0.031	-0.118
-445.865	-146.989	0.282	-0.024
-444.851	63.068	-0.094	-0.094
-443.836	35.360	-0.200	0.174
-442.822	-170.031	-0.017	0.001
-441.807	-75.174	-0.116	-0.041
-440.792	-69.667	-0.278	-0.105
-439.778	-4.441	-0.151	0.103
-438.763	-200.000	0.073	0.359
-437.749	86.067	0.232	-0.253
-436.734	2.488	-0.213	-0.152
-435.719	800.000	0.014	-0.054
-434.705	-200.000	0.032	-0.178
-433.690	-11.503	0.138	-0.090
-432.676	-200.000	0.018	-0.276
-431.661	-92.026	0.546	-0.153
-430.646	13.116	-0.187	0.143
-429.632	-28.904	0.204	-0.116
-428.617	-125.956	-0.232	0.035
-427.603	480.573	-0.161	-0.362
-426.588	-200.000	-0.008	0.119
-425.573	-88.531	-0.381	0.112
-424.559	405.612	-0.074	-0.154
-423.544	-98.105	-0.120	0.031
-422.530	-53.811	0.082	0.037
-421.515	298.001	-0.076	-0.138
-420.500	485.500	-0.134	-0.302
-419.486	-200.000	-0.025	0.251
-418.471	-200.000	0.042	-0.568
-417.457	-43.127	-0.199	-0.100
-416.442	-200.000	-0.019	0.121
-415.428	-81.422	0.312	-0.102
-414.413	-59.314	0.178	0.076
-413.398	78.889	-0.340	0.360
-412.384	-92.740	-0.278	-0.077
-411.369	-115.075	0.229	0.043
-410.355	-181.331	-0.183	0.004
-409.340	-26.327	-0.050	0.029
-408.325	420.912	0.206	0.436
-407.311	-200.000	0.011	-0.110
-406.296	-200.000	-0.001	-0.023
-405.282	-200.000	-0.007	-0.074
-404.267	-200.000	-0.004	-0.277
-403.252	638.567	0.105	-0.265
-402.238	22.310	0.094	0.076
-401.223	-200.000	0.033	0.158
-400.209	-200.000	-0.001	-0.487
-399.194	52.697	-0.148	-0.140
-398.179	202.390	-0.203	-0.310
-397.165	53.309	-0.042	-0.040
-396.150	-27.857	0.076	0.043
-395.136	-88.491	-0.144	0.042
-394.121	163.296	-0.090	0.125
-393.106	-52.939	-0.270	-0.123
-392.092	267.603	-0.026	0.045
-391.077	-6.456	0.162	-0.109
-390.063	800.000	0.081	0.272
-389.048	217.011	-0.111	-0.175
-388.033	-21.931	0.036	-0.022
-387.019	146.045	0.081	0.108
-386.004	-145.068	0.213	0.019
-384.990	117.613	0.126	-0.153
-383.975	29.365	0.335	-0.281
-382.960	-172.543	0.228	0.007
-381.946	-45.979	0.438	-0.213
-380.931	625.141	-0.092	0.230
-379.917	800.000	-0.025	-0.081
-378.902	318.847	-0.095	-0.178
-377.888	131.800	0.133	0.169
-376.873	188.084	-0.166	-0.245
-375.858	627.297	0.111	-0.278
-374.844	-200.000	0.004	0.030
-373.829	16.126	0.109	0.085
-372.815	396.332	-0.152	-0.314
-371.800	215.316	-0.136	-0.213
-370.785	-181.958	0.231	-0.004
-369.771	-170.611	0.100	0.003
-368.756	141.725	-0.246	-0.321
-367.742	-200.000	-0.012	-0.155
-366.727	40.757	0.145	-0.129
-365.712	-200.000	0.011	0.051
-364.698	72.678	0.063	0.065
-363.683	-96.991	-0.165	-0.043
-362.669	-72.978	0.070	0.026
-361.654	-35.291	-0.314	-0.169
-360.639	260.709	0.044	-0.076
-359.625	800.000	0.036	-0.153
-358.610	-88.749	0.220	0.065
-357.596	120.068	-0.067	0.081
-356.581	-146.346	-0.122	-0.011
-355.566	800.000	0.083	-0.236
-354.552	-119.477	0.209	0.036
-353.537	-114.943	0.414	0.078
-352.523	77.426	-0.151	0.158
-351.508	20.605	-0.112	-0.089
-350.493	-6.144	-0.118	0.079
-349.479	29.970	-0.110	0.093
-348.464	-180.571	0.228	-0.005
-347.450	-44.576	-0.218	0.107
-346.435	78.353	-0.079	-0.083
-345.420	186.743	-0.062	0.090
-344.406	-200.000	-0.024	0.316
-343.391	-58.720	0.166	0.071
-342.377	-200.000	-0.023	0.227
-341.362	-1.408	-0.226	-0.157
-340.348	-165.166	-0.031	-0.001
-339.333	-134.425	0.090	-0.011
-338.318	132.441	-0.027	0.034
-337.304	-200.000	-0.083	0.389
-336.289	-200.000	-0.065	-0.356
-335.275	-128.217	-0.362	-0.051
-334.260	-21.190	0.137	-0.083
-333.245	800.000	-0.120	-0.365
-332.231	34.269	0.180	-0.155
-331.216	800.000	0.026	-0.077
-330.202	61.978	-0.139	-0.137
-329.187	-81.464	0.321	-0.104
-328.172	342.637	0.213	0.410
-327.158	-200.000	0.010	0.100
-326.143	800.000	0.021	0.082
-325.129	248.488	-0.090	0.150
-324.114	-58.537	0.334	0.143
-323.099	-48.474	0.210	-0.100
-322.085	-98.295	-0.059	-0.015
-321.070	-10.675	-0.209	0.136
-320.056	255.020	0.075	0.127
-319.041	721.006	-0.170	-0.445
-318.026	-65.408	0.075	0.030
-317.012	439.338	0.044	0.094
-315.997	120.479	0.119	0.145
-314.983	44.707	-0.114	0.103
-313.968	-29.454	0.360	-0.203
-312.953	-131.958	0.238	0.031
-311.939	-196.970	0.073	-0.000
-310.924	-53.277	0.279	0.126
-309.910	-200.000	-0.021	0.123
-308.895	-16.852	-0.200	0.125
-307.880	58.962	0.108	0.105
-306.866	-200.000	-0.057	0.299
-305.851	92.386	-0.172	0.191
-304.837	374.981	0.125	0.250
-303.822	-200.000	0.012	0.091
-302.807	-20.400	0.202	-0.122
-301.793	131.822	0.056	0.071
-300.778	800.000	0.015	0.044
-299.764	-200.000	-0.002	0.319
-298.749	-12.530	-0.198	-0.127
-297.735	7.038	0.167	-0.122
-296.720	-29.642	0.310	0.174
-295.705	-200.000	-0.078	0.356
-294.691	413.598	0.110	0.229
-293.676	-89.169	-0.199	-0.058
-292.662	275.094	-0.219	0.381
-291.647	18.273	-0.319	0.251
-290.632	-135.965	0.216	-0.025
-289.618	-134.969	-0.219	0.026
-288.603	119.179	-0.250	0.304
-287.589	-75.636	-0.304	-0.106
-286.574	-79.864	0.143	-0.047
-285.559	-200.000	-0.003	0.393
-284.545	29.965	-0.044	0.037
-283.530	-38.916	0.089	0.046
-282.516	452.616	-0.107	0.232
-281.501	378.352	-0.235	0.473
-280.486	-27.599	-0.229	0.130
-279.472	501.165	-0.039	0.088
-278.457	173.079	0.133	-0.188
-277.443	7.170	0.020	0.015
-276.428	633.799	-0.142	-0.355
-275.413	-105.121	-0.246	0.055
-274.399	-107.936	-0.251	0.054
-273.384	204.163	-0.053	-0.081
-272.370	231.239	-0.128	0.206
-271.355	328.674	-0.065	0.122
-270.340	82.910	0.400	0.427
-269.326	-200.000	-0.045	-0.212
-268.311	-122.826	-0.217	-0.034
-267.297	-3.900	-0.292	0.199
-266.282	341.012	-0.040	0.077
-265.267	-105.096	0.218	-0.049
-264.253	-122.555	-0.397	-0.063
-263.238	-158.929	0.303	0.017
-262.224	464.238	0.091	-0.200
-261.209	800.000	-0.049	-0.206
-260.195	-53.995	-0.074	0.033
-259.180	-200.000	0.006	-0.077
-258.165	657.643	0.068	0.172
-257.151	31.474	0.475	-0.401
-256.136	-76.690	-0.183	0.063
-255.122	46.705	-0.186	-0.169
-254.107	-12.022	-0.334	0.215
-253.092	190.695	-0.051	0.075
-252.078	-148.176	-0.066	-0.005
-251.063	-61.475	-0.187	0.077
-250.049	-77.668	0.085	-0.029
-249.034	506.443	-0.080	0.181
-248.019	22.464	0.051	0.041
-247.005	-97.090	0.291	-0.075
-245.990	5.859	0.124	0.090
-244.976	463.427	-0.147	-0.322
-243.961	-27.639	0.091	-0.052
-242.946	-94.968	0.158	0.042
-241.932	196.237	-0.011	0.016
-240.917	-61.816	-0.106	-0.044
-239.903	-67.527	0.075	-0.029
-238.888	-200.000	0.000	-0.072
-237.873	-88.770	-0.240	0.070
-236.859	498.173	-0.173	0.392
-235.844	-54.217	0.183	0.082
-234.830	56.422	0.118	0.112
-233.815	-13.207	-0.141	-0.090
-232.800	284.587	0.181	0.320
-231.786	-65.928	-0.126	0.050
-230.771	787.941	-0.007	-0.020
-229.757	-13.379	0.114	0.073
-228.742	-147.668	-0.063	-0.005
-227.727	-90.195	0.065	0.019
-226.713	215.427	-0.060	-0.094
-225.698	-105.007	0.102	-0.023
-224.684	800.000	0.020	0.057
-223.669	124.877	0.088	0.109
-222.655	800.000	0.141	0.430
-221.640	-142.997	-0.050	0.005
-220.625	22.840	-0.147	0.118
-219.611	800.000	0.027	0.080
-218.596	120.953	-0.056	-0.068
-217.582	-200.000	0.007	-0.190
-216.567	9.750	0.063	0.047
-215.552	-78.580	0.076	-0.026
-214.538	-45.590	0.027	-0.013
-213.523	717.684	-0.127	-0.331
-212.509	-121.902	-0.303	-0.049
-211.494	-191.355	-0.402	0.004
-210.479	-200.000	0.026	0.326
-209.465	800.000	0.014	0.056
-208.450	56.594	0.117	0.112
-207.436	50.968	0.140	-0.130
-206.421	-74.695	-0.097	0.034
-205.406	-107.011	0.191	-0.041
-204.392	-141.138	-0.154	-0.015
-203.377	318.465	-0.130	-0.240
-202.363	-200.000	0.014	0.270
-201.348	-200.000	-0.006	0.408
-200.333	35.955	0.126	-0.109
-199.319	-109.319	0.232	0.048
-198.304	-54.974	0.113	-0.050
-197.290	-50.748	-0.192	0.089
-196.275	-68.925	-0.167	-0.063
-195.260	109.571	-0.074	0.087
-194.246	23.827	-0.254	0.205
-193.231	43.656	0.200	0.179
-192.217	-200.000	0.051	-0.283
-191.202	-132.342	-0.196	0.025
-190.187	-6.039	0.452	-0.303
-189.173	-42.335	0.083	0.042
-188.158	254.004	0.053	0.089
-187.144	-200.000	-0.010	0.258
-186.129	121.548	0.018	-0.022
-185.114	105.082	-0.214	0.247
-184.100	97.651	-0.110	-0.124
-183.085	166.759	0.058	-0.081
-182.071	420.283	-0.075	0.157
-181.056	-200.000	-0.001	0.040
-180.042	-17.983	0.162	0.099
-179.027	170.448	-0.089	0.124
-178.012	459.955	-0.047	-0.103
-176.998	-200.000	-0.003	-0.133
-175.983	-200.000	-0.033	0.419
-174.969	257.994	0.026	-0.045
-173.954	503.045	-0.097	-0.219
-172.939	43.545	0.161	0.144
-171.925	-200.000	0.027	-0.122
-170.910	-200.000	0.021	-0.347
-169.896	-21.662	-0.213	0.127
-168.881	-139.586	0.296	0.031
-167.866	-200.000	0.022	-0.332
-166.852	21.013	0.194	-0.154
-165.837	174.408	-0.283	-0.400
-164.823	228.728	0.079	-0.126
-163.808	-106.473	0.247	-0.054
-162.793	-28.459	-0.203	-0.114
-161.779	2.967	-0.156	-0.111
-160.764	77.530	0.223	0.232
-159.750	410.661	-0.106	0.219
-158.735	151.697	0.141	0.188
-157.720	12.580	0.288	0.217
-156.706	358.187	0.082	0.161
-155.691	716.775	0.070	-0.182
-154.677	-200.000	-0.057	-0.318
-153.662	-41.534	-0.374	-0.188
-152.647	46.608	0.090	0.082
-151.633	38.508	-0.065	-0.057
-150.618	213.603	0.095	0.147
-149.604	15.800	-0.195	-0.150
-148.589	168.737	-0.145	0.202
-147.574	-200.000	0.009	-0.106
-146.560	94.345	-0.202	0.224
-145.545	-71.138	-0.158	0.058
-144.531	-56.788	-0.162	-0.070
-143.516	53.202	0.181	0.170
-142.502	-200.000	-0.022	0.204
-141.487	800.000	-0.078	0.321
-140.472	-200.000	0.050	0.280
-139.458	800.000	0.043	-0.172
-138.443	-184.089	0.447	-0.007
-137.429	-65.408	-0.135	-0.053
-136.414	167.326	-0.051	-0.071
-135.399	-136.674	0.425	0.048
-134.385	-200.000	-0.035	0.191
-133.370	-31.992	0.116	0.063
-132.356	285.756	-0.050	0.089
-131.341	-67.333	0.027	-0.010
-130.326	39.789	-0.159	-0.139
-129.312	800.000	0.123	0.362
-128.297	-200.000	-0.017	0.242
-127.283	375.439	0.072	-0.143
-126.268	-39.404	-0.048	0.025
-125.253	-15.673	-0.216	0.134
-124.239	658.957	0.170	0.428
-123.224	100.591	0.249	0.282
-122.210	-131.249	-0.253	-0.033
-121.195	800.000	-0.032	-0.118
-120.180	458.072	0.132	-0.286
-119.166	-104.930	0.184	-0.041
-118.151	106.559	-0.111	0.128
-117.137	396.196	-0.154	-0.314
-116.122	-19.719	-0.251	0.152
-115.107	-77.332	-0.107	0.036
-114.093	194.284	-0.140	0.207
-113.078	24.598	0.245	0.198
-112.064	800.000	0.011	-0.043
-111.049	800.000	0.106	-0.353
-110.034	-200.000	0.011	-0.148
-109.020	44.526	-0.273	0.245
-108.005	239.513	-0.187	0.303
-106.991	59.033	0.114	-0.109
-105.976	34.464	0.120	0.102
-104.962	-117.650	0.254	0.045
-103.947	-6.148	-0.080	-0.053
-102.932	-89.137	0.150	-0.043
-101.918	753.440	0.066	-0.175
-100.903	800.000	0.070	0.208
-99.889	-200.000	0.007	0.407
-98.874	9.304	0.359	0.265
-97.859	-115.546	0.146	-0.027
-96.845	-200.000	-0.004	-0.106
-95.830	-92.605	0.294	-0.080
-94.816	-136.815	0.251	-0.028
-93.801	-64.748	-0.435	-0.172
-92.786	-37.785	0.589	0.306
-91.772	-138.875	-0.190	0.020
-90.757	-87.904	0.131	0.039
-89.743	-65.473	-0.271	0.106
-88.728	-74.040	0.170	-0.060
-87.713	-200.000	-0.025	0.214
-86.699	-200.000	0.032	-0.170
-85.684	83.825	-0.212	-0.226
-84.670	-200.000	-0.013	0.461
-83.655	-200.000	0.029	0.290
-82.640	122.178	0.054	-0.065
-81.626	413.490	-0.106	-0.220
-80.611	59.325	0.133	-0.128
-79.597	-200.000	0.063	0.308
-78.582	-110.999	0.190	0.038
-77.567	-5.427	-0.323	0.216
-76.553	315.412	-0.170	0.313
-75.538	-200.000	0.001	-0.173
-74.524	313.895	0.154	0.283
-73.509	800.000	-0.046	-0.196
-72.494	-200.000	0.009	-0.127
-71.480	-15.458	0.122	-0.076
-70.465	509.652	-0.041	-0.093
-69.451	117.600	-0.095	-0.114
-68.436	-120.828	0.289	0.047
-67.422	219.350	-0.161	-0.250
-66.407	-92.943	0.059	0.016
-65.392	-173.491	-0.217	0.006
-64.378	-139.331	0.422	0.044
-63.363	-68.000	0.244	0.093
-62.349	-17.933	-0.062	0.038
-61.334	44.030	-1.342	-1.199
-60.319	298.009	0.680	1.218
-59.305	330.350	-0.729	-1.369
-58.290	328.051	0.710	1.328
-57.276	800.000	0.573	1.696
-56.261	-200.000	135.219	682.206
-55.246	336.663	1678.859	3176.165
-54.232	133.972	2804.481	3538.194
-53.217	87.985	2170.581	2344.667
-52.203	32.352	1600.655	1346.224
-51.188	24.306	1349.389	1086.073
-50.173	22.241	1312.313	1043.945
-49.159	49.777	1386.489	1272.766
-48.144	46.267	1395.250	1259.309
-47.130	24.616	1342.541	1082.266
-46.115	21.332	1323.718	1047.402
-45.100	21.178	1318.211	1042.082
-44.086	21.076	1315.704	1039.451
-43.071	21.016	1313.459	1037.282
-42.057	21.002	1311.257	1035.419
-41.042	21.055	1310.058	1034.747
-40.027	20.999	1308.765	1033.350
-39.013	21.033	1306.724	1031.897
-37.998	21.083	1304.927	1030.734
-36.984	21.287	1302.881	1030.283
-35.969	21.155	1301.325	1028.231
-34.954	21.217	1299.582	1027.180
-33.940	21.111	1298.425	1025.597
-32.925	21.167	1297.336	1025.030
-31.911	21.309	1295.164	1024.105
-30.896	21.289	1293.626	1022.729
-29.881	21.343	1292.509	1022.119
-28.867	21.325	1290.986	1020.772
-27.852	21.332	1290.227	1020.173
-26.838	21.367	1288.263	1018.783
-25.823	21.287	1287.267	1017.486
-24.809	21.232	1286.346	1016.401
-23.794	21.339	1284.471	1015.498
-22.779	21.349	1283.127	1014.456
-21.765	21.284	1282.029	1013.171
-20.750	21.196	1280.681	1011.553
-19.736	21.243	1279.241	1010.651
-18.721	21.238	1278.312	1009.847
-17.706	21.149	1277.160	1008.383
-16.692	21.179	1276.145	1007.711
-15.677	21.089	1275.252	1006.452
-14.663	21.077	1273.871	1005.250
-13.648	21.146	1272.967	1004.894
-12.633	21.055	1271.913	1003.500
-11.619	21.041	1271.284	1002.880
-10.604	21.125	1270.625	1002.803
-9.590	21.039	1269.896	1001.699
-8.575	21.148	1268.458	1001.150
-7.560	21.058	1267.742	1000.027
-6.546	21.172	1266.561	999.711
-5.531	21.117	1266.204	999.070
-4.517	21.070	1265.429	998.150
-3.502	21.215	1264.295	998.047
-2.487	21.262	1263.295	997.484
-1.473	21.056	1259.276	993.101
-0.458	19.426	1243.354	971.335
0.556	14.962	1228.549	935.007
1.571	11.360	1237.284	921.260
2.586	10.746	1253.788	929.955
3.600	10.870	1240.525	920.739
4.615	8.060	1169.310	852.783
5.629	3.061	1099.567	776.644
6.644	0.732	1083.899	753.903
7.659	0.616	1081.873	751.852
8.673	0.676	1080.852	751.374
9.688	0.686	1079.428	750.369
10.702	0.686	1077.677	749.082
11.717	3.771	1080.392	766.215
12.731	10.087	1089.140	803.839
13.746	15.504	1095.753	835.678
14.761	17.150	1097.813	845.374
15.775	16.435	1096.316	840.593
16.790	15.477	1094.463	834.340
17.804	14.742	1092.392	829.037
18.819	14.533	1091.162	826.995
19.834	14.231	1090.569	824.975
20.848	13.952	1089.650	822.827
21.863	13.873	1088.463	821.468
22.877	13.795	1087.625	820.374
23.892	13.552	1087.312	818.864
24.907	13.688	1086.681	818.992
25.921	13.537	1086.093	817.727
26.936	13.683	1085.154	817.671
27.950	13.737	1083.803	816.844
28.965	13.855	1082.494	816.369
29.980	13.781	1081.552	815.223
30.994	13.817	1080.682	814.671
32.009	13.847	1079.618	813.945
33.023	13.850	1078.430	812.988
34.038	13.728	1077.722	811.786
35.053	13.719	1077.058	811.171
36.067	13.829	1075.785	810.679
37.082	13.650	1075.719	809.683
38.096	13.812	1074.498	809.480
39.111	13.767	1073.665	808.565
40.126	13.709	1072.366	807.232
41.140	13.734	1070.875	806.161
42.155	13.578	1070.305	804.902
43.169	13.508	1069.391	803.804
44.184	13.533	1068.293	803.029
45.199	13.599	1067.130	802.404
46.213	13.779	1065.902	802.277
47.228	13.800	1064.807	801.484
48.242	13.789	1064.085	800.816
49.257	13.745	1062.807	799.573
50.271	13.823	1061.664	799.018
51.286	13.800	1060.808	798.189
52.301	13.812	1059.712	797.353
53.315	13.703	1058.967	796.197
54.330	13.702	1058.010	795.406
55.344	13.625	1057.238	794.384
56.359	13.740	1055.965	793.909
57.374	13.604	1055.613	792.923
58.388	13.524	1054.802	791.860
59.403	13.650	1053.462	791.385
60.417	13.647	1052.997	790.950
61.432	13.679	1051.965	790.259
62.447	13.530	1051.634	789.231
63.461	13.636	1050.200	788.590
64.476	13.632	1049.325	787.842
65.490	13.625	1048.682	787.258
66.505	13.636	1048.106	786.808
67.520	13.474	1047.897	785.813
68.534	13.650	1046.199	785.307
69.549	13.627	1046.015	784.989
70.563	13.605	1045.026	784.075
71.578	13.657	1043.837	783.356
72.593	13.417	1043.500	781.900
73.607	13.594	1042.653	782.031
74.622	13.605	1041.925	781.468
75.636	13.397	1041.678	780.236
76.651	13.646	1040.255	780.269
77.666	13.560	1040.036	779.633
78.680	13.639	1039.099	779.233
79.695	13.531	1038.695	778.352
80.709	13.533	1038.090	777.842
81.724	13.515	1037.537	777.274
82.739	13.697	1036.450	777.243
83.753	13.780	1035.356	776.744
84.768	13.860	1034.276	776.240
85.782	13.943	1033.719	776.138
86.797	13.784	1032.962	774.759
87.812	13.836	1031.759	774.030
88.826	13.715	1030.821	772.693
89.841	13.777	1029.737	772.103
90.855	13.709	1028.939	771.118
91.870	13.833	1027.951	770.885
92.884	13.757	1027.327	769.998
93.899	13.918	1026.344	769.939
94.914	13.878	1025.725	769.222
95.928	13.775	1025.082	768.196
96.943	13.794	1024.014	767.416
97.957	13.865	1023.733	767.463
98.972	13.804	1022.319	766.053
99.987	13.809	1021.476	765.380
101.001	13.772	1020.238	764.213
102.016	13.815	1019.828	764.034
103.030	13.793	1018.954	763.214
104.045	13.818	1018.279	762.754
105.060	13.768	1017.251	761.686
106.074	13.815	1015.834	760.775
107.089	13.749	1015.143	759.886
108.103	13.664	1014.512	758.960
109.118	13.687	1013.196	758.012
110.133	13.732	1012.504	757.635
111.147	13.714	1011.737	756.910
112.162	13.648	1011.039	756.020
113.176	13.789	1010.104	755.894
114.191	13.740	1009.176	754.913
115.206	13.780	1008.413	754.458
116.220	13.803	1007.592	753.878
117.235	13.690	1006.757	752.674
118.249	13.815	1005.764	752.432
119.264	13.682	1004.974	751.172
120.279	13.854	1004.032	751.183
121.293	13.723	1003.216	749.911
122.308	13.717	1002.411	749.219
123.322	13.731	1001.565	748.580
124.337	13.615	1000.487	747.188
125.352	13.615	999.554	746.421
126.366	13.809	997.741	745.873
127.381	13.752	997.332	745.245
128.395	13.756	996.203	744.356
129.410	13.659	995.659	743.448
130.424	13.688	994.771	742.848
131.439	13.796	993.893	742.611
132.454	13.654	993.507	741.622
133.468	13.815	991.887	741.067
134.483	13.724	991.248	740.118
135.497	13.800	990.252	739.646
136.512	13.709	989.591	738.683
137.527	13.852	988.609	738.520
138.541	13.764	988.062	737.656
139.556	13.742	987.559	737.117
140.570	13.854	986.557	736.800
141.585	14.014	985.404	736.583
142.600	13.717	985.053	734.941
143.614	14.128	983.343	735.415
144.629	14.129	982.621	734.815
145.643	13.984	982.006	733.649
146.658	13.953	980.990	732.692
147.673	13.921	980.261	731.941
148.687	13.973	979.471	731.515
149.702	14.012	978.160	730.644
150.716	13.929	977.477	729.701
151.731	14.044	976.537	729.443
152.746	13.821	976.158	728.115
153.760	14.075	975.359	728.567
154.775	14.053	974.739	727.944
155.789	13.980	974.171	727.137
156.804	14.027	973.186	726.541
157.819	14.140	972.680	726.595
158.833	14.092	972.481	726.172
159.848	14.172	971.390	725.640
160.862	14.180	969.989	724.563
161.877	14.118	969.148	723.605
162.892	14.099	968.402	722.900
163.906	13.891	967.648	721.369
164.921	14.090	966.229	721.111
165.935	14.010	965.367	720.057
166.950	13.954	964.890	719.394
167.964	14.115	963.873	719.269
168.979	13.987	963.097	718.074
169.994	14.160	961.672	717.694
171.008	14.219	961.448	717.717
172.023	14.160	960.852	716.956
173.037	14.327	960.151	717.089
174.052	14.067	959.454	715.386
175.067	14.083	958.996	715.047
176.081	14.276	958.010	715.078
177.096	14.187	957.533	714.279
178.110	14.266	956.708	713.938
179.125	14.207	956.484	713.455
180.140	14.207	956.075	713.088
181.154	14.299	955.309	712.847
182.169	14.374	954.819	712.740
183.183	14.271	954.541	712.028
184.198	14.486	953.058	711.775
185.213	14.350	952.479	710.700
186.227	14.399	951.966	710.464
187.242	14.430	951.499	710.185
188.256	14.468	950.827	709.784
189.271	14.240	949.841	708.012
190.286	14.339	948.830	707.618
191.300	14.237	948.344	706.759
192.315	14.225	947.473	705.997
193.329	14.234	947.194	705.766
194.344	14.446	946.306	705.937
195.359	14.352	945.809	705.108
196.373	14.517	944.654	704.882
197.388	14.496	944.938	704.942
198.402	14.498	944.574	704.618
199.417	14.581	943.655	704.220
200.432	14.562	943.037	703.614
201.446	14.670	942.208	703.391
202.461	14.551	941.955	702.636
203.475	14.575	941.906	702.638
204.490	14.495	940.636	701.293
205.504	14.470	939.819	700.516
206.519	14.583	938.583	700.007
207.534	14.605	938.404	699.905
208.548	14.662	937.386	699.324
209.563	14.630	936.766	698.664
210.577	14.698	936.332	698.564
211.592	14.839	935.393	698.391
212.607	14.823	934.625	697.688
213.621	14.645	934.240	696.597
214.636	14.751	933.403	696.352
215.650	14.809	932.548	695.893
216.665	14.878	931.889	695.630
217.680	14.952	931.054	695.251
218.694	14.926	930.821	694.908
219.709	14.814	929.837	693.646
220.723	14.834	929.575	693.473
221.738	14.885	928.276	692.654
222.753	14.896	928.133	692.530
223.767	14.986	927.143	692.104
224.782	14.919	926.788	691.502
225.796	15.031	925.999	691.314
226.811	14.958	925.349	690.465
227.826	15.028	924.937	690.386
228.840	14.973	923.801	689.252
229.855	14.925	923.015	688.407
230.869	14.994	922.290	688.089
231.884	14.794	922.005	686.991
232.899	14.990	920.823	686.855
233.913	14.980	920.516	686.525
234.928	15.051	919.519	686.012
235.942	14.961	919.264	685.392
236.957	14.916	918.395	684.497
237.972	14.964	917.980	684.325
238.986	15.030	917.322	684.045
240.001	14.986	916.735	683.366
241.015	15.042	916.190	683.127
242.030	15.076	915.211	682.477
243.045	15.176	914.536	682.321
244.059	15.202	913.941	681.920
245.074	15.196	913.081	681.196
246.088	15.241	912.457	680.851
247.103	15.219	911.522	680.005
248.117	15.196	911.791	680.052
249.132	15.176	911.408	679.623
250.147	15.231	910.263	678.931
251.161	15.360	909.575	678.882
252.176	15.291	908.854	678.005
253.190	15.495	908.150	678.243
254.205	15.481	907.554	677.682
255.220	15.465	906.687	676.912
256.234	15.420	906.299	676.378
257.249	15.514	905.507	676.107
258.263	15.498	905.035	675.628
259.278	15.564	904.016	675.075
260.293	15.579	903.266	674.514
261.307	15.491	903.062	673.949
262.322	15.607	902.420	673.878
263.336	15.543	901.581	672.933
264.351	15.702	900.900	673.004
265.366	15.700	900.448	672.598
266.380	15.691	899.807	672.024
267.395	15.585	899.168	671.064
268.409	15.775	898.196	671.037
269.424	15.618	897.618	669.920
270.439	15.636	896.844	669.353
271.453	15.673	896.221	668.978
272.468	15.664	895.943	668.674
273.482	15.685	895.155	668.110
274.497	15.689	894.542	667.610
275.512	15.727	894.107	667.378
276.526	15.720	893.914	667.146
277.541	15.788	892.903	666.603
278.555	15.759	892.628	666.222
279.570	16.004	891.330	666.164
280.585	15.865	890.937	665.263
281.599	15.925	889.970	664.720
282.614	15.870	889.380	664.003
283.628	16.059	888.565	664.079
284.643	15.971	887.924	663.193
285.657	15.984	887.506	662.876
286.672	15.816	887.078	661.837
287.687	15.842	886.400	661.375
288.701	16.001	885.606	661.348
289.716	15.862	885.362	660.562
290.730	15.972	884.629	660.385
291.745	16.053	883.922	660.119
292.760	16.084	883.472	659.844
293.774	16.025	882.951	659.167
294.789	16.165	882.175	659.076
295.803	16.017	881.718	658.099
296.818	15.929	881.054	657.199
297.833	16.091	880.033	657.014
298.847	16.031	879.461	656.294
299.862	16.103	879.040	656.201
300.876	16.276	878.028	656.061
301.891	16.225	877.942	655.740
302.906	16.217	877.004	654.952
303.920	16.209	876.574	654.540
304.935	16.373	875.685	654.453
305.949	16.440	874.815	654.005
306.964	16.323	874.705	653.414
307.979	16.323	874.257	653.019
308.993	16.403	873.374	652.612
310.008	16.395	873.068	652.296
311.022	16.273	872.404	651.270
312.037	16.426	871.566	651.177
313.052	16.407	871.314	650.856
314.066	16.314	870.582	649.894
315.081	16.317	870.015	649.426
316.095	16.314	869.420	648.912
317.110	16.410	868.840	648.791
318.125	16.371	868.293	648.175
319.139	16.448	867.896	648.116
320.154	16.406	867.422	647.543
321.168	16.585	866.643	647.592
322.183	16.464	865.660	646.337
323.197	16.506	865.424	646.265
324.212	16.577	864.915	646.097
325.227	16.358	864.727	645.066
326.241	16.405	864.023	644.661
327.256	16.491	863.258	644.362
328.270	16.535	862.556	643.949
329.285	16.499	862.088	643.404
330.300	16.510	861.460	642.920
331.314	16.441	861.041	642.287
332.329	16.642	860.283	642.429
333.343	16.561	860.051	641.890
334.358	16.622	859.617	641.741
335.373	16.594	859.313	641.351
336.387	16.658	858.957	641.272
337.402	16.734	858.367	641.062
338.416	16.670	858.030	640.513
339.431	16.752	857.823	640.612
340.446	16.830	857.042	640.267
341.460	16.732	856.864	639.706
342.475	16.981	856.051	639.984
343.489	16.900	856.260	639.777
344.504	16.885	855.356	638.989
345.519	16.843	855.069	638.558
346.533	16.896	854.795	638.498
347.548	17.055	853.435	638.021
348.562	16.865	853.370	637.204
349.577	16.841	852.676	636.540
350.592	16.738	852.310	635.821
351.606	16.892	851.454	635.704
352.621	16.844	850.745	634.940
353.635	16.922	850.018	634.631
354.650	16.964	849.315	634.209
355.665	16.834	849.068	633.481
356.679	17.036	848.343	633.638
357.694	17.020	847.361	632.790
358.708	17.032	846.862	632.407
359.723	16.974	846.653	631.977
360.738	17.105	845.843	631.807
361.752	16.983	845.283	630.877
362.767	17.053	844.789	630.714
363.781	17.065	844.518	630.501
364.796	17.248	843.480	630.349
365.810	17.330	843.158	630.356
366.825	17.100	842.954	629.294
367.840	17.165	842.544	629.173
368.854	17.235	841.613	628.683
369.869	17.159	841.680	628.396
370.883	17.173	840.903	627.811
371.898	17.249	840.765	627.933
372.913	17.299	840.172	627.620
373.927	17.388	839.442	627.346
374.942	17.305	839.758	627.222
375.956	17.308	839.408	626.915
376.971	17.501	838.093	626.587
377.986	17.613	837.778	626.709
379.000	17.378	837.396	625.503
380.015	17.446	836.968	625.380
381.029	17.438	836.411	624.878
382.044	17.550	835.703	624.705
383.059	17.477	835.198	624.006
384.073	17.382	835.141	623.557
385.088	17.542	834.021	623.250
386.102	17.532	833.374	622.677
387.117	17.560	832.773	622.274
388.132	17.591	832.709	622.287
389.146	17.573	832.038	621.663
390.161	17.603	831.549	621.352
391.175	17.579	830.846	620.686
392.190	17.509	830.387	620.030
393.205	17.635	829.680	619.909
394.219	17.655	829.365	619.691
395.234	17.533	829.196	619.064
396.248	17.442	829.103	618.612
397.263	17.624	828.301	618.617
398.278	17.716	827.675	618.430
399.292	17.634	827.550	617.986
400.307	17.585	827.086	617.404
401.321	17.732	826.156	617.189
402.336	17.725	826.186	617.130
403.350	17.602	825.833	616.369
404.365	17.686	825.324	616.236
405.380	17.811	824.585	616.084
406.394	17.697	824.095	615.249
407.409	17.824	823.307	615.064
408.423	17.836	823.457	615.164
409.438	18.037	822.581	615.180
410.453	17.969	822.381	614.731
411.467	17.894	821.811	613.982
412.482	18.020	821.531	614.171
413.496	18.015	821.253	613.891
414.511	18.040	820.914	613.673
415.526	17.973	820.505	613.074
416.540	17.840	820.242	612.346
417.555	18.062	819.458	612.502
418.569	18.024	819.129	612.064
419.584	18.041	818.878	611.883
420.599	18.019	818.286	611.309
421.613	115.835	1301.413	1492.283
422.628	100.457	1371.761	1492.352
