DTS Sentinel unit serial number:	SN413079Multiplexer serial number:	ORYXHardware model number:	OX4-SRSoftware version number:	ORYX F/W v4.00 Oryx Data Collector v3.7.2.0data status	okinstallation	princeton_trtdifferential loss correction	single-endedforward channel	channel 1reverse channel	N/Adate	2019/09/13time	05:10:35forward acquisition time	60.00reverse acquisition time	0.00gamma	496.2192k internal	0.2335k external	0.2335temperature offset calibration	1.0156default loss term (dB/km)	0.3790temperature slope calibration	1.0000multiplexer offset coefficient	1.0000multiplexer slope coefficient	1.0000fibre end	0.00T internal ref (°C)	26.39T ext. ref 1 (°C)	4.05T ext. ref 2 (°C)	20.84length (m)	temperature (°C)	Stokes	anti-Stokes-747.200	800.000	-0.018	0.054
-746.185	-200.000	0.033	0.604
-745.171	143.277	-0.137	0.183
-744.156	99.528	-0.212	0.247
-743.142	54.293	0.275	-0.266
-742.127	-200.000	0.036	0.230
-741.112	22.629	-0.210	0.173
-740.098	-200.000	-0.020	0.110
-739.083	140.987	0.184	0.244
-738.069	-14.796	0.372	-0.240
-737.054	-24.819	-0.271	-0.162
-736.039	46.831	-0.153	-0.143
-735.025	-57.305	0.222	0.098
-734.010	47.247	0.225	-0.211
-732.996	-97.749	-0.197	-0.051
-731.981	-1.937	0.158	0.111
-730.966	-153.691	-0.118	0.008
-729.952	-98.274	0.339	-0.087
-728.937	-44.192	0.066	-0.033
-727.923	-200.000	-0.016	-0.099
-726.908	-154.573	-0.189	0.013
-725.894	98.462	-0.185	-0.215
-724.879	-200.000	-0.012	-0.102
-723.864	-179.628	-0.221	-0.005
-722.850	459.689	-0.104	-0.232
-721.835	587.850	-0.023	-0.057
-720.821	361.323	-0.040	-0.081
-719.806	48.759	0.234	0.221
-718.791	-32.922	-0.269	-0.150
-717.777	-200.000	0.044	0.304
-716.762	-135.793	-0.311	0.037
-715.748	800.000	-0.011	0.040
-714.733	159.283	-0.054	-0.076
-713.718	3.433	0.111	-0.081
-712.704	-91.095	-0.176	-0.051
-711.689	-124.840	-0.305	-0.047
-710.675	-92.862	0.152	0.043
-709.660	-144.195	-0.183	-0.017
-708.645	-27.086	0.158	-0.093
-707.631	-58.405	0.145	-0.063
-706.616	-111.797	-0.238	0.048
-705.602	-77.688	0.114	0.039
-704.587	-200.000	0.097	-0.596
-703.572	361.357	-0.155	-0.312
-702.558	-56.658	0.214	-0.095
-701.543	500.887	-0.085	-0.197
-700.529	-133.179	0.453	-0.057
-699.514	-51.357	-0.193	-0.090
-698.499	432.055	0.175	0.381
-697.485	35.782	0.117	-0.103
-696.470	-93.605	-0.108	-0.030
-695.456	800.000	0.064	0.255
-694.441	-140.558	0.141	-0.015
-693.426	800.000	-0.022	0.078
-692.412	-96.661	0.317	-0.084
-691.397	386.491	-0.160	-0.332
-690.383	-200.000	-0.031	-0.296
-689.368	412.721	0.104	0.222
-688.354	-21.349	-0.414	-0.254
-687.339	-20.863	0.217	-0.134
-686.324	162.559	0.025	-0.036
-685.310	39.116	0.032	-0.029
-684.295	173.598	0.082	-0.118
-683.281	800.000	0.043	0.160
-682.266	-122.551	0.419	0.068
-681.251	187.021	-0.138	-0.206
-680.237	-89.516	-0.320	-0.094
-679.222	-7.433	-0.189	-0.128
-678.208	-200.000	-0.016	-0.229
-677.193	336.274	-0.081	0.157
-676.178	31.875	-0.173	-0.149
-675.164	38.645	0.375	-0.335
-674.149	-200.000	0.004	0.091
-673.135	-46.876	-0.082	0.040
-672.120	51.474	0.184	0.175
-671.105	1.038	0.081	-0.058
-670.091	168.011	-0.217	-0.309
-669.076	-200.000	-0.008	0.181
-668.062	8.706	0.119	0.090
-667.047	-200.000	-0.015	-0.090
-666.032	36.533	0.193	0.171
-665.018	370.064	0.122	-0.247
-664.003	-200.000	-0.023	-0.189
-662.989	375.296	-0.036	0.074
-661.974	62.882	0.160	0.160
-660.959	-77.813	0.187	-0.065
-659.945	-151.846	-0.255	-0.019
-658.930	-67.659	0.115	0.045
-657.916	-97.705	0.200	0.052
-656.901	-2.334	0.152	0.107
-655.886	-69.737	0.157	0.060
-654.872	-200.000	-0.008	0.207
-653.857	582.547	0.033	-0.081
-652.843	327.861	0.068	-0.131
-651.828	-200.000	-0.032	0.539
-650.814	-72.516	-0.273	0.101
-649.799	-40.095	-0.211	-0.110
-648.784	-200.000	-0.001	-0.031
-647.770	385.378	-0.086	0.178
-646.755	-62.376	0.200	0.083
-645.741	-105.680	-0.523	0.119
-644.726	-82.367	-0.172	-0.056
-643.711	-200.000	-0.008	-0.293
-642.697	158.114	-0.197	-0.274
-641.682	-200.000	0.031	-0.198
-640.668	-200.000	0.067	-0.350
-639.653	-81.376	0.312	-0.103
-638.638	-17.410	0.030	0.019
-637.624	-200.000	-0.012	-0.135
-636.609	106.449	-0.055	0.065
-635.595	87.991	-0.112	0.124
-634.580	-32.607	-0.161	-0.090
-633.565	42.080	0.245	0.223
-632.551	76.876	0.174	0.185
-631.536	-175.960	-0.330	0.009
-630.522	-114.698	0.247	-0.047
-629.507	-96.284	-0.340	-0.090
-628.492	48.610	-0.230	0.215
-627.478	-18.950	-0.383	-0.238
-626.463	800.000	-0.076	-0.238
-625.449	-24.661	0.079	0.047
-624.434	157.888	-0.203	-0.281
-623.419	135.159	0.155	-0.202
-622.405	-104.894	0.154	-0.035
-621.390	-200.000	0.042	-0.231
-620.376	86.589	-0.226	-0.249
-619.361	-42.928	0.062	-0.031
-618.346	-3.048	-0.157	0.109
-617.332	-200.000	-0.011	0.141
-616.317	-141.794	0.087	-0.009
-615.303	-92.139	-0.419	0.118
-614.288	-200.000	0.054	-0.363
-613.273	-36.666	0.272	0.146
-612.259	-45.466	-0.211	-0.105
-611.244	10.686	0.066	-0.050
-610.230	-95.423	0.151	0.041
-609.215	-200.000	-0.030	-0.203
-608.201	800.000	0.104	0.399
-607.186	-147.901	-0.057	0.005
-606.171	498.281	0.152	-0.350
-605.157	11.996	-0.062	-0.048
-604.142	-40.094	-0.143	0.074
-603.128	9.747	-0.206	-0.156
-602.113	-180.631	0.192	0.004
-601.098	165.507	0.202	-0.285
-600.084	88.283	0.099	-0.110
-599.069	325.432	-0.116	0.221
-598.055	398.595	-0.057	-0.120
-597.040	-119.381	0.101	0.018
-596.025	-200.000	0.035	-0.159
-595.011	67.065	-0.113	-0.115
-593.996	154.740	0.131	-0.179
-592.982	-58.299	0.346	-0.150
-591.967	83.005	0.259	0.281
-590.952	99.588	-0.446	0.515
-589.938	290.732	0.176	-0.319
-588.923	-153.652	-0.205	-0.014
-587.909	800.000	-0.020	0.087
-586.894	-53.905	-0.091	0.042
-585.879	-149.691	-0.139	-0.011
-584.865	-200.000	0.008	-0.215
-583.850	-145.632	-0.252	-0.023
-582.836	-68.662	-0.214	-0.083
-581.821	800.000	-0.092	-0.352
-580.806	-32.827	0.209	0.116
-579.792	-29.041	0.163	-0.094
-578.777	670.452	0.157	-0.405
-577.763	-143.937	0.175	-0.016
-576.748	-160.676	-0.221	-0.012
-575.733	-13.892	0.261	-0.169
-574.719	-200.000	-0.049	-0.262
-573.704	-59.154	0.024	0.010
-572.690	-60.040	0.240	0.102
-571.675	-82.765	0.123	-0.040
-570.661	-59.209	-0.150	-0.064
-569.646	665.343	0.095	-0.246
-568.631	148.374	0.102	0.137
-567.617	-13.238	-0.068	-0.044
-566.602	-36.706	-0.139	0.075
-565.588	-76.189	-0.110	-0.039
-564.573	332.299	0.013	0.024
-563.558	389.222	0.124	0.257
-562.544	-200.000	-0.015	0.319
-561.529	165.596	-0.052	-0.073
-560.515	227.643	-0.100	0.162
-559.500	-145.761	0.083	0.007
-558.485	-200.000	-0.043	0.307
-557.471	83.573	0.110	0.120
-556.456	308.714	0.161	-0.301
-555.442	255.054	0.042	-0.072
-554.427	129.766	-0.133	-0.169
-553.412	163.533	-0.188	-0.264
-552.398	-56.860	0.182	0.080
-551.383	-200.000	0.023	0.214
-550.369	27.125	0.192	0.161
-549.354	-200.000	0.033	0.291
-548.339	-200.000	-0.009	0.103
-547.325	-38.779	-0.172	0.091
-546.310	340.031	0.033	-0.064
-545.296	-200.000	-0.059	-0.278
-544.281	-200.000	0.053	-0.260
-543.266	256.888	0.210	0.360
-542.252	-63.338	0.059	-0.024
-541.237	61.731	-0.308	-0.305
-540.223	98.509	0.138	-0.158
-539.208	-130.682	0.281	0.038
-538.193	-155.455	-0.212	-0.014
-537.179	-45.407	0.075	-0.037
-536.164	427.266	0.180	0.387
-535.150	800.000	-0.030	0.103
-534.135	-84.990	-0.037	-0.011
-533.121	-175.691	0.445	-0.012
-532.106	27.816	-0.324	-0.272
-531.091	-200.000	0.043	0.378
-530.077	39.942	0.288	0.257
-529.062	-112.974	-0.290	0.057
-528.048	6.519	0.062	-0.046
-527.033	556.658	0.096	0.231
-526.018	-68.891	0.100	0.038
-525.004	15.586	-0.285	-0.223
-523.989	-115.183	0.489	0.092
-522.975	469.584	-0.034	-0.076
-521.960	120.359	-0.094	0.116
-520.945	-200.000	0.017	-0.079
-519.931	-98.589	-0.275	0.070
-518.916	-200.000	-0.018	-0.080
-517.902	-12.896	-0.194	-0.126
-516.887	614.023	0.140	0.350
-515.872	-200.000	-0.020	0.337
-514.858	145.070	-0.293	0.391
-513.843	-161.761	0.167	-0.008
-512.829	65.083	-0.281	0.282
-511.814	35.031	0.223	-0.195
-510.799	-33.261	-0.224	0.124
-509.785	-147.848	-0.261	0.022
-508.770	-169.570	0.166	-0.006
-507.756	-26.086	0.315	0.185
-506.741	178.289	0.240	0.348
-505.726	-200.000	-0.003	0.075
-504.712	800.000	-0.071	-0.206
-503.697	-41.583	0.079	0.041
-502.683	253.116	0.229	-0.389
-501.668	800.000	0.058	0.225
-500.653	72.846	-0.198	0.206
-499.639	254.738	0.124	0.212
-498.624	-84.183	0.115	-0.036
-497.610	-148.689	0.250	-0.020
-496.595	-57.843	-0.301	-0.131
-495.581	9.078	0.186	-0.139
-494.566	-4.622	-0.213	0.147
-493.551	142.140	-0.111	-0.147
-492.537	800.000	-0.104	-0.340
-491.522	-99.644	0.267	0.067
-490.508	381.980	0.074	0.151
-489.493	90.075	0.123	-0.136
-488.478	147.565	0.075	-0.101
-487.464	108.902	0.247	-0.294
-486.449	-6.796	0.086	-0.058
-485.435	-200.000	0.011	0.114
-484.420	-39.549	-0.167	0.087
-483.405	800.000	-0.138	-0.446
-482.391	-200.000	-0.006	-0.124
-481.376	800.000	-0.127	0.385
-480.362	-200.000	-0.004	-0.371
-479.347	800.000	0.074	-0.284
-478.332	-26.966	-0.195	-0.113
-477.318	-200.000	0.010	-0.087
-476.303	-80.794	0.195	-0.064
-475.289	288.305	0.190	-0.343
-474.274	-36.050	-0.325	0.174
-473.259	121.729	-0.035	0.044
-472.245	-86.983	-0.076	0.023
-471.230	126.209	-0.248	0.312
-470.216	-177.762	0.177	-0.004
-469.201	196.491	0.095	-0.145
-468.186	-187.120	-0.202	-0.003
-467.172	-31.973	0.262	0.146
-466.157	-200.000	0.029	-0.148
-465.143	77.571	0.206	0.218
-464.128	220.045	0.042	0.067
-463.113	384.689	-0.075	0.154
-462.099	-200.000	-0.007	0.350
-461.084	-58.081	-0.168	-0.073
-460.070	277.606	0.213	-0.377
-459.055	-107.870	-0.539	-0.116
-458.040	372.026	-0.172	0.348
-457.026	120.923	0.209	-0.259
-456.011	-85.061	0.066	0.020
-454.997	-114.350	-0.263	0.050
-453.982	465.412	-0.101	0.225
-452.968	-93.509	0.095	-0.026
-451.953	-86.164	0.158	-0.049
-450.938	-43.104	-0.341	-0.172
-449.924	23.267	-0.095	0.077
-448.909	-130.520	0.328	-0.044
-447.895	-129.487	0.162	0.022
-446.880	652.833	0.130	0.331
-445.865	565.148	-0.104	-0.250
-444.851	-130.833	0.249	-0.033
-443.836	-95.494	-0.299	0.080
-442.822	-193.679	0.282	0.002
-441.807	-200.000	0.005	-0.199
-440.792	-200.000	0.058	-0.270
-439.778	-45.159	0.317	0.157
-438.763	-200.000	0.001	-0.073
-437.749	41.406	0.062	-0.055
-436.734	-40.703	-0.389	-0.200
-435.719	800.000	-0.126	0.347
-434.705	303.594	0.120	0.220
-433.690	-200.000	-0.033	-0.241
-432.676	800.000	-0.061	-0.197
-431.661	66.514	-0.055	0.055
-430.646	-52.645	0.323	-0.148
-429.632	-130.766	0.258	0.034
-428.617	-84.289	0.152	0.048
-427.603	220.703	0.075	0.119
-426.588	-17.960	0.424	-0.264
-425.573	363.619	-0.103	0.205
-424.559	41.551	0.264	-0.237
-423.544	59.740	-0.040	-0.039
-422.530	-32.159	-0.163	0.090
-421.515	194.116	-0.085	-0.127
-420.500	-117.556	0.230	0.041
-419.486	-94.885	0.362	0.097
-418.471	461.670	-0.100	-0.222
-417.457	-200.000	-0.003	-0.078
-416.442	-23.306	-0.134	-0.080
-415.428	120.338	-0.034	0.041
-414.413	-200.000	-0.016	0.315
-413.398	-200.000	-0.017	-0.094
-412.384	-200.000	0.162	0.000
-411.369	-200.000	-0.007	0.032
-410.355	-74.977	0.059	-0.021
-409.340	-106.743	-0.058	0.013
-408.325	33.983	0.077	0.066
-407.311	165.267	-0.048	-0.068
-406.296	-131.250	0.272	0.036
-405.282	-200.000	-0.009	-0.087
-404.267	-66.343	0.210	0.083
-403.252	-152.509	-0.114	-0.008
-402.238	-51.184	-0.415	0.193
-401.223	-54.702	0.257	0.115
-400.209	-101.170	0.122	0.030
-399.194	-200.000	-0.008	0.062
-398.179	-120.734	0.590	0.099
-397.165	-59.953	-0.256	-0.108
-396.150	-200.000	-0.029	0.544
-395.136	-200.000	-0.046	0.506
-394.121	40.171	0.076	0.068
-393.106	106.064	-0.349	0.410
-392.092	-23.671	-0.092	-0.055
-391.077	171.010	-0.163	0.232
-390.063	-200.000	-0.022	-0.222
-389.048	-200.000	0.010	0.290
-388.033	191.608	0.139	0.207
-387.019	-193.803	-0.027	-0.000
-386.004	16.939	0.121	0.095
-384.990	660.891	-0.045	0.114
-383.975	800.000	-0.105	0.293
-382.960	132.619	-0.079	-0.101
-381.946	800.000	-0.009	0.027
-380.931	22.043	0.063	-0.051
-379.917	28.274	0.225	0.188
-378.902	800.000	0.040	0.141
-377.888	800.000	-0.086	-0.339
-376.873	164.329	0.131	-0.183
-375.858	-200.000	-0.001	0.105
-374.844	405.206	-0.073	0.152
-373.829	-77.080	0.208	0.072
-372.815	-131.803	0.233	-0.030
-371.800	-82.963	-0.136	-0.043
-370.785	62.477	-0.186	0.184
-369.771	142.745	-0.161	0.212
-368.756	411.549	0.222	-0.466
-367.742	637.322	0.043	-0.107
-366.727	-200.000	-0.003	0.047
-365.712	-111.171	0.050	0.010
-364.698	141.923	0.214	-0.281
-363.683	31.943	-0.128	0.109
-362.669	-56.482	0.117	-0.051
-361.654	-112.818	0.233	0.046
-360.639	90.515	0.233	-0.258
-359.625	102.425	-0.166	-0.192
-358.610	-95.194	-0.392	0.105
-357.596	-72.804	-0.068	-0.025
-356.581	-63.277	0.416	-0.170
-355.566	410.427	-0.037	-0.077
-354.552	-200.000	0.020	0.138
-353.537	-99.903	0.438	0.108
-352.523	-40.484	-0.441	-0.227
-351.508	140.420	-0.129	0.168
-350.493	-166.281	0.201	0.008
-349.479	42.115	0.188	-0.169
-348.464	-150.867	-0.170	0.013
-347.450	422.707	-0.158	0.336
-346.435	101.263	-0.068	-0.078
-345.420	9.294	-0.171	-0.128
-344.406	800.000	0.066	0.239
-343.391	591.410	0.177	0.432
-342.377	49.111	0.114	-0.106
-341.362	800.000	-0.044	-0.127
-340.348	180.823	0.143	-0.208
-339.333	800.000	-0.028	0.092
-338.318	122.618	0.143	0.177
-337.304	-131.109	0.100	-0.013
-336.289	-106.281	0.091	0.020
-335.275	194.560	0.146	0.219
-334.260	71.851	-0.155	-0.159
-333.245	703.178	0.068	-0.177
-332.231	-77.092	0.619	0.214
-331.216	62.908	-0.132	-0.131
-330.202	-162.696	-0.152	-0.007
-329.187	-34.128	0.062	-0.034
-328.172	217.697	-0.142	0.224
-327.158	800.000	-0.036	-0.127
-326.143	-148.601	-0.023	-0.002
-325.129	-200.000	0.016	-0.236
-324.114	-55.131	0.384	0.171
-323.099	-59.588	0.149	0.063
-322.085	-200.000	-0.008	-0.074
-321.070	-200.000	0.016	-0.217
-320.056	-87.766	-0.224	0.067
-319.041	-137.865	-0.147	0.016
-318.026	-76.884	-0.271	-0.094
-317.012	418.766	0.043	-0.091
-315.997	-70.956	-0.327	-0.122
-314.983	-200.000	0.021	0.099
-313.968	-146.769	-0.252	0.021
-312.953	800.000	0.033	0.127
-311.939	800.000	0.041	-0.161
-310.924	-185.096	-0.144	-0.002
-309.910	74.995	0.171	-0.178
-308.895	303.106	0.119	0.217
-307.880	86.657	-0.164	0.179
-306.866	101.083	-0.107	-0.123
-305.851	654.581	-0.073	0.185
-304.837	216.848	-0.152	-0.239
-303.822	-200.000	0.023	0.225
-302.807	-72.713	-0.111	-0.040
-301.793	800.000	-0.094	-0.372
-300.778	435.053	0.124	0.266
-299.764	265.387	-0.142	0.244
-298.749	-200.000	-0.010	-0.169
-297.735	788.711	-0.016	-0.043
-296.720	-6.230	0.139	0.094
-295.705	67.862	-0.240	-0.243
-294.691	-0.472	-0.394	-0.276
-293.676	-40.408	-0.263	-0.135
-292.662	52.771	-0.280	0.264
-291.647	-200.000	0.044	0.233
-290.632	-200.000	-0.013	0.068
-289.618	800.000	0.078	-0.253
-288.603	-200.000	-0.011	-0.083
-287.589	-200.000	-0.036	0.360
-286.574	133.619	-0.126	-0.161
-285.559	-12.491	-0.097	0.063
-284.545	-17.506	-0.218	0.135
-283.530	800.000	-0.034	0.118
-282.516	70.242	0.320	0.327
-281.501	-64.128	0.150	0.060
-280.486	-13.053	-0.197	0.126
-279.472	294.822	-0.193	0.348
-278.457	800.000	-0.058	-0.219
-277.443	-200.000	0.008	-0.103
-276.428	-200.000	-0.014	-0.275
-275.413	800.000	-0.019	-0.073
-274.399	-89.997	-0.138	0.040
-273.384	-135.416	0.336	0.040
-272.370	-27.446	-0.077	0.044
-271.355	407.775	0.045	-0.094
-270.340	4.267	-0.144	0.104
-269.326	-170.695	0.185	0.006
-268.311	303.441	0.214	-0.391
-267.297	800.000	0.015	0.043
-266.282	-103.592	-0.194	-0.045
-265.267	-74.067	-0.387	-0.138
-264.253	98.055	-0.040	-0.046
-263.238	-25.338	-0.243	0.142
-262.224	-88.789	-0.055	0.016
-261.209	-95.283	-0.239	-0.063
-260.195	-57.724	0.065	0.028
-259.180	500.569	-0.120	-0.273
-258.165	-200.000	0.052	0.344
-257.151	-200.000	0.050	0.252
-256.136	-200.000	0.009	-0.267
-255.122	-171.810	-0.186	-0.006
-254.107	-95.894	-0.124	-0.033
-253.092	383.838	0.024	0.050
-252.078	-125.338	-0.178	-0.027
-251.063	-45.783	-0.348	0.169
-250.049	132.896	-0.055	-0.071
-249.034	-129.230	-0.342	-0.047
-248.019	-129.289	0.039	0.005
-247.005	-200.000	-0.016	0.159
-245.990	-134.570	-0.284	-0.034
-244.976	-84.677	0.190	-0.059
-243.961	-200.000	-0.019	-0.118
-242.946	800.000	0.099	0.272
-241.932	-145.041	0.194	-0.017
-240.917	-93.685	0.274	0.074
-239.903	-24.328	0.059	0.035
-238.888	164.992	0.142	-0.197
-237.873	-111.096	0.236	0.048
-236.859	-45.719	0.307	-0.149
-235.844	800.000	-0.056	0.213
-234.830	-3.770	0.074	0.051
-233.815	358.366	0.118	-0.231
-232.800	15.546	0.037	-0.029
-231.786	-200.000	-0.020	-0.128
-230.771	-107.834	0.149	-0.032
-229.757	-113.400	-0.024	-0.005
-228.742	-56.138	0.114	0.050
-227.727	-40.641	-0.370	-0.189
-226.713	-68.116	-0.290	-0.111
-225.698	557.999	-0.003	-0.007
-224.684	-53.832	-0.254	0.114
-223.669	-41.424	0.070	0.036
-222.655	452.058	0.154	0.336
-221.640	-120.181	-0.070	-0.012
-220.625	-200.000	0.004	0.053
-219.611	-157.563	0.149	0.009
-218.596	800.000	-0.032	0.137
-217.582	76.197	-0.137	-0.142
-216.567	-144.028	-0.075	0.007
-215.552	-200.000	0.045	0.311
-214.538	-42.988	0.300	0.150
-213.523	-53.429	0.121	0.055
-212.509	-85.083	0.205	0.063
-211.494	109.604	-0.183	0.216
-210.479	6.945	-0.136	-0.099
-209.465	-69.652	-0.176	-0.066
-208.450	16.313	0.182	0.141
-207.436	-129.833	-0.290	0.039
-206.421	-200.000	-0.002	0.190
-205.406	-110.267	-0.041	0.008
-204.392	36.870	-0.161	-0.140
-203.377	-200.000	0.054	-0.352
-202.363	800.000	0.140	0.380
-201.348	87.510	0.205	-0.223
-200.333	-115.545	-0.359	-0.066
-199.319	15.842	0.321	-0.249
-198.304	-159.899	-0.090	-0.005
-197.290	-31.291	-0.277	0.153
-196.275	-143.034	0.151	0.014
-195.260	336.605	0.224	0.427
-194.246	-200.000	0.045	-0.271
-193.231	-200.000	-0.025	0.195
-192.217	236.548	0.141	-0.229
-191.202	800.000	0.017	0.067
-190.187	-110.587	0.234	-0.048
-189.173	-200.000	-0.050	0.219
-188.158	800.000	0.011	0.039
-187.144	-49.873	0.126	-0.059
-186.129	35.326	0.146	0.126
-185.114	-97.816	-0.364	-0.093
-184.100	-200.000	-0.051	-0.241
-183.085	725.778	0.117	-0.308
-182.071	573.365	0.078	0.188
-181.056	40.129	-0.108	-0.095
-180.042	-11.342	0.243	-0.157
-179.027	683.594	0.099	0.255
-178.012	92.878	0.248	0.275
-176.998	-46.330	0.103	-0.050
-175.983	800.000	-0.017	-0.057
-174.969	-200.000	-0.038	0.231
-173.954	-125.778	0.154	-0.023
-172.939	294.315	-0.014	0.026
-171.925	206.312	0.087	0.134
-170.910	268.532	-0.170	0.294
-169.896	-30.463	-0.181	-0.101
-168.881	-160.972	-0.230	-0.012
-167.866	692.197	-0.036	-0.093
-166.852	-93.063	0.107	0.029
-165.837	800.000	-0.036	-0.133
-164.823	591.243	-0.087	0.210
-163.808	-200.000	0.010	-0.140
-162.793	-200.000	-0.009	-0.278
-161.779	-144.110	0.335	-0.031
-160.764	-93.545	-0.208	0.056
-159.750	800.000	-0.032	-0.118
-158.735	-134.970	-0.242	0.029
-157.720	-200.000	-0.015	-0.071
-156.706	-105.773	0.227	-0.050
-155.691	-200.000	-0.030	-0.224
-154.677	40.662	-0.184	0.163
-153.662	31.284	-0.177	-0.150
-152.647	328.755	-0.064	-0.120
-151.633	-129.444	0.134	-0.018
-150.618	-200.000	0.026	0.216
-149.604	-143.331	0.339	-0.032
-148.589	-143.542	-0.127	-0.012
-147.574	277.720	-0.157	-0.275
-146.560	79.007	-0.089	-0.094
-145.545	-40.957	0.281	0.143
-144.531	563.228	0.108	0.256
-143.516	92.765	0.156	-0.173
-142.502	132.947	-0.022	-0.028
-141.487	-59.117	0.368	0.156
-140.472	93.025	-0.226	0.251
-139.458	800.000	0.030	0.086
-138.443	800.000	-0.024	0.069
-137.429	-109.033	0.153	0.032
-136.414	-91.839	0.224	-0.062
-135.399	800.000	-0.091	-0.286
-134.385	-48.350	-0.137	0.065
-133.370	-0.722	0.113	0.079
-132.356	91.340	-0.154	-0.170
-131.341	-132.602	-0.123	0.016
-130.326	-36.353	-0.339	0.179
-129.312	578.206	0.077	-0.185
-128.297	650.172	0.102	0.257
-127.283	49.193	-0.218	0.201
-126.268	-63.613	0.300	-0.121
-125.253	355.584	0.087	-0.169
-124.239	413.279	0.034	-0.071
-123.224	-8.039	0.196	0.130
-122.210	34.761	0.266	-0.228
-121.195	287.789	0.133	-0.236
-120.180	-74.951	0.306	-0.107
-119.166	-52.807	0.185	-0.084
-118.151	-200.000	0.012	0.208
-117.137	-83.064	-0.055	0.017
-116.122	88.969	0.291	-0.317
-115.107	-114.380	0.417	0.079
-114.093	-1.156	0.334	0.231
-113.078	800.000	0.085	0.312
-112.064	-200.000	0.000	-0.387
-111.049	104.236	-0.247	0.285
-110.034	-5.451	0.151	-0.102
-109.020	-67.453	0.311	0.120
-108.005	-114.594	-0.103	0.019
-106.991	174.762	0.148	0.210
-105.976	-102.423	-0.074	-0.017
-104.962	-110.466	-0.201	0.041
-103.947	-200.000	-0.055	0.246
-102.932	27.570	-0.180	-0.148
-101.918	171.725	-0.171	-0.241
-100.903	-77.707	0.103	0.035
-99.889	44.085	0.227	0.204
-98.874	-20.743	-0.085	0.051
-97.859	-200.000	-0.035	-0.293
-96.845	-61.967	-0.283	0.116
-95.830	303.006	-0.189	-0.343
-94.816	-200.000	-0.038	-0.188
-93.801	800.000	0.064	0.208
-92.786	-108.914	-0.102	-0.021
-91.772	23.994	-0.262	-0.212
-90.757	-89.393	0.239	0.069
-89.743	-45.786	-0.185	0.090
-88.728	-41.409	-0.086	-0.043
-87.713	32.547	0.303	-0.257
-86.699	-200.000	-0.053	-0.371
-85.684	-146.967	0.239	-0.020
-84.670	12.742	-0.169	0.128
-83.655	-152.038	-0.163	0.012
-82.640	-54.275	0.097	0.043
-81.626	-200.000	0.020	-0.437
-80.611	518.902	-0.097	-0.221
-79.597	-200.000	-0.005	-0.043
-78.582	63.512	-0.056	0.055
-77.567	33.438	-0.085	-0.072
-76.553	800.000	0.082	-0.273
-75.538	-113.322	0.191	0.037
-74.524	-200.000	-0.013	-0.420
-73.509	-163.448	0.086	-0.004
-72.494	-187.398	0.254	0.003
-71.480	619.284	0.077	-0.188
-70.465	-132.719	-0.253	0.032
-69.451	-187.795	-0.058	0.001
-68.436	140.046	-0.202	-0.260
-67.422	9.854	0.053	0.040
-66.407	-149.685	0.277	-0.021
-65.392	-61.897	0.179	0.073
-64.378	-200.000	0.007	-0.117
-63.363	-124.773	0.057	0.009
-62.349	800.000	0.109	0.400
-61.334	78.644	-1.145	-1.197
-60.319	-15.757	0.789	0.492
-59.305	261.822	-0.658	-1.115
-58.290	212.094	0.838	1.291
-57.276	800.000	0.530	1.547
-56.261	-200.000	117.445	652.657
-55.246	499.998	1545.975	3486.864
-54.232	175.050	2712.982	3842.165
-53.217	105.628	2149.780	2485.312
-52.203	37.918	1584.123	1376.944
-51.188	29.650	1328.374	1105.384
-50.173	26.874	1289.402	1056.763
-49.159	52.849	1348.777	1261.088
-48.144	51.185	1361.365	1262.909
-47.130	29.844	1315.945	1096.017
-46.115	26.515	1297.670	1061.266
-45.100	26.299	1292.658	1055.867
-44.086	26.283	1289.589	1053.226
-43.071	26.158	1287.599	1050.827
-42.057	26.186	1285.623	1049.340
-41.042	26.295	1283.967	1048.578
-40.027	26.237	1282.233	1046.784
-39.013	26.233	1280.103	1044.982
-37.998	26.317	1278.228	1043.893
-36.984	26.269	1276.454	1042.123
-35.969	26.373	1274.824	1041.350
-34.954	26.495	1273.085	1040.595
-33.940	26.381	1271.954	1038.971
-32.925	26.501	1270.142	1038.137
-31.911	26.504	1268.844	1037.056
-30.896	26.524	1267.226	1035.807
-29.881	26.435	1266.284	1034.486
-28.867	26.715	1264.862	1034.884
-27.852	26.559	1263.301	1032.672
-26.838	26.482	1262.140	1031.243
-25.823	26.526	1260.514	1030.125
-24.809	26.370	1259.972	1028.755
-23.794	26.455	1258.197	1027.748
-22.779	26.394	1257.337	1026.657
-21.765	26.476	1255.798	1025.823
-20.750	26.462	1254.633	1024.756
-19.736	26.331	1253.685	1023.199
-18.721	26.311	1252.240	1021.863
-17.706	26.274	1251.318	1020.860
-16.692	26.430	1249.502	1020.221
-15.677	26.337	1249.074	1019.308
-14.663	26.321	1247.719	1018.068
-13.648	26.352	1246.445	1017.161
-12.633	26.334	1245.501	1016.253
-11.619	26.282	1245.047	1015.548
-10.604	26.295	1243.840	1014.599
-9.590	26.402	1243.031	1014.499
-8.575	26.314	1242.278	1013.351
-7.560	26.403	1241.167	1012.900
-6.546	26.355	1240.199	1011.802
-5.531	26.294	1239.222	1010.626
-4.517	26.259	1239.077	1010.272
-3.502	26.416	1237.574	1009.884
-2.487	26.298	1236.873	1008.610
-1.473	26.231	1233.107	1005.125
-0.458	24.787	1217.511	984.432
0.556	22.843	1201.152	947.273
1.571	19.013	1206.849	930.991
2.586	18.127	1221.343	937.238
3.600	18.013	1209.959	927.797
4.615	13.998	1139.757	853.313
5.629	7.225	1068.803	767.406
6.644	4.314	1051.471	741.004
7.659	4.052	1048.987	737.943
8.673	3.952	1047.474	736.337
9.688	3.873	1046.460	735.182
10.702	4.205	1044.437	735.270
11.717	8.676	1050.647	760.868
12.731	16.343	1061.329	805.226
13.746	21.200	1067.265	832.885
14.761	22.274	1067.952	838.468
15.775	21.543	1066.910	834.095
16.790	20.626	1064.897	828.084
17.804	20.009	1063.078	823.663
18.819	19.755	1062.468	821.911
19.834	19.798	1061.995	821.676
20.848	19.728	1061.305	820.734
21.863	19.541	1060.384	819.064
22.877	19.362	1059.900	817.769
23.892	19.220	1059.131	816.429
24.907	19.266	1058.297	815.934
25.921	19.299	1056.890	814.933
26.936	19.321	1055.649	814.009
27.950	19.414	1054.613	813.573
28.965	19.415	1053.273	812.474
29.980	19.574	1051.831	812.036
30.994	19.670	1051.265	811.981
32.009	19.698	1050.133	811.166
33.023	19.680	1048.904	810.061
34.038	19.516	1047.754	808.332
35.053	19.451	1046.948	807.333
36.067	19.357	1046.194	806.242
37.082	19.584	1045.244	806.500
38.096	19.575	1044.904	806.121
39.111	19.663	1043.918	805.703
40.126	19.385	1042.592	803.310
41.140	19.054	1040.933	800.422
42.155	18.801	1040.026	798.479
43.169	18.802	1038.893	797.545
44.184	18.914	1037.389	796.838
45.199	18.923	1036.803	796.361
46.213	19.142	1035.909	796.616
47.228	19.385	1035.163	797.096
48.242	19.383	1034.492	796.500
49.257	19.368	1033.627	795.692
50.271	19.379	1033.054	795.229
51.286	19.498	1031.894	794.818
52.301	19.324	1031.141	793.365
53.315	19.184	1030.122	791.865
54.330	19.163	1028.881	790.745
55.344	19.149	1027.901	789.861
56.359	19.190	1026.854	789.171
57.374	18.932	1026.237	787.449
58.388	18.928	1025.182	786.549
59.403	18.886	1024.257	785.576
60.417	18.928	1023.724	785.292
61.432	18.778	1023.019	783.994
62.447	18.703	1021.874	782.710
63.461	18.628	1021.549	782.050
64.476	18.763	1020.031	781.429
65.490	18.732	1019.528	780.837
66.505	18.771	1018.552	780.195
67.520	18.624	1018.272	779.243
68.534	18.711	1017.350	778.866
69.549	18.648	1016.372	777.762
70.563	18.476	1015.648	776.358
71.578	18.454	1014.665	775.439
72.593	18.278	1014.017	774.080
73.607	18.302	1013.474	773.705
74.622	18.541	1012.684	774.112
75.636	18.589	1011.980	773.723
76.651	18.555	1011.356	773.027
77.666	18.593	1010.602	772.549
78.680	18.610	1009.925	772.044
79.695	18.606	1009.547	771.665
80.709	18.844	1008.976	772.230
81.724	18.943	1008.676	772.378
82.739	19.012	1007.652	771.838
83.753	19.400	1007.768	773.597
84.768	19.716	1006.660	774.092
85.782	19.890	1005.995	774.292
86.797	19.742	1004.962	772.767
87.812	19.489	1003.940	770.785
88.826	19.623	1002.899	770.514
89.841	19.701	1002.010	770.110
90.855	19.614	1001.702	769.416
91.870	19.785	1000.649	769.303
92.884	19.764	999.826	768.508
93.899	19.731	999.125	767.755
94.914	19.751	998.300	767.142
95.928	19.637	997.159	765.691
96.943	19.643	995.615	764.464
97.957	19.569	994.887	763.511
98.972	19.511	994.422	762.830
99.987	19.550	993.702	762.382
101.001	19.504	992.681	761.329
102.016	19.479	991.707	760.401
103.030	19.692	990.748	760.540
104.045	19.664	990.297	760.004
105.060	19.397	989.255	757.961
106.074	19.238	988.055	756.276
107.089	18.959	986.833	754.051
108.103	18.765	985.834	752.373
109.118	18.778	984.636	751.447
110.133	18.699	983.635	750.274
111.147	18.613	983.280	749.559
112.162	18.743	982.630	749.564
113.176	18.859	981.930	749.472
114.191	19.088	981.098	749.768
115.206	18.896	980.504	748.410
116.220	18.828	979.638	747.388
117.235	18.867	978.761	746.822
118.249	18.811	978.226	746.105
119.264	18.779	977.079	745.025
120.279	18.790	976.228	744.357
121.293	18.564	975.671	742.887
122.308	18.605	974.279	741.939
123.322	18.565	972.764	740.550
124.337	18.404	972.575	739.644
125.352	18.405	971.272	738.591
126.366	18.453	970.238	737.947
127.381	18.560	969.297	737.624
128.395	18.529	968.577	736.878
129.410	18.588	967.665	736.372
130.424	18.826	966.760	736.641
131.439	18.799	966.393	736.178
132.454	18.848	965.671	735.776
133.468	18.947	965.274	735.833
134.483	18.873	964.144	734.586
135.497	19.111	963.115	734.757
136.512	19.090	962.111	733.835
137.527	19.021	961.684	733.151
138.541	19.109	960.792	732.779
139.556	19.128	960.252	732.386
140.570	19.145	959.969	732.177
141.585	19.348	959.433	732.566
142.600	19.630	957.977	732.586
143.614	19.600	957.909	732.341
144.629	19.703	956.590	731.705
145.643	19.641	955.695	730.693
146.658	19.343	954.609	728.539
147.673	19.074	953.619	726.581
148.687	19.117	952.389	725.763
149.702	18.961	951.602	724.440
150.716	18.905	951.257	723.879
151.731	19.058	950.306	723.735
152.746	19.124	949.409	723.263
153.760	19.134	948.911	722.861
154.775	19.348	948.396	723.302
155.789	19.263	947.930	722.530
156.804	19.319	946.827	721.860
157.819	19.461	946.511	722.146
158.833	19.640	946.118	722.534
159.848	19.768	945.301	722.378
160.862	19.597	944.096	720.682
161.877	19.210	942.392	717.704
162.892	18.878	941.441	715.537
163.906	18.790	941.030	714.793
164.921	18.960	939.863	714.550
165.935	19.099	939.397	714.709
166.950	19.292	938.077	714.445
167.964	19.338	937.172	713.879
168.979	19.137	936.043	712.125
169.994	19.090	935.790	711.677
171.008	19.338	935.131	712.138
172.023	19.445	935.134	712.519
173.037	19.741	933.918	712.750
174.052	19.459	933.130	710.923
175.067	19.151	932.122	708.825
176.081	18.919	931.596	707.405
177.096	18.956	930.967	707.017
178.110	19.114	930.488	707.240
179.125	19.043	929.856	706.406
180.140	19.134	929.313	706.305
181.154	19.410	928.991	707.132
182.169	19.606	928.833	707.751
183.183	19.568	928.370	707.179
184.198	19.542	927.639	706.455
185.213	19.458	926.941	705.518
186.227	19.835	925.862	706.172
187.242	19.835	925.351	705.719
188.256	19.893	925.012	705.637
189.271	19.831	924.123	704.643
190.286	19.428	923.086	702.147
191.300	19.049	921.708	699.499
192.315	18.847	920.855	697.970
193.329	18.986	920.903	698.508
194.344	19.184	920.252	698.756
195.359	19.308	919.527	698.645
196.373	19.425	919.260	698.856
197.388	19.577	919.274	699.419
198.402	19.891	918.593	700.111
199.417	19.918	918.341	699.965
200.432	20.042	917.663	699.886
201.446	20.147	916.945	699.701
202.461	20.280	916.774	700.046
203.475	20.114	916.079	698.782
204.490	19.870	914.773	696.742
205.504	19.632	913.945	695.093
206.519	19.524	913.154	693.998
207.534	19.536	912.693	693.632
208.548	19.577	912.301	693.439
209.563	19.598	911.272	692.678
210.577	19.776	910.896	693.044
211.592	20.129	910.062	693.763
212.607	20.137	909.067	692.975
213.621	19.972	908.761	692.022
214.636	19.884	908.243	691.214
215.650	19.900	907.597	690.723
216.665	19.945	906.787	690.226
217.680	20.206	906.582	691.048
218.694	20.167	905.730	690.183
219.709	20.139	905.049	689.494
220.723	20.022	904.214	688.331
221.738	20.021	903.641	687.830
222.753	20.027	903.059	687.348
223.767	20.063	902.603	687.083
224.782	20.227	902.040	687.243
225.796	20.335	901.673	687.331
226.811	20.154	900.839	685.919
227.826	19.998	899.640	684.329
228.840	19.867	899.359	683.537
229.855	19.978	897.956	682.850
230.869	19.942	897.287	682.137
231.884	19.861	896.912	681.475
232.899	19.729	896.308	680.433
233.913	19.701	895.096	679.344
234.928	19.640	894.773	678.800
235.942	19.532	894.273	677.936
236.957	19.578	894.084	677.912
237.972	19.689	893.116	677.554
238.986	19.711	892.320	676.978
240.001	19.672	891.997	676.519
241.015	19.647	891.565	676.034
242.030	19.853	890.801	676.202
243.045	20.010	890.456	676.491
244.059	20.000	889.912	675.978
245.074	20.082	889.097	675.621
246.088	20.135	888.576	675.370
247.103	20.333	888.158	675.766
248.117	20.535	888.005	676.373
249.132	20.906	887.779	677.583
250.147	20.958	887.798	677.743
251.161	21.067	886.555	677.154
252.176	21.040	886.435	676.899
253.190	21.097	885.878	676.636
254.205	21.067	884.665	675.533
255.220	21.068	884.429	675.297
256.234	20.888	883.963	674.185
257.249	20.888	882.983	673.378
258.263	20.939	881.951	672.726
259.278	21.056	881.699	672.928
260.293	21.011	881.244	672.346
261.307	21.139	880.444	672.169
262.322	21.124	879.915	671.648
263.336	21.104	879.129	670.912
264.351	21.163	878.611	670.685
265.366	21.223	877.804	670.240
266.380	21.066	877.813	669.583
267.395	21.051	876.285	668.303
268.409	20.994	875.675	667.560
269.424	20.974	875.004	666.914
270.439	20.944	873.827	665.844
271.453	20.735	873.407	664.666
272.468	20.765	872.857	664.303
273.482	20.717	872.443	663.747
274.497	20.699	871.701	663.055
275.512	20.927	871.063	663.378
276.526	20.825	871.049	662.919
277.541	20.903	870.297	662.584
278.555	20.904	870.611	662.769
279.570	21.226	869.649	663.201
280.585	21.206	868.298	662.039
281.599	20.916	867.643	660.379
282.614	20.779	867.264	659.514
283.628	20.849	866.444	659.098
284.643	20.929	865.743	658.809
285.657	20.774	865.555	658.020
286.672	20.879	864.845	657.819
287.687	20.978	863.840	657.372
288.701	21.054	863.289	657.181
289.716	21.007	862.582	656.405
290.730	21.052	862.424	656.397
291.745	21.006	862.065	655.892
292.760	21.200	861.102	655.832
293.774	21.341	861.097	656.297
294.789	21.178	860.362	655.068
295.803	21.089	859.225	653.812
296.818	20.889	858.488	652.444
297.833	20.959	857.958	652.246
298.847	20.976	857.486	651.894
299.862	20.970	856.946	651.403
300.876	21.239	856.610	652.094
301.891	21.398	856.094	652.238
302.906	21.463	855.572	652.022
303.920	21.666	855.282	652.500
304.935	21.772	854.936	652.574
305.949	21.573	853.875	650.967
306.964	21.272	852.936	649.075
307.979	21.445	852.251	649.137
308.993	21.522	852.060	649.220
310.008	21.553	851.642	648.959
311.022	21.281	851.040	647.435
312.037	21.247	850.399	646.766
313.052	21.005	849.537	645.157
314.066	20.875	849.119	644.301
315.081	20.903	848.277	643.708
316.095	20.932	847.722	643.339
317.110	21.134	846.749	643.287
318.125	20.927	846.682	642.415
319.139	20.883	846.241	641.862
320.154	21.153	845.857	642.510
321.168	21.111	845.311	641.882
322.183	21.198	844.641	641.637
323.197	21.258	844.154	641.431
324.212	21.219	843.839	640.991
325.227	21.264	842.789	640.302
326.241	20.971	842.665	639.076
327.256	21.039	841.933	638.713
328.270	21.056	841.170	638.143
329.285	21.065	840.601	637.684
330.300	21.007	840.271	637.169
331.314	21.068	839.740	636.932
332.329	21.243	839.514	637.343
333.343	21.443	839.103	637.701
334.358	21.529	838.675	637.636
335.373	21.426	838.447	637.029
336.387	21.430	838.231	636.824
337.402	21.586	837.878	637.068
338.416	21.838	837.620	637.732
339.431	21.936	837.252	637.751
340.446	22.020	836.873	637.710
341.460	21.928	836.797	637.261
342.475	21.961	836.228	636.893
343.489	22.160	835.672	637.135
344.504	22.126	835.635	636.927
345.519	22.269	835.082	636.967
346.533	22.063	834.498	635.718
347.548	21.785	833.517	633.910
348.562	21.647	832.917	632.897
349.577	21.503	832.149	631.739
350.592	21.509	831.282	631.048
351.606	21.317	830.944	630.043
352.621	21.522	829.909	629.940
353.635	21.615	829.614	629.993
354.650	21.537	829.295	629.416
355.665	21.706	828.762	629.563
356.679	21.758	827.995	629.111
357.694	21.862	827.185	628.815
358.708	21.796	826.753	628.194
359.723	21.719	826.085	627.354
360.738	21.708	825.281	626.650
361.752	21.876	825.033	627.007
362.767	22.144	824.210	627.281
363.781	22.323	823.862	627.599
364.796	22.435	823.690	627.812
365.810	22.492	823.222	627.603
366.825	22.509	823.224	627.610
367.840	22.410	822.236	626.450
368.854	22.270	821.619	625.427
369.869	22.142	821.325	624.692
370.883	22.228	821.051	624.733
371.898	22.429	820.699	625.124
372.913	22.500	820.079	624.849
373.927	22.288	819.290	623.442
374.942	22.354	819.102	623.477
375.956	22.466	818.966	623.715
376.971	22.615	818.441	623.786
377.986	22.725	818.061	623.831
379.000	22.692	817.506	623.238
380.015	22.635	817.075	622.649
381.029	22.607	816.380	621.966
382.044	22.707	815.714	621.757
383.059	22.746	814.960	621.264
384.073	22.530	814.360	619.991
385.088	22.170	813.697	618.168
386.102	22.210	812.833	617.596
387.117	22.152	812.565	617.135
388.132	22.276	811.823	616.950
389.146	22.217	811.339	616.323
390.161	22.503	811.113	617.097
391.175	22.604	810.965	617.285
392.190	22.395	810.164	615.889
393.205	22.195	809.908	614.939
394.219	22.239	809.309	614.586
395.234	22.052	808.471	613.242
396.248	22.040	808.179	612.922
397.263	21.986	807.438	612.119
398.278	21.935	807.261	611.754
399.292	21.972	806.433	611.200
400.307	21.924	806.551	611.068
401.321	22.015	806.064	610.963
402.336	21.967	805.724	610.484
403.350	22.358	805.116	611.327
404.365	22.380	805.131	611.360
405.380	22.626	804.677	611.817
406.394	22.708	803.798	611.378
407.409	22.769	804.079	611.747
408.423	22.870	803.582	611.666
409.438	22.937	803.292	611.624
410.453	23.013	802.744	611.413
411.467	23.100	802.247	611.282
412.482	23.224	801.888	611.382
413.496	23.198	801.667	611.072
414.511	23.163	801.350	610.655
415.526	22.993	800.743	609.552
416.540	22.974	800.094	608.939
417.555	23.031	799.652	608.745
418.569	22.956	799.141	608.043
419.584	22.886	798.827	607.509
420.599	23.032	798.173	607.459
421.613	165.212	1371.591	1797.227
422.628	143.502	1455.129	1797.321
