DTS Sentinel unit serial number:	SN413079Multiplexer serial number:	ORYXHardware model number:	OX4-SRSoftware version number:	ORYX F/W v4.00 Oryx Data Collector v3.7.2.0data status	okinstallation	princeton_trtdifferential loss correction	single-endedforward channel	channel 1reverse channel	N/Adate	2019/09/19time	03:58:35forward acquisition time	60.00reverse acquisition time	0.00gamma	496.2192k internal	0.2343k external	0.2343temperature offset calibration	1.0016default loss term (dB/km)	0.3790temperature slope calibration	1.0000multiplexer offset coefficient	1.0000multiplexer slope coefficient	1.0000fibre end	0.00T internal ref (°C)	20.44T ext. ref 1 (°C)	0.63T ext. ref 2 (°C)	14.12length (m)	temperature (°C)	Stokes	anti-Stokes-747.200	72.857	-0.073	0.076
-746.185	57.366	-0.074	0.072
-745.171	800.000	-0.056	-0.228
-744.156	302.034	0.119	0.221
-743.142	360.848	-0.140	-0.281
-742.127	41.081	-0.275	0.249
-741.112	-200.000	-0.008	-0.113
-740.098	-200.000	-0.017	0.319
-739.083	-200.000	0.005	0.148
-738.069	-89.242	-0.423	-0.125
-737.054	69.400	0.077	0.079
-736.039	-119.385	-0.229	0.040
-735.025	-36.506	0.054	-0.029
-734.010	331.883	0.131	-0.253
-732.996	400.105	0.052	-0.110
-731.981	268.495	-0.138	-0.242
-730.966	-18.469	-0.296	-0.185
-729.952	-62.230	-0.142	0.059
-728.937	800.000	-0.098	-0.332
-727.923	49.351	-0.079	-0.074
-726.908	-200.000	-0.022	-0.349
-725.894	84.822	-0.238	-0.261
-724.879	-184.548	0.282	-0.005
-723.864	-71.187	-0.286	0.107
-722.850	195.230	-0.129	0.197
-721.835	223.116	0.090	-0.146
-720.821	581.748	0.094	0.231
-719.806	66.044	-0.175	-0.177
-718.791	197.412	-0.104	-0.159
-717.777	-52.516	-0.178	-0.082
-716.762	-73.568	0.072	0.026
-715.748	153.796	-0.081	0.111
-714.733	165.621	-0.184	-0.260
-713.718	30.164	-0.269	-0.229
-712.704	-8.289	0.304	0.205
-711.689	-51.765	0.143	-0.067
-710.675	-200.000	-0.008	0.143
-709.660	258.266	0.112	0.194
-708.645	16.461	-0.229	-0.181
-707.631	412.157	0.153	0.324
-706.616	-48.304	-0.299	-0.144
-705.602	233.694	0.115	-0.189
-704.587	-16.775	-0.202	-0.128
-703.572	101.384	0.104	-0.122
-702.558	-4.642	-0.085	0.059
-701.543	-100.507	0.110	-0.027
-700.529	214.544	-0.202	0.320
-699.514	656.637	0.024	0.062
-698.499	-200.000	0.022	-0.135
-697.485	89.692	0.103	0.115
-696.470	-26.725	0.216	-0.126
-695.456	-200.000	0.033	-0.281
-694.441	-200.000	0.028	-0.289
-693.426	407.184	-0.052	-0.110
-692.412	704.189	0.051	-0.135
-691.397	459.232	0.117	-0.260
-690.383	800.000	-0.148	-0.429
-689.368	-200.000	0.002	0.112
-688.354	-54.173	-0.160	0.073
-687.339	226.322	-0.057	-0.093
-686.324	-200.000	0.011	0.168
-685.310	-45.799	0.118	0.058
-684.295	-200.000	0.031	0.204
-683.281	-160.774	-0.071	-0.004
-682.266	-200.000	0.014	0.191
-681.251	-42.871	0.399	0.202
-680.237	39.156	-0.249	0.222
-679.222	-71.255	-0.373	-0.140
-678.208	-200.000	-0.035	-0.185
-677.193	626.424	0.112	-0.283
-676.178	800.000	-0.072	-0.250
-675.164	-200.000	-0.002	0.146
-674.149	-0.942	0.176	0.125
-673.135	122.917	0.138	-0.173
-672.120	-200.000	-0.039	-0.181
-671.105	146.618	-0.134	0.179
-670.091	-193.030	0.213	-0.002
-669.076	-0.506	-0.171	0.121
-668.062	-200.000	0.013	-0.190
-667.047	743.598	-0.064	0.171
-666.032	226.823	0.144	0.234
-665.018	800.000	0.026	-0.108
-664.003	-56.453	-0.123	0.054
-662.989	-200.000	-0.023	-0.139
-661.974	-131.321	-0.362	0.048
-660.959	-200.000	-0.002	-0.301
-659.945	31.851	-0.219	0.188
-658.930	204.605	0.132	0.204
-657.916	-200.000	0.042	-0.390
-656.901	-200.000	-0.010	0.143
-655.886	-9.963	0.105	0.069
-654.872	-60.269	-0.283	-0.120
-653.857	428.500	-0.039	0.084
-652.843	-110.589	0.129	-0.027
-651.828	-73.613	0.189	0.069
-650.814	185.195	0.052	-0.077
-649.799	47.089	-0.138	-0.128
-648.784	227.934	-0.173	0.280
-647.770	96.673	0.031	0.035
-646.755	31.442	-0.199	0.171
-645.741	156.844	-0.155	-0.213
-644.726	59.838	0.079	-0.078
-643.711	800.000	0.125	-0.396
-642.697	-56.067	-0.200	-0.089
-641.682	-200.000	-0.098	-0.432
-640.668	800.000	-0.072	-0.201
-639.653	90.849	0.084	0.094
-638.638	-200.000	0.014	0.187
-637.624	-45.122	-0.359	-0.178
-636.609	-165.823	0.347	-0.015
-635.595	-200.000	-0.069	-0.332
-634.580	-100.966	-0.179	-0.044
-633.565	-79.923	0.204	-0.068
-632.551	-143.361	-0.246	-0.023
-631.536	376.480	-0.058	-0.117
-630.522	530.728	0.065	-0.153
-629.507	-22.654	-0.282	-0.170
-628.492	-94.752	0.153	0.041
-627.478	76.270	-0.195	-0.206
-626.463	-200.000	-0.003	-0.100
-625.449	-74.398	0.334	0.120
-624.434	-134.588	-0.287	-0.035
-623.419	273.688	0.100	0.176
-622.405	-49.922	-0.356	-0.168
-621.390	395.812	-0.190	0.394
-620.376	-192.736	-0.530	0.005
-619.361	59.691	0.136	0.133
-618.346	48.103	-0.246	0.229
-617.332	0.791	-0.106	0.076
-616.317	185.313	0.123	-0.182
-615.303	-138.892	-0.362	0.039
-614.288	-140.485	0.092	0.010
-613.273	-124.988	-0.164	0.025
-612.259	135.795	-0.069	0.090
-611.244	-11.378	-0.112	0.073
-610.230	-200.000	0.005	0.059
-609.215	-16.506	-0.159	0.100
-608.201	-62.259	-0.291	-0.121
-607.186	-96.734	-0.130	0.034
-606.171	-200.000	-0.006	-0.141
-605.157	228.925	-0.142	0.230
-604.142	799.810	0.060	0.164
-603.128	481.991	0.018	0.040
-602.113	-200.000	-0.042	0.317
-601.098	-7.913	0.118	-0.079
-600.084	124.279	-0.165	-0.206
-599.069	20.917	0.105	-0.085
-598.055	-42.666	0.048	-0.024
-597.040	-53.196	-0.294	-0.134
-596.025	102.662	0.045	0.053
-595.011	-92.959	-0.240	-0.067
-593.996	-63.636	0.303	-0.124
-592.982	670.901	-0.020	0.052
-591.967	-200.000	-0.017	0.094
-590.952	390.868	-0.125	-0.259
-589.938	519.394	0.066	-0.154
-588.923	145.944	0.126	-0.168
-587.909	800.000	0.089	0.307
-586.894	45.644	-0.084	0.077
-585.879	-200.000	0.038	-0.316
-584.865	-161.877	0.285	-0.014
-583.850	316.871	-0.063	-0.119
-582.836	128.851	-0.150	-0.190
-581.821	-156.582	0.107	-0.007
-580.806	-117.022	-0.159	0.029
-579.792	643.488	-0.014	0.037
-578.777	-200.000	-0.070	-0.423
-577.763	195.888	-0.126	-0.191
-576.748	-28.696	-0.191	-0.109
-575.733	-26.145	-0.093	-0.054
-574.719	178.700	-0.101	-0.147
-573.704	65.553	0.128	0.129
-572.690	-72.106	-0.236	-0.087
-571.675	-107.996	-0.259	0.056
-570.661	13.380	0.356	-0.274
-569.646	44.952	-0.219	0.200
-568.631	-124.710	0.153	-0.024
-567.617	68.626	0.155	0.158
-566.602	10.368	0.115	-0.087
-565.588	-200.000	0.006	-0.259
-564.573	382.732	0.090	0.185
-563.558	-120.965	0.118	0.020
-562.544	-200.000	-0.354	-0.001
-561.529	256.564	0.038	-0.064
-560.515	-159.085	0.031	-0.002
-559.500	6.613	-0.441	-0.326
-558.485	62.902	-0.101	0.100
-557.471	800.000	-0.174	-0.659
-556.456	800.000	-0.089	0.376
-555.442	140.495	-0.060	-0.078
-554.427	82.370	0.097	-0.105
-553.412	-47.744	-0.151	-0.073
-552.398	-200.000	-0.003	0.064
-551.383	-200.000	-0.043	0.286
-550.369	-200.000	0.013	0.126
-549.354	249.486	0.153	0.257
-548.339	-30.939	-0.294	-0.165
-547.325	-14.079	0.115	-0.073
-546.310	308.032	-0.094	0.175
-545.296	-26.346	-0.298	-0.173
-544.281	800.000	0.026	0.105
-543.266	800.000	-0.080	0.221
-542.252	800.000	0.067	-0.287
-541.237	588.856	-0.029	-0.071
-540.223	-49.844	0.347	0.164
-539.208	-101.793	-0.043	-0.010
-538.193	-200.000	-0.016	0.313
-537.179	-185.501	0.111	-0.002
-536.164	32.024	-0.180	0.154
-535.150	83.055	0.127	0.137
-534.135	290.304	0.119	0.214
-533.121	-200.000	0.022	-0.167
-532.106	-30.956	-0.392	-0.220
-531.091	800.000	-0.169	-0.603
-530.077	483.561	-0.186	-0.421
-529.062	800.000	-0.039	0.153
-528.048	-157.182	0.152	-0.009
-527.033	-200.000	0.028	0.147
-526.018	-142.465	-0.049	0.005
-525.004	107.530	0.372	-0.439
-523.989	-200.000	0.015	0.184
-522.975	89.160	-0.162	-0.179
-521.960	581.170	0.061	-0.148
-520.945	-41.591	0.284	-0.145
-519.931	-79.995	-0.036	-0.012
-518.916	173.107	0.057	-0.082
-517.902	57.035	0.148	0.143
-516.887	-95.877	-0.219	-0.058
-515.872	-24.903	-0.143	0.084
-514.858	800.000	-0.120	0.429
-513.843	47.156	0.147	-0.136
-512.829	695.687	-0.125	0.325
-511.814	-14.773	0.131	0.084
-510.799	-4.932	0.045	-0.030
-509.785	-200.000	-0.104	0.493
-508.770	217.343	0.027	0.042
-507.756	-7.830	-0.526	-0.352
-506.741	-96.892	0.136	-0.036
-505.726	-158.128	0.096	-0.006
-504.712	-90.993	-0.193	0.055
-503.697	800.000	-0.036	-0.128
-502.683	-8.449	0.089	-0.059
-501.668	-160.223	-0.296	0.016
-500.653	-200.000	-0.043	0.189
-499.639	-30.115	-0.086	-0.048
-498.624	2.128	-0.129	-0.092
-497.610	-40.266	-0.207	0.107
-496.595	-48.588	0.217	-0.103
-495.581	135.973	-0.080	0.103
-494.566	-200.000	-0.021	-0.097
-493.551	-99.996	0.260	-0.064
-492.537	453.219	0.075	0.165
-491.522	-200.000	-0.029	0.326
-490.508	459.279	-0.096	-0.211
-489.493	37.353	-0.100	0.088
-488.478	12.832	-0.091	0.070
-487.464	-81.002	-0.070	0.023
-486.449	65.224	-0.433	-0.434
-485.435	694.344	0.109	-0.284
-484.420	313.580	-0.150	-0.279
-483.405	87.132	-0.091	0.100
-482.391	-200.000	-0.002	-0.054
-481.376	233.588	-0.107	0.174
-480.362	37.011	0.373	0.327
-479.347	800.000	0.040	-0.159
-478.332	-200.000	0.003	-0.036
-477.318	747.023	-0.107	-0.287
-476.303	-200.000	0.037	-0.655
-475.289	-72.578	0.256	0.094
-474.274	-20.628	0.149	-0.090
-473.259	122.142	0.196	-0.242
-472.245	800.000	0.194	-0.563
-471.230	-200.000	0.181	0.001
-470.216	-192.044	-0.099	-0.001
-469.201	6.480	-0.218	0.161
-468.186	-68.573	-0.166	-0.064
-467.172	74.546	-0.304	0.317
-466.157	-109.940	-0.269	0.056
-465.143	73.588	-0.160	0.166
-464.128	121.042	-0.112	0.138
-463.113	-121.301	-0.301	-0.050
-462.099	-124.795	0.129	-0.020
-461.084	-109.679	-0.134	-0.028
-460.070	800.000	-0.049	0.159
-459.055	58.278	0.069	-0.067
-458.040	-2.814	0.279	0.193
-457.026	800.000	0.134	0.443
-456.011	800.000	-0.056	0.184
-454.997	268.851	0.109	-0.189
-453.982	-124.491	0.450	0.069
-452.968	370.723	-0.055	-0.110
-451.953	-12.294	-0.303	0.196
-450.938	172.816	-0.029	-0.041
-449.924	-200.000	-0.035	-0.226
-448.909	-200.000	0.007	0.539
-447.895	-78.800	-0.320	-0.108
-446.880	-127.685	0.421	-0.060
-445.865	406.150	0.166	0.347
-444.851	33.611	-0.322	-0.277
-443.836	-200.000	0.064	-0.290
-442.822	-150.066	0.100	-0.008
-441.807	270.406	-0.224	0.389
-440.792	-80.059	-0.248	-0.082
-439.778	-90.659	-0.150	0.043
-438.763	-151.023	-0.197	-0.015
-437.749	-200.000	0.052	-0.383
-436.734	-65.711	-0.141	-0.056
-435.719	-52.877	-0.210	0.096
-434.705	-200.000	-0.012	-0.528
-433.690	-200.000	-0.029	0.159
-432.676	283.033	0.223	0.395
-431.661	-200.000	-0.025	-0.125
-430.646	24.735	-0.312	-0.256
-429.632	-92.274	0.562	-0.157
-428.617	-150.227	-0.327	-0.025
-427.603	135.753	-0.210	0.271
-426.588	79.815	-0.086	-0.092
-425.573	-172.041	0.424	0.014
-424.559	277.642	-0.129	0.228
-423.544	473.897	0.055	0.122
-422.530	-200.000	0.005	-0.248
-421.515	-200.000	0.019	0.133
-420.500	-18.327	0.085	-0.052
-419.486	431.288	-0.034	-0.072
-418.471	112.220	-0.055	0.066
-417.457	800.000	-0.014	0.055
-416.442	-77.334	0.478	-0.164
-415.428	101.447	-0.162	0.187
-414.413	223.682	0.189	-0.301
-413.398	-150.039	-0.178	-0.014
-412.384	36.738	0.097	-0.085
-411.369	-200.000	-0.002	0.213
-410.355	-127.069	0.212	-0.031
-409.340	-200.000	0.005	-0.213
-408.325	-159.451	-0.280	0.015
-407.311	-200.000	0.051	-0.282
-406.296	-200.000	-0.000	-0.138
-405.282	-16.281	-0.217	0.136
-404.267	-200.000	0.006	-0.185
-403.252	390.593	0.067	-0.137
-402.238	-200.000	-0.007	-0.470
-401.223	443.602	-0.135	-0.292
-400.209	800.000	0.034	0.110
-399.194	-26.845	-0.176	-0.101
-398.179	175.590	-0.329	0.471
-397.165	173.711	-0.230	-0.329
-396.150	12.811	0.137	0.104
-395.136	693.441	0.041	0.107
-394.121	-32.972	-0.088	-0.048
-393.106	-200.000	0.001	-0.075
-392.092	-200.000	0.010	-0.062
-391.077	-104.867	0.208	0.047
-390.063	55.458	0.112	0.107
-389.048	260.943	0.230	0.393
-388.033	-100.830	0.110	0.027
-387.019	-73.600	-0.246	-0.089
-386.004	97.871	-0.157	-0.179
-384.990	-81.569	-0.341	-0.111
-383.975	800.000	0.065	-0.236
-382.960	-86.443	0.164	-0.050
-381.946	-100.070	-0.092	0.023
-380.931	800.000	0.033	0.110
-379.917	800.000	-0.068	0.262
-378.902	800.000	-0.081	-0.343
-377.888	-200.000	0.024	0.172
-376.873	-84.954	0.471	-0.146
-375.858	-31.621	0.156	-0.086
-374.844	-200.000	-0.002	-0.120
-373.829	-72.633	0.182	-0.066
-372.815	800.000	0.102	0.360
-371.800	-100.373	-0.286	0.070
-370.785	-200.000	0.028	0.146
-369.771	236.546	-0.023	-0.037
-368.756	-15.258	-0.188	0.119
-367.742	-189.374	-0.092	0.001
-366.727	212.544	0.085	0.133
-365.712	-68.349	-0.205	-0.078
-364.698	800.000	-0.041	0.170
-363.683	300.728	-0.120	-0.218
-362.669	-101.339	0.263	-0.063
-361.654	-53.652	0.234	0.105
-360.639	225.322	-0.183	-0.293
-359.625	-95.896	0.488	-0.128
-358.610	510.394	-0.089	0.205
-357.596	141.341	-0.079	0.104
-356.581	800.000	0.053	-0.199
-355.566	-200.000	-0.009	0.183
-354.552	800.000	0.063	0.182
-353.537	-34.349	-0.230	-0.124
-352.523	-175.309	-0.013	-0.000
-351.508	-200.000	-0.021	0.406
-350.493	-135.946	0.316	-0.037
-349.479	-200.000	-0.038	0.196
-348.464	267.481	-0.174	-0.300
-347.450	23.047	0.109	0.088
-346.435	-38.837	-0.157	0.081
-345.420	-62.290	0.296	-0.122
-344.406	-67.661	0.310	0.120
-343.391	-81.048	-0.409	0.133
-342.377	-73.083	0.017	-0.006
-341.362	583.175	0.119	-0.287
-340.348	-152.984	-0.208	0.014
-339.333	-121.029	0.277	0.046
-338.318	-200.000	-0.026	0.192
-337.304	56.490	0.208	0.200
-336.289	660.883	0.065	-0.164
-335.275	-26.913	0.423	0.243
-334.260	800.000	0.056	0.222
-333.245	515.783	0.186	0.429
-332.231	110.393	-0.184	0.218
-331.216	-171.884	0.093	0.003
-330.202	-162.106	0.188	0.009
-329.187	-35.826	0.202	-0.108
-328.172	-46.693	0.316	0.152
-327.158	-73.533	-0.410	0.147
-326.143	-15.775	-0.150	-0.094
-325.129	-200.000	0.023	-0.143
-324.114	-200.000	0.019	-0.107
-323.099	695.797	-0.105	-0.273
-322.085	800.000	-0.045	0.178
-321.070	26.064	0.083	-0.068
-320.056	-127.673	0.267	0.038
-319.041	-129.761	0.262	0.035
-318.026	-200.000	0.022	-0.149
-317.012	-159.098	0.127	-0.007
-315.997	127.094	0.057	-0.071
-314.983	443.608	-0.122	-0.263
-313.968	800.000	0.046	-0.140
-312.953	647.246	0.113	0.284
-311.939	64.178	-0.246	0.244
-310.924	-22.780	-0.133	-0.079
-309.910	-38.615	0.270	0.140
-308.895	-1.446	-0.249	0.173
-307.880	72.704	0.358	0.368
-306.866	-63.443	-0.179	0.073
-305.851	95.738	0.278	-0.313
-304.837	104.787	0.227	0.264
-303.822	379.268	-0.079	0.159
-302.807	-71.208	-0.163	0.060
-301.793	-108.266	-0.099	0.021
-300.778	-200.000	0.007	-0.101
-299.764	800.000	0.013	-0.051
-298.749	800.000	-0.040	-0.118
-297.735	30.097	0.155	0.130
-296.720	-200.000	0.011	0.122
-295.705	-167.973	-0.013	-0.001
-294.691	137.982	-0.175	0.226
-293.676	-134.169	-0.150	0.018
-292.662	-44.395	-0.150	-0.074
-291.647	387.960	-0.044	0.090
-290.632	21.451	0.343	0.275
-289.618	-200.000	0.032	0.202
-288.603	-200.000	-0.018	0.123
-287.589	-46.522	0.126	-0.061
-286.574	800.000	-0.075	0.316
-285.559	800.000	0.106	0.297
-284.545	46.959	-0.290	-0.265
-283.530	121.985	-0.130	0.159
-282.516	390.637	0.106	-0.216
-281.501	-72.574	-0.566	-0.206
-280.486	-17.868	-0.245	-0.151
-279.472	254.129	0.063	0.107
-278.457	-38.438	0.269	-0.140
-277.443	565.250	0.115	-0.273
-276.428	406.699	0.110	-0.229
-275.413	-200.000	0.035	0.228
-274.399	800.000	0.121	0.478
-273.384	-200.000	-0.013	0.245
-272.370	203.308	0.165	-0.251
-271.355	195.910	0.074	-0.111
-270.340	800.000	0.175	0.502
-269.326	-131.269	-0.475	0.062
-268.311	47.690	0.253	0.232
-267.297	358.630	0.119	0.234
-266.282	-92.651	0.157	-0.043
-265.267	-118.251	0.209	-0.037
-264.253	48.924	-0.111	-0.102
-263.238	-125.928	0.107	0.016
-262.224	-54.302	-0.159	-0.071
-261.209	15.207	-0.069	-0.053
-260.195	-13.652	-0.273	-0.174
-259.180	-80.853	0.111	-0.036
-258.165	800.000	0.007	0.028
-257.151	-111.752	-0.013	0.003
-256.136	-147.611	-0.551	-0.046
-255.122	-200.000	0.005	0.089
-254.107	-200.000	0.003	0.078
-253.092	-200.000	-0.082	-0.380
-252.078	-200.000	-0.041	0.337
-251.063	-117.558	0.141	-0.025
-250.049	487.220	-0.069	-0.155
-249.034	42.803	0.291	-0.260
-248.019	-107.246	0.316	-0.068
-247.005	-27.938	0.227	-0.129
-245.990	22.317	0.049	0.039
-244.976	6.248	0.134	-0.098
-243.961	-150.664	0.135	0.010
-242.946	-174.048	0.291	-0.008
-241.932	-120.557	0.233	-0.039
-240.917	12.276	0.125	-0.095
-239.903	-162.952	-0.215	0.010
-238.888	274.274	0.029	-0.050
-237.873	216.824	-0.194	-0.304
-236.859	-1.532	0.172	0.119
-235.844	-172.646	0.333	0.010
-234.830	171.524	0.138	-0.195
-233.815	-11.823	-0.126	-0.081
-232.800	52.748	0.237	0.223
-231.786	241.355	0.127	-0.208
-230.771	24.473	0.058	-0.047
-229.757	-200.000	0.037	0.318
-228.742	-200.000	0.061	-0.425
-227.727	206.500	0.034	0.052
-226.713	-59.848	0.422	0.177
-225.698	-155.798	0.208	-0.013
-224.684	-200.000	0.009	-0.039
-223.669	108.525	0.298	-0.349
-222.655	118.233	-0.040	0.049
-221.640	-200.000	-0.001	0.254
-220.625	132.992	-0.146	0.184
-219.611	-9.587	-0.101	0.066
-218.596	543.245	-0.058	0.135
-217.582	-110.222	-0.150	-0.031
-216.567	-200.000	0.026	-0.183
-215.552	35.609	-0.102	-0.087
-214.538	78.780	0.136	0.143
-213.523	-107.404	-0.209	-0.045
-212.509	172.974	0.279	0.394
-211.494	14.049	-0.248	-0.189
-210.479	-62.090	-0.312	-0.128
-209.465	9.253	0.237	0.175
-208.450	66.946	-0.126	0.126
-207.436	-200.000	-0.004	0.219
-206.421	92.812	0.223	-0.246
-205.406	-128.153	0.303	-0.043
-204.392	53.728	0.109	-0.103
-203.377	-83.431	0.211	-0.066
-202.363	168.528	-0.168	0.234
-201.348	-200.000	-0.045	-0.213
-200.333	-200.000	0.002	-0.182
-199.319	-172.358	0.151	-0.005
-198.304	800.000	0.052	0.143
-197.290	573.514	-0.091	0.217
-196.275	8.384	-0.187	-0.138
-195.260	59.707	-0.026	-0.025
-194.246	-34.321	-0.150	-0.080
-193.231	800.000	0.027	-0.086
-192.217	-200.000	-0.003	-0.089
-191.202	-200.000	0.025	0.350
-190.187	-200.000	-0.012	0.387
-189.173	-54.184	0.402	-0.179
-188.158	54.090	-0.062	0.058
-187.144	-150.974	0.106	-0.008
-186.129	800.000	-0.047	0.128
-185.114	292.688	0.228	-0.408
-184.100	612.698	-0.146	0.357
-183.085	257.307	0.245	0.412
-182.071	-200.000	-0.024	0.138
-181.056	-200.000	-0.001	-0.064
-180.042	800.000	0.105	0.397
-179.027	-38.540	0.386	-0.200
-178.012	-200.000	0.038	-0.214
-176.998	-6.489	0.324	0.216
-175.983	27.711	-0.196	0.162
-174.969	-78.714	-0.235	0.078
-173.954	-61.669	0.170	0.070
-172.939	-21.369	0.248	0.149
-171.925	-38.884	0.250	0.129
-170.910	103.496	-0.277	0.319
-169.896	107.100	0.106	-0.123
-168.881	66.035	0.081	-0.081
-167.866	10.502	-0.095	-0.071
-166.852	-16.856	0.099	-0.061
-165.837	-84.249	-0.311	-0.096
-164.823	-73.599	0.587	0.209
-163.808	157.726	0.032	-0.043
-162.793	-200.000	0.018	-0.193
-161.779	-200.000	-0.010	0.176
-160.764	539.553	0.077	-0.178
-159.750	51.971	0.144	-0.135
-158.735	53.101	0.210	0.197
-157.720	736.666	-0.032	0.084
-156.706	-93.978	0.494	-0.133
-155.691	-200.000	0.000	0.196
-154.677	12.496	0.214	0.161
-153.662	-74.206	0.276	0.098
-152.647	470.649	-0.166	0.365
-151.633	-43.894	-0.094	-0.046
-150.618	800.000	-0.022	0.073
-149.604	66.675	-0.128	0.128
-148.589	-108.263	-0.190	0.040
-147.574	512.098	-0.070	0.159
-146.560	14.559	-0.218	0.166
-145.545	800.000	-0.096	-0.373
-144.531	-9.279	-0.338	0.221
-143.516	303.661	-0.089	-0.161
-142.502	-3.880	0.240	0.163
-141.487	7.772	-0.347	0.254
-140.472	325.248	0.169	0.316
-139.458	49.717	-0.129	-0.119
-138.443	223.519	0.157	-0.248
-137.429	612.125	0.054	-0.133
-136.414	-200.000	0.032	-0.251
-135.399	-135.907	-0.159	0.018
-134.385	248.465	0.112	0.185
-133.370	-104.490	-0.214	-0.048
-132.356	0.377	-0.223	-0.156
-131.341	-28.556	-0.104	-0.059
-130.326	152.513	0.305	-0.407
-129.312	-200.000	-0.027	-0.158
-128.297	330.977	-0.112	-0.210
-127.283	6.436	0.231	0.167
-126.268	-200.000	-0.002	0.180
-125.253	-57.261	-0.379	0.163
-124.239	-12.048	0.285	0.183
-123.224	-123.146	-0.167	-0.026
-122.210	640.271	-0.043	-0.106
-121.195	-200.000	-0.030	0.310
-120.180	-63.987	0.181	0.072
-119.166	18.644	-0.320	-0.250
-118.151	164.845	-0.150	-0.207
-117.137	51.966	0.228	0.212
-116.122	35.407	0.334	0.286
-115.107	-115.161	-0.177	0.033
-114.093	-84.939	0.246	-0.075
-113.078	-148.521	-0.157	0.013
-112.064	-52.685	0.102	-0.046
-111.049	-28.786	0.329	-0.185
-110.034	-145.843	-0.224	0.019
-109.020	-23.126	-0.289	-0.170
-108.005	-5.586	0.101	0.068
-106.991	143.710	-0.207	-0.270
-105.976	146.026	0.058	-0.076
-104.962	-82.675	0.204	0.064
-103.947	-176.071	0.350	-0.009
-102.932	-48.234	0.132	0.062
-101.918	298.165	-0.052	0.094
-100.903	145.022	0.189	0.246
-99.889	285.771	-0.135	0.237
-98.874	800.000	-0.058	0.220
-97.859	-200.000	0.056	-0.398
-96.845	-110.296	-0.104	-0.021
-95.830	-128.306	0.151	-0.021
-94.816	800.000	-0.063	0.195
-93.801	-87.900	-0.183	0.054
-92.786	480.907	0.044	-0.097
-91.772	-25.745	0.221	0.127
-90.757	195.920	0.168	0.250
-89.743	156.897	0.166	-0.224
-88.728	79.954	-0.033	-0.034
-87.713	800.000	0.049	-0.178
-86.699	-163.954	0.272	-0.012
-85.684	-126.592	-0.085	0.012
-84.670	159.430	0.149	0.203
-83.655	-83.846	-0.091	-0.028
-82.640	75.699	-0.072	0.074
-81.626	385.847	0.108	-0.217
-80.611	201.901	0.069	0.104
-79.597	-32.484	0.161	-0.087
-78.582	107.440	-0.089	0.103
-77.567	58.327	0.198	-0.189
-76.553	271.313	-0.159	-0.273
-75.538	-90.749	-0.121	-0.034
-74.524	4.763	0.192	-0.138
-73.509	-83.597	-0.196	-0.061
-72.494	-52.059	0.088	-0.040
-71.480	-200.000	-0.052	-0.355
-70.465	-95.655	-0.292	0.076
-69.451	800.000	0.067	0.213
-68.436	-200.000	-0.035	-0.255
-67.422	800.000	0.039	0.130
-66.407	800.000	-0.041	-0.120
-65.392	-81.043	0.258	0.083
-64.378	127.760	0.019	-0.024
-63.363	-200.000	0.054	-0.234
-62.349	53.766	0.296	0.277
-61.334	68.846	-1.135	-1.137
-60.319	265.992	0.618	1.051
-59.305	730.173	-0.491	-1.278
-58.290	174.367	1.016	1.432
-57.276	580.637	0.700	1.672
-56.261	-200.000	136.205	658.777
-55.246	334.869	1670.800	3155.356
-54.232	134.538	2798.008	3538.262
-53.217	84.961	2170.772	2319.312
-52.203	31.227	1601.829	1340.006
-51.188	23.430	1352.088	1083.589
-50.173	21.395	1316.751	1043.099
-49.159	48.786	1390.237	1270.997
-48.144	44.813	1399.194	1254.732
-47.130	23.703	1346.925	1080.942
-46.115	20.544	1328.385	1047.022
-45.100	20.435	1322.723	1041.862
-44.086	20.431	1319.579	1039.322
-43.071	20.285	1317.434	1036.722
-42.057	20.266	1315.837	1035.306
-41.042	20.439	1313.673	1034.594
-40.027	20.341	1313.063	1033.489
-39.013	20.363	1310.876	1031.860
-37.998	20.238	1309.759	1030.195
-36.984	20.440	1307.782	1029.797
-35.969	20.402	1305.670	1027.871
-34.954	20.461	1304.037	1026.893
-33.940	20.468	1302.877	1025.979
-32.925	20.538	1301.062	1024.920
-31.911	20.600	1300.105	1024.492
-30.896	20.541	1298.434	1022.788
-29.881	20.501	1297.449	1021.738
-28.867	20.550	1296.171	1020.975
-27.852	20.481	1294.809	1019.458
-26.838	20.597	1293.169	1018.806
-25.823	20.497	1291.486	1016.856
-24.809	20.457	1290.839	1016.075
-23.794	20.449	1288.865	1014.431
-22.779	20.527	1287.277	1013.598
-21.765	20.527	1286.381	1012.850
-20.750	20.476	1285.492	1011.814
-19.736	20.549	1283.972	1011.004
-18.721	20.448	1282.592	1009.289
-17.706	20.481	1281.827	1008.837
-16.692	20.438	1281.051	1007.935
-15.677	20.472	1279.469	1006.848
-14.663	20.353	1278.398	1005.277
-13.648	20.357	1277.517	1004.565
-12.633	20.323	1276.703	1003.693
-11.619	20.408	1275.479	1003.179
-10.604	20.453	1275.188	1003.172
-9.590	20.332	1274.270	1001.712
-8.575	20.354	1273.024	1000.820
-7.560	20.419	1272.020	1000.362
-6.546	20.267	1271.621	999.138
-5.531	20.314	1270.634	998.590
-4.517	20.325	1269.913	998.048
-3.502	20.480	1268.603	997.866
-2.487	20.271	1268.186	996.300
-1.473	20.366	1263.579	993.188
-0.458	18.651	1247.937	971.153
0.556	14.278	1232.739	934.692
1.571	10.585	1240.893	919.886
2.586	10.014	1255.860	927.620
3.600	10.027	1243.980	918.840
4.615	7.578	1172.230	852.630
5.629	2.871	1103.332	778.621
6.644	0.797	1087.610	757.082
7.659	0.525	1086.136	754.628
8.673	0.588	1084.864	753.994
9.688	0.620	1083.927	753.436
10.702	0.612	1081.289	751.495
11.717	3.531	1083.971	767.838
12.731	9.844	1092.660	805.512
13.746	15.258	1099.251	837.418
14.761	17.111	1101.679	848.459
15.775	16.423	1100.109	843.742
16.790	15.415	1098.191	837.169
17.804	14.838	1096.316	832.792
18.819	14.469	1095.145	829.991
19.834	14.272	1094.597	828.525
20.848	13.972	1093.672	826.260
21.863	13.900	1092.520	824.957
22.877	13.661	1091.822	823.173
23.892	13.616	1091.187	822.397
24.907	13.641	1090.459	821.899
25.921	13.567	1089.988	821.106
26.936	13.744	1088.508	820.795
27.950	13.725	1087.705	820.019
28.965	13.737	1086.231	818.895
29.980	13.762	1085.072	818.071
30.994	13.807	1083.808	817.270
32.009	13.982	1082.739	817.249
33.023	13.929	1081.751	816.173
34.038	13.866	1080.862	815.122
35.053	13.756	1080.201	814.010
36.067	13.819	1079.302	813.569
37.082	13.740	1078.491	812.497
38.096	13.819	1077.807	812.301
39.111	13.814	1076.781	811.432
40.126	13.637	1076.116	809.992
41.140	13.666	1074.326	808.715
42.155	13.617	1073.569	807.834
43.169	13.587	1072.019	806.452
44.184	13.634	1071.264	806.037
45.199	13.542	1070.595	805.017
46.213	13.634	1069.141	804.300
47.228	13.726	1068.312	804.049
48.242	13.735	1067.164	803.158
49.257	13.677	1065.938	801.887
50.271	13.638	1065.503	801.300
51.286	13.684	1064.563	800.740
52.301	13.680	1063.403	799.780
53.315	13.804	1062.024	799.268
54.330	13.733	1060.920	798.024
55.344	13.626	1060.485	797.112
56.359	13.692	1059.483	796.605
57.374	13.616	1058.976	795.791
58.388	13.610	1058.291	795.175
59.403	13.508	1057.417	793.962
60.417	13.567	1056.344	793.368
61.432	13.606	1055.784	793.061
62.447	13.474	1054.740	791.579
63.461	13.561	1054.198	791.516
64.476	13.487	1053.313	790.428
65.490	13.620	1052.278	790.217
66.505	13.626	1051.082	789.278
67.520	13.556	1050.982	788.798
68.534	13.633	1049.840	788.240
69.549	13.535	1049.532	787.471
70.563	13.509	1048.661	786.622
71.578	13.554	1047.720	786.064
72.593	13.465	1047.231	785.205
73.607	13.553	1046.256	784.822
74.622	13.438	1045.528	783.660
75.636	13.515	1045.137	783.661
76.651	13.443	1044.163	782.523
77.666	13.429	1043.729	782.062
78.680	13.567	1042.749	781.910
79.695	13.611	1041.993	781.483
80.709	13.561	1041.276	780.640
81.724	13.681	1040.499	780.551
82.739	13.517	1040.203	779.490
83.753	13.576	1039.491	779.164
84.768	13.767	1038.021	778.891
85.782	13.837	1036.951	778.348
86.797	13.694	1036.202	777.044
87.812	13.639	1035.517	776.206
88.826	13.772	1034.536	776.024
89.841	13.673	1033.503	774.715
90.855	13.777	1032.427	774.328
91.870	13.818	1031.748	773.940
92.884	13.885	1030.409	773.182
93.899	13.889	1029.642	772.554
94.914	13.765	1029.057	771.470
95.928	13.661	1028.186	770.266
96.943	13.810	1027.265	770.202
97.957	13.813	1026.410	769.506
98.972	13.772	1025.397	768.486
99.987	13.725	1024.686	767.669
101.001	13.797	1023.464	767.017
102.016	13.797	1023.228	766.773
103.030	13.808	1021.905	765.766
104.045	13.797	1021.151	765.083
105.060	13.799	1020.346	764.421
106.074	13.863	1019.659	764.132
107.089	13.659	1018.433	762.209
108.103	13.718	1017.605	761.792
109.118	13.658	1016.270	760.449
110.133	13.609	1015.776	759.790
111.147	13.690	1014.839	759.389
112.162	13.814	1013.816	759.124
113.176	13.764	1013.639	758.699
114.191	13.804	1012.747	758.147
115.206	13.897	1011.279	757.406
116.220	13.835	1010.805	756.701
117.235	13.763	1009.797	755.547
118.249	13.839	1008.902	755.159
119.264	13.820	1007.902	754.256
120.279	13.734	1007.294	753.346
121.293	13.664	1006.596	752.440
122.308	13.804	1005.595	752.257
123.322	13.787	1004.507	751.300
124.337	13.678	1003.367	749.891
125.352	13.684	1002.512	749.211
126.366	13.711	1001.336	748.390
127.381	13.646	1000.519	747.415
128.395	13.606	999.569	746.460
129.410	13.691	998.428	745.924
130.424	13.744	997.539	745.435
131.439	13.820	996.636	745.035
132.454	13.590	996.715	743.993
133.468	13.774	995.575	743.905
134.483	13.821	994.457	743.213
135.497	13.681	993.877	742.086
136.512	13.684	993.039	741.409
137.527	13.895	991.737	741.314
138.541	13.801	991.281	740.490
139.556	13.743	990.835	739.830
140.570	13.726	990.037	739.092
141.585	13.894	989.505	739.379
142.600	13.962	988.104	738.566
143.614	13.799	987.974	737.681
144.629	13.968	986.197	737.041
145.643	13.898	985.361	736.038
146.658	13.930	984.492	735.465
147.673	14.026	983.430	735.034
148.687	13.999	982.751	734.339
149.702	13.998	981.564	733.387
150.716	14.015	980.758	732.791
151.731	14.006	980.251	732.310
152.746	13.930	979.515	731.361
153.760	13.912	979.207	730.984
154.775	13.836	978.990	730.424
155.789	13.947	977.849	729.995
156.804	13.985	976.966	729.442
157.819	14.121	976.171	729.380
158.833	13.997	975.927	728.586
159.848	14.144	975.045	728.508
160.862	13.975	974.094	726.993
161.877	14.049	973.095	726.508
162.892	13.876	972.404	725.171
163.906	13.972	971.195	724.627
164.921	13.999	969.992	723.781
165.935	14.071	969.317	723.528
166.950	14.054	968.953	723.118
167.964	13.991	967.594	721.765
168.979	14.154	966.282	721.429
169.994	14.128	965.536	720.698
171.008	14.137	964.932	720.219
172.023	14.098	964.466	719.641
173.037	14.162	963.858	719.398
174.052	14.139	962.687	718.364
175.067	14.209	961.925	718.034
176.081	14.169	961.421	717.421
177.096	14.073	961.045	716.663
178.110	14.098	960.094	715.998
179.125	14.177	959.947	716.165
180.140	14.101	959.256	715.260
181.154	14.257	958.561	715.349
182.169	14.388	958.018	715.440
183.183	14.271	957.627	714.583
184.198	14.330	956.184	713.696
185.213	14.382	955.843	713.601
186.227	14.250	955.510	712.724
187.242	14.510	954.772	713.225
188.256	14.311	954.272	711.938
189.271	14.366	952.981	711.146
190.286	14.252	952.407	710.169
191.300	14.251	951.457	709.390
192.315	14.144	951.097	708.607
193.329	14.200	950.633	708.434
194.344	14.068	949.948	707.301
195.359	14.379	949.112	707.936
196.373	14.336	948.524	707.253
197.388	14.390	948.240	707.206
198.402	14.441	947.508	706.818
199.417	14.506	946.810	706.506
200.432	14.617	945.963	706.284
201.446	14.526	945.987	705.854
202.461	14.678	944.953	705.661
203.475	14.630	944.254	704.874
204.490	14.600	943.893	704.415
205.504	14.643	942.845	703.753
206.519	14.657	942.022	703.134
207.534	14.559	941.673	702.399
208.548	14.583	940.811	701.799
209.563	14.644	940.341	701.641
210.577	14.661	938.997	700.647
211.592	14.670	938.360	700.145
212.607	14.760	937.935	700.144
213.621	14.732	937.169	699.395
214.636	14.764	936.226	698.760
215.650	14.804	935.567	698.374
216.665	14.802	935.428	698.201
217.680	14.774	934.620	697.418
218.694	14.803	933.340	696.526
219.709	14.847	932.831	696.265
220.723	14.806	932.673	695.917
221.738	14.864	931.574	695.277
222.753	14.931	930.765	694.888
223.767	14.927	930.497	694.609
224.782	14.852	930.110	693.948
225.796	14.936	929.165	693.531
226.811	14.850	928.943	692.947
227.826	14.891	927.967	692.326
228.840	14.906	927.475	691.963
229.855	14.897	926.520	691.151
230.869	15.087	925.240	690.917
231.884	14.819	924.907	689.504
232.899	14.884	924.224	689.202
233.913	14.985	923.356	688.908
234.928	14.846	923.010	688.017
235.942	14.908	922.244	687.639
236.957	14.931	921.649	687.231
237.972	15.035	921.008	687.118
238.986	15.029	920.430	686.603
240.001	15.157	919.599	686.445
241.015	14.970	919.328	685.419
242.030	15.032	918.444	684.950
243.045	15.125	917.629	684.664
244.059	15.083	916.995	683.957
245.074	15.132	916.485	683.717
246.088	15.149	916.223	683.529
247.103	15.207	915.604	683.246
248.117	15.091	914.966	682.233
249.132	15.289	913.876	682.166
250.147	15.295	913.504	681.854
251.161	15.336	912.623	681.302
252.176	15.320	912.475	681.067
253.190	15.375	911.413	680.439
254.205	15.369	910.890	679.962
255.220	15.498	910.286	679.975
256.234	15.465	909.456	679.159
257.249	15.361	908.738	678.142
258.263	15.429	907.990	677.799
259.278	15.410	907.334	677.173
260.293	15.507	907.047	677.291
261.307	15.580	905.935	676.696
262.322	15.616	905.385	676.369
263.336	15.568	904.631	675.553
264.351	15.567	904.137	675.121
265.366	15.633	903.600	674.923
266.380	15.725	903.066	674.834
267.395	15.566	902.431	673.665
268.409	15.603	901.834	673.305
269.424	15.652	900.751	672.633
270.439	15.602	899.993	671.806
271.453	15.630	899.394	671.415
272.468	15.667	898.961	671.179
273.482	15.596	898.096	670.189
274.497	15.636	897.214	669.630
275.512	15.728	896.956	669.746
276.526	15.647	896.478	669.007
277.541	15.756	896.206	669.181
278.555	15.862	895.196	668.789
279.570	15.913	894.424	668.353
280.585	15.887	893.654	667.615
281.599	15.742	892.816	666.357
282.614	15.820	891.994	665.993
283.628	15.857	891.848	665.969
284.643	15.962	890.837	665.572
285.657	15.850	890.561	664.865
286.672	15.934	889.806	664.573
287.687	15.826	889.285	663.699
288.701	15.896	888.733	663.504
289.716	15.939	887.880	662.980
290.730	15.912	887.620	662.620
291.745	15.959	886.875	662.190
292.760	15.864	886.691	661.622
293.774	16.055	885.548	661.459
294.789	16.142	884.619	661.048
295.803	16.151	884.044	660.595
296.818	16.078	883.350	659.733
297.833	16.118	882.856	659.461
298.847	16.003	882.383	658.600
299.862	16.071	881.471	658.128
300.876	16.077	881.174	657.869
301.891	16.229	880.383	657.814
302.906	16.335	879.608	657.591
303.920	16.151	879.822	656.973
304.935	16.313	878.852	656.820
305.949	16.247	878.040	655.902
306.964	16.290	877.651	655.721
307.979	16.260	877.100	655.135
308.993	16.373	876.455	655.030
310.008	16.304	875.874	654.270
311.022	16.343	875.192	653.854
312.037	16.247	875.134	653.381
313.052	16.344	873.941	652.809
314.066	16.220	873.440	651.899
315.081	16.369	872.660	651.832
316.095	16.237	872.633	651.248
317.110	16.214	872.093	650.698
318.125	16.391	871.328	650.752
319.139	16.294	871.063	650.121
320.154	16.360	870.341	649.777
321.168	16.439	869.802	649.622
322.183	16.520	868.701	649.054
323.197	16.364	868.991	648.615
324.212	16.332	868.251	647.880
325.227	16.373	867.581	647.481
326.241	16.324	866.943	646.762
327.256	16.460	866.312	646.754
328.270	16.460	865.712	646.247
329.285	16.548	864.888	645.911
330.300	16.554	864.333	645.464
331.314	16.492	863.948	644.880
332.329	16.554	863.689	644.868
333.343	16.562	863.125	644.419
334.358	16.536	862.746	643.981
335.373	16.685	862.400	644.234
336.387	16.531	861.937	643.245
337.402	16.555	861.526	642.973
338.416	16.630	861.059	642.852
339.431	16.594	860.891	642.531
340.446	16.627	860.419	642.247
341.460	16.675	860.001	642.061
342.475	16.690	859.479	641.670
343.489	16.817	858.937	641.691
344.504	16.845	858.525	641.434
345.519	16.986	857.574	641.201
346.533	16.952	857.474	640.937
347.548	17.012	856.739	640.558
348.562	16.843	856.135	639.413
349.577	16.740	856.140	638.970
350.592	16.702	855.550	638.330
351.606	16.843	854.214	637.809
352.621	16.869	853.816	637.553
353.635	16.823	853.423	637.031
354.650	16.920	852.549	636.685
355.665	16.859	852.017	636.002
356.679	17.066	851.017	635.977
357.694	17.108	850.081	635.379
358.708	17.079	849.739	634.956
359.723	17.079	849.541	634.751
360.738	16.980	849.008	633.928
361.752	17.054	848.119	633.486
362.767	17.063	847.533	633.025
363.781	17.060	847.128	632.656
364.796	17.211	846.526	632.713
365.810	17.190	846.411	632.490
366.825	17.287	845.759	632.309
367.840	17.380	845.238	632.209
368.854	16.985	845.318	630.747
369.869	17.132	844.619	630.713
370.883	17.245	844.140	630.720
371.898	17.287	843.926	630.658
372.913	17.256	843.523	630.188
373.927	17.289	842.838	629.744
374.942	17.308	842.427	629.450
375.956	17.178	842.131	628.692
376.971	17.459	841.047	628.865
377.986	17.358	840.849	628.288
379.000	17.570	840.356	628.648
380.015	17.389	839.889	627.574
381.029	17.485	839.296	627.431
382.044	17.518	838.831	627.150
383.059	17.446	838.061	626.253
384.073	17.406	837.797	625.852
385.088	17.421	836.901	625.185
386.102	17.486	836.333	624.942
387.117	17.414	835.933	624.324
388.132	17.574	835.216	624.319
389.146	17.498	834.724	623.617
390.161	17.618	834.166	623.585
391.175	17.560	833.807	623.049
392.190	17.686	833.326	623.096
393.205	17.616	832.901	622.466
394.219	17.526	832.523	621.799
395.234	17.560	832.214	621.640
396.248	17.521	831.587	620.974
397.263	17.497	831.399	620.690
398.278	17.486	830.751	620.112
399.292	17.626	830.919	620.691
400.307	17.524	830.011	619.587
401.321	17.572	829.640	619.430
402.336	17.590	828.898	618.889
403.350	17.685	828.474	618.861
404.365	17.767	827.827	618.622
405.380	17.821	827.084	618.207
406.394	17.975	826.698	618.419
407.409	17.789	826.997	617.915
408.423	17.828	826.236	617.435
409.438	17.983	825.446	617.350
410.453	17.978	824.908	616.875
411.467	18.038	824.581	616.790
412.482	18.059	824.169	616.503
413.496	18.019	823.953	616.144
414.511	18.035	823.508	615.812
415.526	17.933	823.092	615.082
416.540	17.946	822.920	614.945
417.555	18.052	822.340	614.839
418.569	18.007	821.820	614.233
419.584	17.989	821.494	613.871
420.599	18.090	820.894	613.732
421.613	115.872	1301.735	1493.365
422.628	100.563	1371.733	1493.418
