DTS Sentinel unit serial number:	SN413079Multiplexer serial number:	ORYXHardware model number:	OX4-SRSoftware version number:	ORYX F/W v4.00 Oryx Data Collector v3.7.2.0data status	okinstallation	princeton_trtdifferential loss correction	single-endedforward channel	channel 1reverse channel	N/Adate	2019/09/15time	20:58:35forward acquisition time	60.00reverse acquisition time	0.00gamma	496.2192k internal	0.2327k external	0.2327temperature offset calibration	0.9959default loss term (dB/km)	0.3790temperature slope calibration	1.0000multiplexer offset coefficient	1.0000multiplexer slope coefficient	1.0000fibre end	0.00T internal ref (°C)	31.89T ext. ref 1 (°C)	8.05T ext. ref 2 (°C)	24.38length (m)	temperature (°C)	Stokes	anti-Stokes-747.200	200.155	0.108	0.168
-746.185	-200.000	-0.042	0.294
-745.171	-71.931	-0.117	0.044
-744.156	800.000	-0.010	0.037
-743.142	98.981	0.297	0.346
-742.127	56.995	-0.282	0.277
-741.112	45.326	-0.078	-0.072
-740.098	-200.000	0.049	-0.230
-739.083	-165.778	-0.383	0.017
-738.069	-139.745	-0.065	-0.007
-737.054	-200.000	-0.002	0.195
-736.039	-162.649	-0.521	0.026
-735.025	800.000	0.072	0.208
-734.010	-51.458	-0.149	-0.070
-732.996	397.811	-0.128	0.270
-731.981	72.215	0.150	-0.157
-730.966	800.000	-0.057	0.161
-729.952	43.838	-0.133	0.122
-728.937	-83.104	-0.268	-0.087
-727.923	-200.000	-0.006	0.206
-726.908	-143.850	0.350	-0.033
-725.894	461.251	0.063	-0.142
-724.879	424.822	-0.062	-0.133
-723.864	0.043	-0.144	0.103
-722.850	45.809	0.135	-0.126
-721.835	-200.000	0.020	-0.356
-720.821	-25.445	-0.123	-0.073
-719.806	46.802	-0.053	0.050
-718.791	-132.304	-0.295	0.038
-717.777	-105.464	-0.346	-0.079
-716.762	-138.621	-0.227	-0.025
-715.748	-166.929	0.260	-0.011
-714.733	800.000	0.048	0.199
-713.718	127.384	0.122	0.156
-712.704	-153.702	-0.217	0.015
-711.689	576.568	-0.091	-0.223
-710.675	-97.275	-0.203	-0.053
-709.660	-185.334	0.040	-0.001
-708.645	-92.642	0.293	0.083
-707.631	-200.000	-0.063	-0.493
-706.616	219.929	0.093	0.150
-705.602	-86.940	-0.170	-0.052
-704.587	-144.984	0.252	0.023
-703.572	544.285	-0.025	0.061
-702.558	9.104	0.189	-0.144
-701.543	-67.007	-0.178	-0.071
-700.529	134.701	-0.108	0.142
-699.514	-200.000	0.010	-0.159
-698.499	387.784	-0.074	-0.155
-697.485	-13.788	-0.078	-0.051
-696.470	-63.822	0.433	0.178
-695.456	-165.947	-0.083	-0.004
-694.441	800.000	-0.090	-0.342
-693.426	1.750	-0.258	-0.187
-692.412	-78.915	-0.054	-0.019
-691.397	800.000	-0.091	-0.291
-690.383	182.523	-0.268	-0.398
-689.368	768.113	0.087	-0.237
-688.354	800.000	0.083	-0.254
-687.339	152.860	0.173	0.238
-686.324	267.298	0.059	0.103
-685.310	124.782	0.184	0.232
-684.295	-84.281	-0.447	-0.143
-683.281	800.000	0.038	-0.139
-682.266	-8.135	-0.318	0.215
-681.251	-10.987	0.266	-0.177
-680.237	685.347	-0.154	-0.404
-679.222	-200.000	0.053	0.358
-678.208	109.753	0.124	0.149
-677.193	-130.775	-0.166	-0.022
-676.178	320.457	0.095	-0.182
-675.164	-56.595	-0.011	-0.005
-674.149	-121.227	0.285	0.048
-673.135	340.355	-0.116	0.228
-672.120	302.038	-0.096	-0.179
-671.105	-5.720	-0.277	0.191
-670.091	-40.498	-0.116	-0.060
-669.076	-200.000	0.045	0.384
-668.062	-200.000	-0.003	-0.240
-667.047	-200.000	-0.006	-0.191
-666.032	413.031	-0.128	-0.273
-665.018	152.965	0.097	-0.133
-664.003	15.269	-0.166	0.131
-662.989	126.239	0.178	0.227
-661.974	800.000	-0.166	0.503
-660.959	-148.622	-0.269	-0.022
-659.945	144.102	0.183	0.245
-658.930	-200.000	-0.018	0.096
-657.916	77.578	-0.169	-0.181
-656.901	591.962	0.146	0.363
-655.886	23.201	0.167	-0.138
-654.872	28.270	-0.159	-0.135
-653.857	-200.000	0.023	-0.113
-652.843	54.186	0.156	-0.151
-651.828	-34.763	-0.321	-0.176
-650.814	117.330	-0.317	-0.391
-649.799	7.805	0.136	-0.102
-648.784	-28.612	0.157	-0.091
-647.770	458.321	0.096	-0.213
-646.755	-83.381	-0.356	-0.115
-645.741	86.432	0.192	0.213
-644.726	115.281	-0.192	-0.235
-643.711	3.814	0.208	-0.153
-642.697	56.916	-0.055	0.054
-641.682	-200.000	0.103	0.000
-640.668	114.947	0.214	0.262
-639.653	10.990	-0.077	-0.059
-638.638	-129.020	0.357	-0.050
-637.624	-18.924	-0.111	-0.070
-636.609	163.891	-0.144	0.203
-635.595	3.293	-0.225	0.164
-634.580	49.170	-0.152	0.144
-633.565	800.000	0.041	0.154
-632.551	-73.610	0.140	0.051
-631.536	800.000	0.063	0.177
-630.522	-200.000	-0.005	0.384
-629.507	606.926	0.111	-0.277
-628.492	-148.045	0.323	-0.027
-627.478	-78.411	0.375	0.129
-626.463	346.762	0.057	0.114
-625.449	-200.000	-0.009	-0.184
-624.434	44.316	-0.050	-0.046
-623.419	-25.651	-0.287	-0.170
-622.405	-63.630	0.200	0.082
-621.390	93.118	0.243	-0.275
-620.376	-1.456	0.178	0.126
-619.361	135.151	-0.336	-0.438
-618.346	-200.000	-0.008	0.107
-617.332	-149.706	-0.100	0.008
-616.317	41.470	-0.201	-0.182
-615.303	-56.831	-0.208	0.092
-614.288	-5.808	0.252	-0.173
-613.273	208.138	0.071	-0.111
-612.259	40.676	-0.204	-0.184
-611.244	-200.000	0.044	-0.199
-610.230	732.659	-0.115	0.309
-609.215	-156.570	-0.126	-0.008
-608.201	800.000	0.061	0.174
-607.186	-200.000	0.055	-0.493
-606.171	-93.978	-0.236	-0.065
-605.157	-200.000	-0.017	0.202
-604.142	-24.093	-0.248	0.148
-603.128	422.420	0.109	0.235
-602.113	60.564	0.152	-0.151
-601.098	-200.000	-0.015	-0.163
-600.084	8.500	-0.174	-0.131
-599.069	353.814	-0.163	-0.325
-598.055	-88.155	-0.280	-0.084
-597.040	185.168	0.122	-0.182
-596.025	800.000	-0.042	-0.154
-595.011	-200.000	0.011	-0.207
-593.996	236.965	-0.133	-0.220
-592.982	800.000	0.090	-0.268
-591.967	-200.000	-0.023	0.290
-590.952	800.000	0.185	0.573
-589.938	12.242	0.226	-0.174
-588.923	-101.410	0.249	0.061
-587.909	137.192	0.220	0.288
-586.894	-200.000	0.013	-0.082
-585.879	800.000	-0.060	0.171
-584.865	-154.096	0.166	0.011
-583.850	513.881	-0.058	0.135
-582.836	-81.321	-0.284	-0.094
-581.821	-200.000	-0.034	0.302
-580.806	465.508	0.082	0.185
-579.792	-200.000	-0.005	-0.090
-578.777	145.841	0.070	0.095
-577.763	-53.291	-0.179	0.082
-576.748	-200.000	0.012	-0.347
-575.733	15.275	0.111	-0.087
-574.719	-1.495	-0.145	-0.103
-573.704	-157.238	-0.162	-0.010
-572.690	-125.305	0.378	0.058
-571.675	-54.807	-0.044	0.020
-570.661	89.752	0.086	0.097
-569.646	-200.000	-0.007	0.184
-568.631	-150.608	-0.194	0.015
-567.617	800.000	0.085	-0.328
-566.602	693.987	0.027	0.071
-565.588	131.713	0.281	0.362
-564.573	619.245	-0.161	-0.405
-563.558	800.000	-0.050	-0.151
-562.544	-169.381	-0.239	0.009
-561.529	380.042	-0.141	0.289
-560.515	800.000	-0.047	0.144
-559.500	107.530	-0.208	0.248
-558.485	-50.576	0.286	-0.135
-557.471	-2.043	0.147	0.104
-556.456	667.339	0.122	0.317
-555.442	800.000	0.031	-0.117
-554.427	382.027	-0.079	0.163
-553.412	-200.000	-0.007	0.085
-552.398	-49.591	-0.339	-0.161
-551.383	-159.396	0.147	-0.008
-550.369	800.000	-0.031	-0.085
-549.354	-108.765	-0.209	0.045
-548.339	205.657	0.071	-0.110
-547.325	-121.486	0.076	-0.013
-546.310	457.128	-0.158	0.352
-545.296	757.423	0.059	-0.159
-544.281	-103.551	-0.323	0.076
-543.266	-84.952	0.329	-0.103
-542.252	455.623	-0.050	-0.111
-541.237	-158.691	-0.298	-0.017
-540.223	96.169	0.161	0.184
-539.208	-9.148	-0.066	-0.044
-538.193	-42.848	-0.103	-0.052
-537.179	684.542	0.090	-0.236
-536.164	200.489	-0.187	-0.287
-535.150	131.880	-0.084	0.108
-534.135	-113.183	0.215	-0.042
-533.121	-86.346	0.157	0.048
-532.106	-200.000	-0.093	-0.490
-531.091	-8.524	-0.214	0.144
-530.077	-200.000	0.024	0.201
-529.062	128.274	0.154	0.197
-528.048	-200.000	0.031	-0.396
-527.033	-114.543	0.066	0.013
-526.018	-80.082	-0.072	0.024
-525.004	119.724	0.060	-0.075
-523.989	-110.774	0.308	0.063
-522.975	-200.000	-0.041	0.293
-521.960	2.452	-0.148	-0.107
-520.945	141.937	-0.115	-0.153
-519.931	800.000	0.065	0.208
-518.916	800.000	-0.009	0.039
-517.902	-72.541	0.496	-0.183
-516.887	173.194	0.032	-0.046
-515.872	-112.740	-0.369	0.073
-514.858	-75.434	-0.199	0.071
-513.843	158.788	0.099	-0.137
-512.829	640.987	0.101	-0.258
-511.814	175.841	0.052	0.075
-510.799	492.239	-0.093	0.212
-509.785	453.172	0.028	0.061
-508.770	12.700	0.205	-0.158
-507.756	-128.122	-0.371	-0.053
-506.741	800.000	-0.071	0.210
-505.726	-21.799	-0.136	0.083
-504.712	19.973	0.142	0.114
-503.697	-88.400	-0.188	-0.056
-502.683	38.835	-0.034	0.031
-501.668	98.419	-0.384	-0.442
-500.653	103.587	0.333	-0.391
-499.639	-151.966	0.118	-0.009
-498.624	-200.000	-0.011	-0.218
-497.610	800.000	-0.054	-0.184
-496.595	-200.000	-0.009	0.413
-495.581	-40.277	-0.161	-0.084
-494.566	163.251	0.168	0.236
-493.551	178.338	-0.049	-0.071
-492.537	317.228	0.072	0.136
-491.522	120.508	-0.133	0.165
-490.508	-86.919	0.075	-0.023
-489.493	-96.514	0.330	-0.087
-488.478	77.693	-0.203	-0.216
-487.464	467.983	0.051	-0.114
-486.449	137.324	-0.113	0.148
-485.435	301.381	-0.112	0.207
-484.420	-140.796	-0.194	-0.020
-483.405	59.081	0.095	-0.093
-482.391	62.011	-0.189	-0.188
-481.376	-200.000	0.055	0.268
-480.362	229.749	-0.204	0.333
-479.347	-54.842	-0.022	-0.010
-478.332	238.476	0.123	-0.204
-477.318	800.000	-0.049	-0.183
-476.303	800.000	0.022	0.064
-475.289	-200.000	-0.086	0.652
-474.274	800.000	0.098	-0.367
-473.259	500.051	-0.010	0.024
-472.245	-21.808	0.334	-0.203
-471.230	-200.000	0.025	0.117
-470.216	452.483	-0.057	0.125
-469.201	800.000	0.079	0.242
-468.186	205.531	-0.188	-0.291
-467.172	-172.507	0.184	0.006
-466.157	-200.000	-0.010	-0.370
-465.143	-120.668	-0.023	-0.004
-464.128	219.545	-0.178	-0.284
-463.113	45.154	-0.038	-0.035
-462.099	-94.223	-0.256	-0.070
-461.084	-105.214	0.245	-0.056
-460.070	-200.000	0.004	-0.271
-459.055	-200.000	0.027	0.119
-458.040	-147.994	-0.203	-0.017
-457.026	628.247	-0.011	-0.029
-456.011	608.849	-0.093	-0.233
-454.997	-157.661	-0.339	-0.020
-453.982	-167.654	-0.078	0.003
-452.968	-17.948	0.274	-0.171
-451.953	6.719	-0.176	-0.130
-450.938	18.653	-0.136	0.108
-449.924	800.000	0.039	-0.153
-448.909	-151.342	-0.086	-0.006
-447.895	13.795	-0.032	0.024
-446.880	-139.180	-0.160	0.017
-445.865	178.289	-0.191	0.277
-444.851	-200.000	0.008	-0.223
-443.836	646.161	0.096	-0.245
-442.822	-67.249	0.095	-0.037
-441.807	185.348	0.073	-0.108
-440.792	132.258	-0.145	-0.186
-439.778	-54.448	-0.153	0.069
-438.763	154.687	-0.073	-0.100
-437.749	82.677	-0.152	0.164
-436.734	-35.310	-0.151	-0.082
-435.719	-21.263	-0.273	0.166
-434.705	-200.000	-0.008	-0.056
-433.690	-200.000	0.014	0.237
-432.676	-200.000	-0.050	-0.253
-431.661	-200.000	-0.017	-0.195
-430.646	154.655	0.102	0.139
-429.632	71.031	-0.220	-0.227
-428.617	-53.705	-0.321	0.146
-427.603	58.531	0.060	-0.058
-426.588	800.000	0.065	0.277
-425.573	88.984	-0.106	-0.118
-424.559	724.847	0.145	-0.386
-423.544	800.000	0.094	0.379
-422.530	363.045	-0.053	0.106
-421.515	800.000	-0.045	0.182
-420.500	800.000	-0.082	0.285
-419.486	-124.679	0.325	-0.050
-418.471	82.900	-0.140	0.151
-417.457	210.372	-0.244	-0.382
-416.442	-138.170	-0.415	-0.046
-415.428	800.000	0.122	-0.428
-414.413	800.000	0.041	-0.132
-413.398	-145.451	0.178	-0.016
-412.384	800.000	-0.063	-0.180
-411.369	-114.445	-0.152	-0.029
-410.355	-200.000	-0.036	0.230
-409.340	570.139	0.086	0.208
-408.325	800.000	0.010	-0.041
-407.311	-74.048	-0.221	-0.080
-406.296	-200.000	-0.037	-0.197
-405.282	451.568	0.046	0.101
-404.267	-200.000	0.015	0.083
-403.252	-135.211	0.149	0.018
-402.238	577.959	-0.095	0.232
-401.223	-88.439	0.312	0.093
-400.209	-75.386	-0.354	0.126
-399.194	126.999	0.068	-0.086
-398.179	-200.000	-0.015	0.110
-397.165	-200.000	-0.005	-0.144
-396.150	800.000	-0.039	-0.116
-395.136	-146.101	0.076	-0.007
-394.121	-200.000	-0.076	-0.352
-393.106	33.295	-0.303	-0.261
-392.092	-61.350	0.187	0.078
-391.077	-56.479	0.373	0.164
-390.063	442.333	0.079	-0.173
-389.048	800.000	0.062	0.183
-388.033	268.709	-0.147	0.256
-387.019	-40.465	-0.062	-0.032
-386.004	24.736	-0.119	0.098
-384.990	161.494	0.180	-0.251
-383.975	-94.505	0.269	0.073
-382.960	-73.088	0.149	-0.054
-381.946	172.599	0.082	0.117
-380.931	63.812	-0.067	-0.067
-379.917	-126.288	-0.144	0.021
-378.902	-188.738	-0.331	-0.004
-377.888	190.801	0.032	-0.048
-376.873	-200.000	0.066	0.285
-375.858	-103.729	-0.231	0.054
-374.844	455.418	0.245	0.539
-373.829	32.660	-0.234	-0.201
-372.815	643.018	-0.054	0.136
-371.800	-200.000	-0.013	-0.224
-370.785	-176.664	0.211	-0.005
-369.771	100.077	-0.033	0.038
-368.756	147.141	0.209	-0.279
-367.742	-7.396	-0.183	-0.123
-366.727	-64.259	-0.162	0.066
-365.712	-200.000	0.006	0.078
-364.698	179.332	-0.247	-0.358
-363.683	405.528	-0.146	-0.307
-362.669	-30.033	-0.127	-0.072
-361.654	48.579	0.130	-0.121
-360.639	-57.123	0.260	0.114
-359.625	402.535	0.093	-0.194
-358.610	726.627	0.128	-0.338
-357.596	775.898	0.034	-0.091
-356.581	800.000	0.037	0.122
-355.566	-59.911	0.095	-0.040
-354.552	772.178	0.034	-0.093
-353.537	-107.468	-0.329	0.072
-352.523	-74.723	-0.551	-0.197
-351.508	-145.156	-0.333	-0.030
-350.493	24.198	-0.244	-0.200
-349.479	800.000	-0.063	-0.225
-348.464	-103.205	0.082	0.019
-347.450	-200.000	-0.006	0.404
-346.435	-5.586	0.299	-0.203
-345.420	128.942	0.103	-0.130
-344.406	-46.717	0.127	-0.062
-343.391	-200.000	-0.069	0.305
-342.377	-31.789	0.109	-0.061
-341.362	51.757	-0.050	-0.047
-340.348	-93.757	0.184	0.050
-339.333	293.958	0.192	0.349
-338.318	-48.219	-0.145	-0.070
-337.304	800.000	0.066	-0.206
-336.289	321.566	-0.162	0.306
-335.275	661.705	0.126	-0.322
-334.260	187.946	-0.078	-0.115
-333.245	-200.000	0.002	-0.148
-332.231	68.219	0.194	-0.197
-331.216	-120.645	-0.079	0.013
-330.202	-107.886	0.305	-0.066
-329.187	446.213	-0.125	-0.272
-328.172	13.289	-0.238	0.183
-327.158	-200.000	-0.017	-0.108
-326.143	-200.000	-0.063	-0.345
-325.129	22.750	-0.096	0.078
-324.114	-99.841	-0.145	0.036
-323.099	-200.000	0.021	-0.546
-322.085	-24.010	0.016	-0.010
-321.070	-86.116	0.164	-0.050
-320.056	-93.516	0.396	-0.109
-319.041	-67.859	0.443	-0.172
-318.026	800.000	0.020	0.056
-317.012	48.036	0.226	-0.209
-315.997	-89.417	-0.370	0.108
-314.983	-120.770	-0.323	0.054
-313.968	-125.213	-0.011	-0.002
-312.953	143.152	0.099	-0.130
-311.939	241.763	0.204	0.338
-310.924	-26.594	-0.193	0.112
-309.910	800.000	-0.054	0.196
-308.895	-200.000	0.001	-0.077
-307.880	95.482	0.235	-0.265
-306.866	-102.096	-0.373	0.089
-305.851	-108.236	0.072	-0.015
-304.837	-120.885	0.249	0.042
-303.822	-31.670	-0.084	0.047
-302.807	-76.535	-0.233	-0.081
-301.793	-58.331	-0.123	-0.053
-300.778	-200.000	-0.005	0.385
-299.764	236.338	-0.261	0.428
-298.749	-5.267	0.447	0.304
-297.735	52.508	0.225	-0.213
-296.720	-200.000	0.026	0.362
-295.705	-200.000	-0.019	0.196
-294.691	-200.000	-0.010	-0.307
-293.676	139.118	0.114	0.148
-292.662	-72.464	0.269	-0.098
-291.647	74.355	-0.089	-0.093
-290.632	-100.862	-0.227	0.055
-289.618	-104.465	0.088	-0.020
-288.603	-200.000	-0.010	-0.104
-287.589	800.000	-0.056	-0.203
-286.574	-17.561	0.149	-0.092
-285.559	88.757	-0.140	-0.154
-284.545	-200.000	0.078	0.388
-283.530	-90.914	0.195	0.056
-282.516	434.980	0.064	0.139
-281.501	31.043	-0.034	-0.029
-280.486	800.000	0.187	0.533
-279.472	-12.569	-0.149	-0.096
-278.457	-200.000	-0.008	0.045
-277.443	-93.385	-0.361	0.099
-276.428	654.779	0.065	0.166
-275.413	91.465	0.134	0.149
-274.399	800.000	0.061	-0.208
-273.384	62.905	-0.199	-0.197
-272.370	674.036	0.104	-0.267
-271.355	47.392	-0.074	-0.068
-270.340	-57.257	-0.071	0.031
-269.326	463.219	0.052	-0.115
-268.311	8.642	-0.074	0.055
-267.297	-200.000	-0.037	0.330
-266.282	-200.000	0.016	0.281
-265.267	-103.984	-0.302	0.070
-264.253	184.916	0.204	-0.299
-263.238	325.758	-0.120	-0.227
-262.224	800.000	0.111	0.346
-261.209	-200.000	0.006	-0.320
-260.195	600.294	-0.120	-0.295
-259.180	-142.800	0.162	0.016
-258.165	-85.200	-0.239	0.074
-257.151	-117.699	-0.276	0.049
-256.136	88.409	-0.210	-0.230
-255.122	-115.207	0.255	-0.048
-254.107	-200.000	-0.014	0.288
-253.092	266.472	0.113	0.195
-252.078	-14.984	0.373	-0.236
-251.063	-22.208	0.124	0.074
-250.049	154.355	0.312	0.424
-249.034	-53.205	-0.223	-0.101
-248.019	15.302	0.074	-0.058
-247.005	-165.000	-0.131	0.006
-245.990	800.000	-0.165	0.460
-244.976	-18.471	-0.144	0.089
-243.961	-200.000	-0.008	0.065
-242.946	-200.000	-0.024	0.201
-241.932	-131.427	-0.175	0.023
-240.917	102.148	0.075	-0.086
-239.903	800.000	-0.032	0.114
-238.888	80.748	0.227	0.242
-237.873	-31.364	-0.091	0.050
-236.859	127.916	0.110	0.138
-235.844	102.963	0.289	0.334
-234.830	-200.000	0.008	0.130
-233.815	800.000	0.070	0.277
-232.800	-9.581	0.179	-0.118
-231.786	80.683	0.136	0.145
-230.771	284.830	0.124	0.220
-229.757	-27.377	0.266	-0.153
-228.742	166.601	0.159	-0.223
-227.727	21.296	0.224	0.180
-226.713	-29.360	0.370	-0.209
-225.698	159.448	-0.045	0.062
-224.684	-200.000	0.010	0.086
-223.669	0.679	0.270	0.191
-222.655	141.967	0.213	0.279
-221.640	348.252	-0.156	0.304
-220.625	800.000	-0.029	0.108
-219.611	800.000	-0.032	-0.094
-218.596	296.778	-0.023	-0.042
-217.582	48.183	0.158	0.146
-216.567	52.398	-0.160	0.151
-215.552	24.039	0.148	0.120
-214.538	-181.964	0.025	-0.000
-213.523	-93.130	0.256	-0.070
-212.509	-200.000	0.034	0.154
-211.494	35.415	0.163	0.141
-210.479	800.000	-0.066	-0.207
-209.465	-169.426	-0.102	-0.004
-208.450	75.869	-0.183	0.191
-207.436	-118.114	0.161	-0.028
-206.421	-51.961	0.233	0.107
-205.406	158.322	0.098	0.134
-204.392	717.911	-0.050	-0.131
-203.377	-110.767	-0.294	-0.060
-202.363	-195.394	0.199	0.001
-201.348	-200.000	0.010	0.078
-200.333	-154.793	-0.459	-0.030
-199.319	-200.000	0.009	0.426
-198.304	-94.945	0.028	0.008
-197.290	-9.414	-0.407	-0.268
-196.275	-145.174	0.169	0.015
-195.260	-17.637	-0.148	0.091
-194.246	-41.126	0.256	0.130
-193.231	-71.215	-0.166	-0.061
-192.217	800.000	0.069	0.208
-191.202	20.460	-0.123	-0.098
-190.187	-89.824	-0.021	-0.006
-189.173	-127.883	0.238	0.034
-188.158	233.067	0.065	0.106
-187.144	49.015	0.210	0.195
-186.129	72.337	-0.176	0.181
-185.114	-200.000	0.022	-0.312
-184.100	-96.382	0.302	0.079
-183.085	774.098	0.135	0.364
-182.071	8.433	-0.143	-0.106
-181.056	-61.572	0.128	0.053
-180.042	-27.502	-0.020	0.012
-179.027	-56.291	0.115	-0.050
-178.012	-52.454	-0.148	-0.067
-176.998	4.052	0.216	0.156
-175.983	-76.537	0.349	-0.121
-174.969	-181.343	0.030	-0.001
-173.954	-200.000	0.007	-0.110
-172.939	800.000	-0.113	0.475
-171.925	-200.000	-0.015	0.355
-170.910	-89.542	-0.102	0.030
-169.896	-115.693	0.312	-0.058
-168.881	-200.000	0.001	-0.041
-167.866	-17.921	-0.207	0.128
-166.852	-120.818	-0.225	-0.037
-165.837	-200.000	-0.012	-0.316
-164.823	-100.386	-0.215	-0.053
-163.808	-148.834	0.218	-0.017
-162.793	-3.274	0.026	0.018
-161.779	33.967	-0.197	-0.169
-160.764	-150.259	0.273	-0.021
-159.750	-135.622	-0.233	0.027
-158.735	196.155	0.184	-0.276
-157.720	-74.969	0.330	0.116
-156.706	511.334	0.095	0.218
-155.691	-200.000	0.056	-0.270
-154.677	-0.227	-0.203	-0.142
-153.662	150.013	0.007	0.009
-152.647	-83.468	0.292	0.092
-151.633	-89.252	-0.202	0.059
-150.618	73.930	-0.060	0.062
-149.604	553.663	-0.146	-0.346
-148.589	800.000	-0.045	0.158
-147.574	110.046	-0.019	-0.023
-146.560	-67.775	-0.118	0.045
-145.545	7.079	0.086	-0.063
-144.531	-200.000	-0.063	-0.305
-143.516	198.163	0.193	0.291
-142.502	36.871	0.065	0.056
-141.487	-200.000	-0.024	-0.154
-140.472	79.285	-0.199	0.210
-139.458	-78.098	-0.345	0.117
-138.443	63.605	0.045	-0.045
-137.429	-96.011	-0.190	0.050
-136.414	74.815	-0.164	-0.170
-135.399	-187.447	-0.043	0.001
-134.385	-125.729	0.195	-0.029
-133.370	734.724	-0.090	0.238
-132.356	800.000	-0.050	-0.152
-131.341	-200.000	-0.003	-0.058
-130.326	474.726	0.142	-0.316
-129.312	6.108	0.241	-0.176
-128.297	-200.000	-0.046	-0.285
-127.283	-200.000	0.023	-0.123
-126.268	241.239	0.126	-0.207
-125.253	328.059	-0.022	-0.041
-124.239	-61.514	-0.333	0.138
-123.224	-99.652	0.216	0.053
-122.210	-85.635	-0.018	0.006
-121.195	800.000	0.053	-0.170
-120.180	800.000	-0.012	-0.051
-119.166	324.466	0.110	0.207
-118.151	800.000	-0.042	0.139
-117.137	-89.748	-0.125	-0.036
-116.122	462.357	0.110	-0.242
-115.107	57.895	-0.190	-0.182
-114.093	-187.215	-0.099	-0.001
-113.078	-52.916	0.104	-0.047
-112.064	-200.000	0.020	-0.459
-111.049	-90.123	0.405	0.116
-110.034	800.000	0.037	0.124
-109.020	-59.632	-0.133	0.056
-108.005	68.146	-0.160	-0.161
-106.991	-200.000	0.062	-0.274
-105.976	-93.034	-0.263	0.072
-104.962	-8.017	0.255	-0.169
-103.947	-200.000	-0.012	0.115
-102.932	52.677	0.081	-0.076
-101.918	212.688	-0.083	0.129
-100.903	-149.765	0.212	-0.016
-99.889	72.011	-0.094	0.096
-98.874	-200.000	-0.002	-0.137
-97.859	37.148	0.078	-0.068
-96.845	-108.646	0.162	-0.034
-95.830	-158.240	-0.121	-0.007
-94.816	48.462	0.178	0.164
-93.801	-106.453	-0.395	0.087
-92.786	800.000	0.056	0.200
-91.772	-159.061	0.171	0.010
-90.757	-200.000	0.011	-0.211
-89.743	57.820	0.267	0.257
-88.728	-92.427	-0.247	-0.068
-87.713	-58.466	-0.168	0.072
-86.699	-41.089	-0.197	-0.100
-85.684	100.067	-0.091	0.104
-84.670	105.113	-0.165	-0.192
-83.655	-57.232	0.230	0.099
-82.640	4.511	-0.006	0.005
-81.626	800.000	0.049	0.200
-80.611	758.575	-0.100	0.265
-79.597	-13.605	-0.221	0.140
-78.582	-6.621	0.024	-0.016
-77.567	-111.284	-0.132	-0.026
-76.553	-191.396	0.301	-0.003
-75.538	33.406	0.200	-0.171
-74.524	223.474	0.055	0.088
-73.509	-200.000	-0.046	-0.220
-72.494	247.793	0.190	0.316
-71.480	800.000	0.036	-0.148
-70.465	17.347	-0.191	-0.149
-69.451	187.715	-0.163	-0.239
-68.436	3.672	-0.035	-0.025
-67.422	-44.736	0.123	-0.060
-66.407	215.051	0.137	0.213
-65.392	650.196	0.050	0.127
-64.378	-200.000	-0.008	-0.264
-63.363	29.860	-0.053	-0.045
-62.349	-153.676	0.310	-0.021
-61.334	185.645	-0.706	-1.029
-60.319	243.940	0.506	0.834
-59.305	182.594	-0.496	-0.717
-58.290	106.288	0.699	0.813
-57.276	361.746	0.729	1.434
-56.261	-200.000	97.766	577.814
-55.246	512.738	1393.164	3186.146
-54.232	161.116	2558.023	3508.467
-53.217	110.999	2127.521	2513.779
-52.203	43.345	1590.986	1426.211
-51.188	35.381	1329.590	1144.574
-50.173	32.280	1288.090	1090.846
-49.159	55.118	1337.123	1267.820
-48.144	56.688	1354.772	1293.783
-47.130	35.734	1312.029	1131.352
-46.115	32.098	1294.565	1095.092
-45.100	31.881	1289.718	1089.685
-44.086	31.716	1287.664	1086.950
-43.071	31.882	1284.676	1085.348
-42.057	31.726	1283.290	1083.228
-41.042	31.953	1280.802	1082.396
-40.027	31.951	1279.761	1081.465
-39.013	31.841	1277.671	1079.023
-37.998	31.827	1276.323	1077.757
-36.984	31.872	1274.335	1076.298
-35.969	31.934	1272.851	1075.356
-34.954	31.904	1271.010	1073.584
-33.940	31.924	1270.115	1072.904
-32.925	32.024	1268.402	1071.982
-31.911	31.980	1267.096	1070.583
-30.896	31.979	1266.035	1069.643
-29.881	32.125	1264.382	1069.036
-28.867	31.950	1263.119	1066.930
-27.852	31.942	1261.949	1065.849
-26.838	32.033	1260.125	1064.786
-25.823	32.032	1258.354	1063.239
-24.809	31.997	1257.258	1062.076
-23.794	31.945	1255.953	1060.638
-22.779	31.953	1254.974	1059.811
-21.765	31.959	1253.672	1058.706
-20.750	32.001	1252.038	1057.519
-19.736	31.906	1251.090	1056.142
-18.721	31.751	1249.990	1054.297
-17.706	31.881	1248.774	1053.960
-16.692	31.919	1247.626	1053.164
-15.677	31.771	1246.833	1051.622
-14.663	31.858	1245.246	1050.729
-13.648	31.837	1244.640	1050.061
-12.633	31.771	1243.272	1048.495
-11.619	31.763	1243.030	1048.203
-10.604	31.901	1241.648	1047.766
-9.590	31.795	1240.662	1046.304
-8.575	31.815	1239.608	1045.484
-7.560	31.791	1238.909	1044.719
-6.546	31.725	1238.256	1043.761
-5.531	31.808	1237.454	1043.503
-4.517	31.779	1236.280	1042.309
-3.502	31.916	1235.389	1042.280
-2.487	31.762	1234.583	1040.706
-1.473	31.738	1230.629	1037.198
-0.458	29.840	1215.176	1013.743
0.556	23.775	1196.846	971.042
1.571	19.542	1201.176	951.199
2.586	18.390	1215.896	956.342
3.600	18.157	1205.140	946.509
4.615	15.501	1139.277	880.787
5.629	10.675	1070.452	803.664
6.644	8.283	1052.699	778.613
7.659	7.927	1050.269	775.012
8.673	7.922	1049.224	774.151
9.688	8.048	1047.431	773.371
10.702	8.186	1045.990	772.905
11.717	11.287	1049.561	790.532
12.731	15.831	1055.639	817.153
13.746	17.742	1057.252	827.613
14.761	17.301	1056.485	824.798
15.775	16.316	1054.424	818.345
16.790	15.150	1052.883	811.431
17.804	14.522	1051.358	807.146
18.819	14.006	1050.018	803.552
19.834	13.915	1048.243	801.684
20.848	13.670	1048.352	800.510
21.863	13.420	1047.377	798.489
22.877	13.196	1046.829	796.924
23.892	13.180	1045.742	795.946
24.907	13.410	1044.497	796.035
25.921	13.388	1043.598	795.176
26.936	13.317	1042.562	793.972
27.950	13.461	1040.867	793.302
28.965	13.439	1040.223	792.635
29.980	13.504	1038.410	791.495
30.994	13.498	1037.360	790.596
32.009	13.695	1035.876	790.335
33.023	13.629	1034.824	789.148
34.038	13.454	1033.719	787.402
35.053	13.492	1033.280	787.180
36.067	13.378	1032.601	786.050
37.082	13.394	1031.742	785.402
38.096	13.454	1030.898	784.977
39.111	13.543	1030.237	784.825
40.126	13.369	1028.954	782.955
41.140	13.266	1027.686	781.431
42.155	13.261	1026.258	780.253
43.169	13.203	1025.133	779.056
44.184	13.267	1024.028	778.450
45.199	13.138	1023.619	777.464
46.213	13.292	1022.101	776.966
47.228	13.287	1021.263	776.233
48.242	13.328	1020.017	775.411
49.257	13.475	1018.922	775.200
50.271	13.397	1018.361	774.338
51.286	13.457	1018.053	774.319
52.301	13.474	1016.683	773.286
53.315	13.362	1015.537	771.824
54.330	13.149	1014.559	770.019
55.344	13.294	1013.649	769.936
56.359	13.389	1012.712	769.596
57.374	13.397	1011.929	768.971
58.388	13.258	1011.499	767.933
59.403	13.361	1010.059	767.248
60.417	13.276	1009.633	766.462
61.432	13.100	1009.284	765.311
62.447	13.085	1008.194	764.350
63.461	13.092	1007.065	763.460
64.476	12.951	1006.829	762.560
65.490	13.193	1005.480	762.589
66.505	13.181	1004.815	761.963
67.520	13.173	1004.607	761.701
68.534	13.143	1003.557	760.698
69.549	13.245	1002.637	760.402
70.563	13.252	1002.101	759.960
71.578	12.975	1001.138	757.891
72.593	13.147	1000.235	757.931
73.607	13.108	999.872	757.407
74.622	13.068	999.373	756.778
75.636	12.950	998.984	755.878
76.651	13.103	997.928	755.713
77.666	12.944	997.648	754.708
78.680	13.210	996.608	755.066
79.695	13.129	996.103	754.248
80.709	13.228	995.581	754.236
81.724	13.218	995.022	753.703
82.739	13.258	994.107	753.127
83.753	13.310	992.980	752.440
84.768	13.514	992.304	752.792
85.782	13.502	991.547	752.093
86.797	13.462	990.597	751.124
87.812	13.394	989.655	750.037
88.826	13.401	988.888	749.420
89.841	13.532	987.807	749.128
90.855	13.316	987.475	747.834
91.870	13.615	986.442	748.335
92.884	13.451	985.826	747.060
93.899	13.521	984.350	746.190
94.914	13.621	983.627	746.030
95.928	13.557	983.342	745.456
96.943	13.464	982.325	744.202
97.957	13.393	981.683	743.331
98.972	13.365	980.746	742.431
99.987	13.441	979.995	742.137
101.001	13.572	978.755	741.720
102.016	13.623	977.427	740.874
103.030	13.396	977.396	739.772
104.045	13.533	976.420	739.578
105.060	13.450	975.688	738.591
106.074	13.347	974.526	737.186
107.089	13.126	973.718	735.526
108.103	13.169	972.711	734.892
109.118	13.300	971.530	734.517
110.133	13.194	970.703	733.352
111.147	13.192	970.000	732.752
112.162	13.357	969.245	732.848
113.176	13.367	968.568	732.313
114.191	13.475	967.660	732.038
115.206	13.319	967.064	730.834
116.220	13.374	966.200	730.358
117.235	13.447	965.237	729.889
118.249	13.458	964.638	729.420
119.264	13.368	963.580	728.160
120.279	13.349	962.911	727.507
121.293	13.357	962.282	727.000
122.308	13.255	961.599	725.971
123.322	13.238	960.766	725.204
124.337	13.275	959.577	724.408
125.352	13.312	958.109	723.395
126.366	13.281	957.384	722.646
127.381	13.284	956.031	721.574
128.395	13.225	955.726	721.025
129.410	13.392	954.666	720.891
130.424	13.437	953.402	720.068
131.439	13.339	953.116	719.359
132.454	13.327	952.625	718.873
133.468	13.398	951.375	718.174
134.483	13.577	950.686	718.368
135.497	13.502	949.530	717.105
136.512	13.458	949.054	716.493
137.527	13.381	948.321	715.542
138.541	13.448	947.581	715.212
139.556	13.463	946.705	714.552
140.570	13.515	946.175	714.312
141.585	13.531	945.220	713.599
142.600	13.604	944.285	713.142
143.614	13.592	943.705	712.591
144.629	13.586	943.145	712.077
145.643	13.516	942.105	710.928
146.658	13.610	940.693	710.205
147.673	13.559	939.890	709.316
148.687	13.476	939.410	708.536
149.702	13.536	938.207	707.821
150.716	13.485	937.429	706.956
151.731	13.486	936.662	706.320
152.746	13.532	936.279	706.164
153.760	13.476	936.127	705.748
154.775	13.532	935.372	705.356
155.789	13.703	934.117	705.072
156.804	13.674	933.816	704.660
157.819	13.713	933.184	704.285
158.833	13.709	932.405	703.618
159.848	13.795	931.594	703.311
160.862	13.739	930.516	702.194
161.877	13.666	929.350	700.944
162.892	13.665	928.466	700.211
163.906	13.495	927.806	698.936
164.921	13.573	926.986	698.584
165.935	13.633	925.764	697.856
166.950	13.570	925.176	697.085
167.964	13.722	924.211	696.934
168.979	13.593	923.791	696.014
169.994	13.760	922.497	695.677
171.008	13.687	922.227	695.105
172.023	13.795	921.348	694.837
173.037	13.823	920.917	694.567
174.052	13.845	920.135	694.008
175.067	13.776	919.529	693.201
176.081	13.537	919.251	691.931
177.096	13.676	918.458	691.853
178.110	13.744	917.473	691.332
179.125	13.654	917.524	690.935
180.140	13.867	916.669	691.118
181.154	13.791	916.258	690.431
182.169	13.736	916.008	689.952
183.183	14.018	915.025	690.322
184.198	13.885	914.746	689.498
185.213	13.882	913.528	688.508
186.227	13.975	912.839	688.312
187.242	13.998	912.510	688.097
188.256	13.868	912.145	687.223
189.271	14.008	911.083	686.942
190.286	13.840	909.999	685.372
191.300	13.670	909.464	684.202
192.315	13.579	909.229	683.590
193.329	13.547	908.857	683.121
194.344	13.756	908.026	683.296
195.359	13.844	907.181	682.963
196.373	14.051	906.288	683.078
197.388	13.965	906.611	682.909
198.402	14.035	906.040	682.705
199.417	14.203	904.953	682.515
200.432	14.067	904.838	681.809
201.446	14.341	904.001	682.242
202.461	14.339	903.672	681.927
203.475	14.231	903.310	681.149
204.490	14.098	902.573	679.992
205.504	14.197	901.777	679.735
206.519	14.227	900.798	679.060
207.534	14.240	900.198	678.600
208.548	14.094	899.942	677.749
209.563	14.276	898.872	677.628
210.577	14.238	898.437	677.082
211.592	14.271	897.915	676.764
212.607	14.302	896.846	676.026
213.621	14.359	896.359	675.831
214.636	14.234	895.299	674.464
215.650	14.289	894.813	674.261
216.665	14.329	893.974	673.731
217.680	14.434	893.276	673.570
218.694	14.353	892.897	672.898
219.709	14.382	892.478	672.641
220.723	14.500	891.284	672.157
221.738	14.402	890.659	671.228
222.753	14.472	890.047	670.990
223.767	14.576	889.614	671.023
224.782	14.568	889.043	670.502
225.796	14.574	888.442	670.013
226.811	14.490	887.975	669.264
227.826	14.466	887.291	668.594
228.840	14.565	886.430	668.281
229.855	14.622	885.769	667.953
230.869	14.472	885.267	666.915
231.884	14.448	884.396	666.105
232.899	14.563	883.266	665.652
233.913	14.531	882.535	664.915
234.928	14.426	882.209	664.194
235.942	14.302	882.462	663.829
236.957	14.446	881.222	663.412
237.972	14.442	880.837	663.047
238.986	14.432	880.420	662.635
240.001	14.546	879.522	662.352
241.015	14.558	878.687	661.710
242.030	14.573	878.235	661.374
243.045	14.540	877.987	660.996
244.059	14.574	877.563	660.754
245.074	14.742	876.400	660.484
246.088	14.622	875.840	659.528
247.103	14.793	875.095	659.584
248.117	14.884	874.529	659.457
249.132	14.897	874.716	659.593
250.147	14.991	873.582	659.048
251.161	14.883	873.255	658.318
252.176	15.010	872.412	658.125
253.190	15.011	871.924	657.702
254.205	15.027	871.196	657.160
255.220	15.113	870.255	656.730
256.234	15.175	869.985	656.709
257.249	15.046	869.022	655.418
258.263	15.048	868.155	654.717
259.278	15.169	867.451	654.599
260.293	15.141	867.227	654.261
261.307	15.249	866.251	653.889
262.322	15.205	866.068	653.521
263.336	15.270	865.504	653.292
264.351	15.161	864.802	652.280
265.366	15.303	863.868	652.071
266.380	15.282	863.649	651.766
267.395	15.305	862.646	651.039
268.409	15.301	861.715	650.265
269.424	15.231	861.342	649.656
270.439	15.215	860.328	648.770
271.453	15.284	860.098	648.804
272.468	15.184	859.273	647.740
273.482	15.165	859.062	647.450
274.497	15.177	858.551	647.052
275.512	15.354	857.820	647.128
276.526	15.205	857.234	646.054
277.541	15.355	856.701	646.172
278.555	15.551	855.980	646.328
279.570	15.434	855.549	645.494
280.585	15.474	854.720	644.967
281.599	15.404	853.902	644.021
282.614	15.370	853.565	643.583
283.628	15.394	852.966	643.166
284.643	15.364	852.564	642.689
285.657	15.371	851.631	641.956
286.672	15.435	851.058	641.710
287.687	15.352	850.437	640.871
288.701	15.381	849.881	640.505
289.716	15.461	849.312	640.325
290.730	15.508	848.716	639.998
291.745	15.499	848.399	639.666
292.760	15.656	847.513	639.539
293.774	15.524	847.331	638.844
294.789	15.665	846.245	638.505
295.803	15.552	845.496	637.454
296.818	15.647	844.786	637.224
297.833	15.649	843.964	636.555
298.847	15.699	843.686	636.477
299.862	15.578	843.032	635.469
300.876	15.612	842.900	635.444
301.891	15.637	842.082	634.866
302.906	15.738	841.548	634.789
303.920	15.725	841.280	634.480
304.935	15.874	840.315	634.258
305.949	15.806	839.792	633.551
306.964	15.836	839.474	633.366
307.979	15.815	838.809	632.732
308.993	15.832	838.370	632.406
310.008	16.039	837.595	632.543
311.022	15.917	836.864	631.476
312.037	15.796	836.610	630.776
313.052	15.894	835.568	630.303
314.066	15.922	835.169	630.051
315.081	15.771	835.061	629.350
316.095	15.832	833.940	628.676
317.110	15.792	833.446	628.096
318.125	15.988	833.091	628.508
319.139	15.720	833.068	627.434
320.154	15.913	832.059	627.339
321.168	15.860	831.766	626.864
322.183	16.004	830.877	626.673
323.197	15.999	830.546	626.351
324.212	15.935	829.876	625.551
325.227	15.924	829.371	625.074
326.241	16.074	828.786	625.136
327.256	15.835	828.152	623.715
328.270	15.937	827.682	623.683
329.285	15.970	827.370	623.517
330.300	15.924	826.616	622.724
331.314	15.973	826.083	622.447
332.329	16.044	825.675	622.347
333.343	16.050	825.154	621.921
334.358	16.074	824.858	621.731
335.373	16.092	824.444	621.431
336.387	16.311	824.066	621.899
337.402	16.181	823.957	621.279
338.416	16.219	823.725	621.193
339.431	16.331	823.085	621.065
340.446	16.270	822.444	620.303
341.460	16.300	822.449	620.361
342.475	16.074	822.426	619.460
343.489	16.262	821.945	619.731
344.504	16.373	821.394	619.668
345.519	16.468	820.601	619.366
346.533	16.472	819.852	618.760
347.548	16.423	819.392	618.177
348.562	16.495	818.605	617.794
349.577	16.467	818.263	617.376
350.592	16.378	817.481	616.409
351.606	16.307	817.198	615.881
352.621	16.287	816.710	615.386
353.635	16.354	816.001	615.041
354.650	16.431	815.247	614.698
355.665	16.376	814.797	614.106
356.679	16.481	814.362	614.106
357.694	16.519	813.492	613.534
358.708	16.548	812.676	612.967
359.723	16.414	812.336	612.172
360.738	16.529	811.934	612.229
361.752	16.601	811.230	611.907
362.767	16.471	811.077	611.265
363.781	16.580	810.647	611.281
364.796	16.735	809.673	611.055
365.810	16.858	809.239	611.115
366.825	16.859	808.821	610.749
367.840	16.723	809.000	610.339
368.854	16.764	808.023	609.695
369.869	16.787	807.709	609.488
370.883	16.851	806.939	609.085
371.898	16.833	807.030	609.033
372.913	16.930	806.178	608.683
373.927	16.746	806.070	607.890
374.942	16.899	805.480	607.937
375.956	16.854	805.441	607.694
376.971	17.001	804.544	607.492
377.986	17.017	804.191	607.227
379.000	16.950	803.883	606.700
380.015	16.971	803.308	606.288
381.029	17.091	802.455	606.020
382.044	17.015	802.287	605.568
383.059	16.976	801.644	604.889
384.073	16.979	801.055	604.402
385.088	16.973	800.203	603.683
386.102	17.137	799.664	603.807
387.117	16.924	798.947	602.458
388.132	17.091	798.657	602.777
389.146	17.019	798.018	601.988
390.161	16.982	797.731	601.585
391.175	16.992	797.523	601.411
392.190	17.158	796.482	601.161
393.205	17.001	796.343	600.447
394.219	17.032	796.127	600.341
395.234	16.983	795.599	599.717
396.248	17.011	794.941	599.265
397.263	17.003	794.819	599.091
398.278	17.003	794.360	598.692
399.292	17.136	793.861	598.732
400.307	17.032	793.277	597.875
401.321	16.932	793.295	597.481
402.336	17.090	792.592	597.454
403.350	16.990	791.948	596.565
404.365	17.131	791.533	596.695
405.380	17.195	791.356	596.733
406.394	17.429	790.489	596.850
407.409	17.315	790.483	596.391
408.423	17.345	790.215	596.243
409.438	17.370	789.908	596.046
410.453	17.482	789.373	595.979
411.467	17.512	788.580	595.432
412.482	17.457	788.375	595.035
413.496	17.461	788.057	594.755
414.511	17.484	787.940	594.696
415.526	17.499	787.427	594.306
416.540	17.614	786.625	594.051
417.555	17.469	786.292	593.242
418.569	17.582	785.820	593.224
419.584	17.704	785.400	593.281
420.599	17.677	784.906	592.762
421.613	108.550	1288.502	1460.573
422.628	92.992	1361.892	1460.671
