DTS Sentinel unit serial number:	SN413079Multiplexer serial number:	ORYXHardware model number:	OX4-SRSoftware version number:	ORYX F/W v4.00 Oryx Data Collector v3.7.2.0data status	okinstallation	princeton_trtdifferential loss correction	single-endedforward channel	channel 1reverse channel	N/Adate	2019/09/15time	15:30:35forward acquisition time	60.00reverse acquisition time	0.00gamma	496.2192k internal	0.2291k external	0.2291temperature offset calibration	0.9951default loss term (dB/km)	0.3790temperature slope calibration	1.0000multiplexer offset coefficient	1.0000multiplexer slope coefficient	1.0000fibre end	0.00T internal ref (°C)	41.20T ext. ref 1 (°C)	5.12T ext. ref 2 (°C)	38.57length (m)	temperature (°C)	Stokes	anti-Stokes-747.200	-118.665	0.276	0.050
-746.185	-81.449	0.213	-0.072
-745.171	297.311	-0.081	-0.153
-744.156	-200.000	-0.005	0.145
-743.142	-54.868	0.130	0.060
-742.127	176.354	-0.155	0.231
-741.112	-61.116	0.078	0.034
-740.098	-128.718	-0.256	0.037
-739.083	11.089	-0.318	0.249
-738.069	-200.000	-0.024	0.378
-737.054	-56.072	0.098	-0.045
-736.039	-171.458	-0.094	-0.003
-735.025	-126.525	-0.178	0.027
-734.010	-79.272	-0.421	-0.146
-732.996	397.519	-0.093	0.199
-731.981	800.000	0.104	0.373
-730.966	-80.024	-0.201	0.069
-729.952	-140.516	0.143	0.015
-728.937	-36.194	-0.149	0.082
-727.923	-89.957	-0.236	0.070
-726.908	142.980	-0.162	-0.220
-725.894	-200.000	0.068	-0.309
-724.879	76.291	-0.303	-0.328
-723.864	45.157	0.235	-0.221
-722.850	177.587	0.032	-0.047
-721.835	-135.820	-0.069	0.008
-720.821	-184.712	-0.311	-0.005
-719.806	244.575	-0.061	0.104
-718.791	-30.504	-0.141	0.082
-717.777	-51.168	0.019	0.009
-716.762	-32.264	-0.046	-0.026
-715.748	78.049	-0.023	0.025
-714.733	109.255	0.208	-0.254
-713.718	-158.288	-0.509	0.030
-712.704	36.064	-0.117	0.105
-711.689	-134.002	0.073	-0.009
-710.675	622.737	-0.143	0.367
-709.660	-54.493	-0.126	-0.058
-708.645	-120.713	-0.043	0.007
-707.631	-200.000	0.007	-0.151
-706.616	-17.805	-0.450	-0.288
-705.602	55.107	0.174	-0.172
-704.587	331.276	-0.228	-0.449
-703.572	-76.291	0.120	0.043
-702.558	-172.406	-0.362	-0.012
-701.543	-7.812	-0.259	-0.179
-700.529	-37.935	0.040	0.022
-699.514	-200.000	-0.034	-0.238
-698.499	-8.904	0.220	-0.150
-697.485	-123.902	0.454	-0.073
-696.470	-24.386	-0.235	0.143
-695.456	5.495	0.082	-0.062
-694.441	-135.052	0.203	0.025
-693.426	87.556	-0.238	-0.269
-692.412	-112.535	-0.256	-0.052
-691.397	14.953	-0.073	0.059
-690.383	-28.011	-0.357	-0.211
-689.368	-66.615	0.157	0.064
-688.354	-200.000	0.012	-0.193
-687.339	-81.078	-0.149	-0.050
-686.324	-30.772	-0.314	0.181
-685.310	136.983	0.211	0.281
-684.295	-56.961	0.341	0.154
-683.281	-163.104	-0.246	-0.012
-682.266	-122.592	-0.387	0.064
-681.251	8.869	-0.277	-0.214
-680.237	-5.791	-0.213	-0.149
-679.222	800.000	-0.098	-0.365
-678.208	-200.000	-0.025	-0.132
-677.193	-29.566	-0.084	-0.049
-676.178	800.000	0.037	-0.157
-675.164	-200.000	0.041	-0.326
-674.149	286.366	0.106	-0.196
-673.135	282.936	0.156	-0.287
-672.120	-148.926	-0.303	-0.025
-671.105	-56.550	0.130	0.059
-670.091	-15.558	-0.335	-0.218
-669.076	-154.020	0.258	-0.018
-668.062	104.855	0.155	-0.186
-667.047	-38.915	-0.152	-0.082
-666.032	800.000	-0.098	0.365
-665.018	-185.237	-0.100	-0.002
-664.003	-29.671	0.153	-0.089
-662.989	-200.000	-0.014	0.116
-661.974	-46.827	0.103	-0.052
-660.959	-103.011	-0.124	0.030
-659.945	38.906	0.170	0.155
-658.930	85.224	-0.042	-0.047
-657.916	800.000	0.046	0.185
-656.901	11.326	0.142	-0.111
-655.886	-72.337	-0.227	0.086
-654.872	133.311	-0.146	-0.193
-653.857	783.023	-0.080	0.223
-652.843	78.911	0.110	0.121
-651.828	-200.000	-0.032	-0.160
-650.814	21.038	-0.207	0.171
-649.799	478.454	0.020	0.046
-648.784	800.000	-0.088	0.276
-647.770	800.000	0.047	0.200
-646.755	-73.396	0.172	-0.064
-645.741	-200.000	0.022	0.106
-644.726	800.000	-0.024	0.076
-643.711	477.775	0.126	-0.290
-642.697	800.000	-0.027	0.095
-641.682	800.000	-0.138	0.395
-640.668	-128.388	0.190	0.028
-639.653	211.915	-0.183	-0.293
-638.638	-142.539	0.198	0.020
-637.624	127.134	0.048	0.062
-636.609	-200.000	-0.002	-0.082
-635.595	-135.527	0.297	0.036
-634.580	-122.967	0.152	-0.025
-633.565	79.270	0.180	-0.197
-632.551	97.352	-0.308	-0.361
-631.536	637.666	0.049	-0.126
-630.522	24.412	0.195	0.164
-629.507	-124.335	0.212	-0.034
-628.492	192.008	0.125	0.192
-627.478	-200.000	0.033	0.389
-626.463	-6.240	-0.233	-0.162
-625.449	461.647	0.129	0.293
-624.434	44.144	-0.042	-0.039
-623.419	324.939	-0.021	0.042
-622.405	-104.310	0.302	0.071
-621.390	-161.599	-0.280	-0.015
-620.376	157.907	0.042	0.060
-619.361	187.928	-0.046	-0.070
-618.346	213.459	-0.138	0.223
-617.332	-102.287	-0.375	0.092
-616.317	63.049	-0.046	0.047
-615.303	31.983	-0.076	-0.067
-614.288	118.393	-0.164	0.206
-613.273	-120.327	-0.102	0.018
-612.259	771.987	0.073	0.201
-611.244	-200.000	-0.012	0.292
-610.230	-139.640	0.207	-0.023
-609.215	549.596	0.090	0.221
-608.201	-200.000	0.039	0.350
-607.186	519.794	-0.083	-0.199
-606.171	800.000	-0.013	0.043
-605.157	-63.697	0.349	-0.146
-604.142	-16.484	0.037	0.024
-603.128	-78.339	-0.383	0.134
-602.113	-121.934	0.240	-0.040
-601.098	89.229	0.123	-0.140
-600.084	-84.282	0.235	-0.076
-599.069	-25.416	0.259	-0.156
-598.055	800.000	-0.080	0.291
-597.040	-17.658	0.073	0.047
-596.025	-200.000	0.055	-0.254
-595.011	70.181	0.060	0.063
-593.996	800.000	-0.117	-0.336
-592.982	-200.000	-0.007	-0.271
-591.967	-122.519	-0.182	0.030
-590.952	-112.119	0.154	-0.032
-589.938	170.351	-0.119	0.173
-588.923	222.395	-0.155	-0.253
-587.909	-200.000	0.028	0.132
-586.894	-41.950	-0.267	-0.139
-585.879	504.706	0.072	-0.169
-584.865	-18.443	0.299	0.190
-583.850	438.632	0.077	0.171
-582.836	-87.760	0.309	-0.095
-581.821	147.591	-0.071	0.098
-580.806	-200.000	0.005	-0.276
-579.792	-43.749	0.277	-0.142
-578.777	304.076	0.214	0.403
-577.763	-31.370	0.183	0.105
-576.748	-150.509	0.203	-0.016
-575.733	-62.673	-0.452	-0.191
-574.719	-162.158	0.266	-0.014
-573.704	-23.201	-0.213	-0.130
-572.690	726.741	0.140	-0.380
-571.675	800.000	0.028	0.120
-570.661	-127.207	0.214	-0.032
-569.646	279.962	0.048	-0.087
-568.631	-36.594	-0.369	0.202
-567.617	93.033	0.096	-0.111
-566.602	636.561	0.084	0.216
-565.588	305.983	-0.249	-0.470
-564.573	800.000	-0.102	0.430
-563.558	-194.651	-0.191	0.002
-562.544	-73.926	0.027	-0.010
-561.529	-142.158	-0.085	-0.009
-560.515	-29.022	-0.153	-0.089
-559.500	7.172	0.365	0.277
-558.485	416.068	-0.181	0.392
-557.471	800.000	-0.025	-0.111
-556.456	-200.000	-0.013	-0.198
-555.442	-109.209	-0.187	0.040
-554.427	50.060	0.074	0.071
-553.412	647.578	-0.040	-0.105
-552.398	86.474	0.177	0.199
-551.383	-40.840	0.293	-0.154
-550.369	-95.283	-0.193	-0.053
-549.354	2.412	-0.262	-0.193
-548.339	-88.086	-0.335	-0.102
-547.325	100.385	0.153	0.180
-546.310	63.014	0.195	0.199
-545.296	-120.851	-0.503	-0.086
-544.281	676.962	-0.128	-0.339
-543.266	800.000	0.032	-0.103
-542.252	-151.312	-0.093	0.007
-541.237	-200.000	0.044	0.401
-540.223	-28.152	0.291	0.171
-539.208	-200.000	-0.087	-0.577
-538.193	-200.000	-0.089	-0.000
-537.179	371.118	-0.243	0.501
-536.164	-113.220	0.312	-0.062
-535.150	-28.683	0.240	-0.140
-534.135	268.868	-0.119	-0.212
-533.121	352.860	0.112	0.225
-532.106	139.897	-0.101	-0.135
-531.091	66.424	-0.043	0.045
-530.077	-99.541	0.281	0.072
-529.062	33.528	-0.163	0.144
-528.048	-100.019	-0.227	-0.057
-527.033	-39.545	-0.154	0.082
-526.018	800.000	0.023	-0.086
-525.004	-70.885	0.065	-0.025
-523.989	-35.065	0.133	0.073
-522.975	-87.190	0.073	-0.023
-521.960	198.331	-0.119	0.185
-520.945	-149.042	-0.172	0.014
-519.931	10.157	0.180	-0.139
-518.916	138.603	-0.067	-0.089
-517.902	67.514	-0.161	-0.167
-516.887	105.157	0.065	0.078
-515.872	-40.298	-0.030	0.016
-514.858	-200.000	-0.048	-0.244
-513.843	800.000	-0.072	0.234
-512.829	-2.019	-0.125	-0.089
-511.814	-148.215	-0.423	0.035
-510.799	166.080	0.068	0.097
-509.785	210.584	-0.137	0.219
-508.770	-78.047	0.296	-0.104
-507.756	-103.808	-0.275	-0.065
-506.741	76.909	0.161	-0.174
-505.726	-200.000	0.035	-0.202
-504.712	-200.000	-0.057	-0.422
-503.697	-61.107	-0.299	0.128
-502.683	-59.804	-0.266	0.116
-501.668	-18.293	0.173	-0.109
-500.653	-200.000	-0.013	0.092
-499.639	800.000	0.013	-0.045
-498.624	183.151	0.140	-0.209
-497.610	800.000	0.024	-0.099
-496.595	-200.000	-0.017	-0.086
-495.581	84.173	0.177	-0.196
-494.566	-134.683	0.086	-0.011
-493.551	-200.000	0.086	0.394
-492.537	-1.266	-0.107	0.077
-491.522	44.468	-0.152	0.142
-490.508	22.311	0.218	0.181
-489.493	-152.788	-0.189	0.014
-488.478	-200.000	-0.019	-0.178
-487.464	-50.072	-0.108	0.052
-486.449	-46.703	-0.315	0.156
-485.435	-101.173	-0.175	0.043
-484.420	-200.000	-0.042	0.252
-483.405	-53.849	-0.229	0.106
-482.391	173.771	0.228	0.334
-481.376	-142.134	0.179	-0.018
-480.362	-125.671	0.325	0.050
-479.347	109.805	0.113	-0.137
-478.332	-200.000	0.044	0.402
-477.318	572.224	0.048	0.118
-476.303	297.040	-0.019	-0.036
-475.289	162.064	0.129	-0.183
-474.274	98.185	0.215	-0.251
-473.259	-200.000	-0.002	0.061
-472.245	212.143	0.110	0.175
-471.230	25.811	-0.148	0.125
-470.216	-173.906	-0.016	0.000
-469.201	-200.000	-0.011	0.174
-468.186	-21.060	-0.198	0.123
-467.172	126.529	-0.203	0.260
-466.157	518.442	0.055	0.129
-465.143	-108.363	0.089	-0.019
-464.128	12.674	-0.149	-0.116
-463.113	23.032	-0.164	-0.136
-462.099	713.742	-0.031	0.083
-461.084	-200.000	-0.021	0.240
-460.070	-30.252	-0.076	-0.044
-459.055	111.607	0.209	-0.255
-458.040	800.000	0.086	0.359
-457.026	-200.000	0.002	-0.205
-456.011	92.655	0.122	0.140
-454.997	-26.459	-0.159	0.094
-453.982	-200.000	0.062	-0.327
-452.968	703.758	0.034	0.091
-451.953	241.464	-0.150	0.254
-450.938	26.516	0.211	-0.178
-449.924	-9.667	-0.228	-0.154
-448.909	800.000	0.039	-0.156
-447.895	171.566	-0.094	-0.137
-446.880	800.000	0.061	0.171
-445.865	-138.785	0.115	0.013
-444.851	-126.569	0.328	-0.049
-443.836	-67.911	0.270	0.107
-442.822	-200.000	-0.053	-0.250
-441.807	149.597	-0.039	0.054
-440.792	-128.725	-0.059	-0.008
-439.778	261.030	0.237	0.416
-438.763	-87.179	-0.391	-0.120
-437.749	800.000	-0.031	0.123
-436.734	-200.000	-0.007	0.241
-435.719	232.291	-0.269	-0.446
-434.705	-45.845	0.303	-0.151
-433.690	800.000	0.051	0.186
-432.676	161.175	0.130	0.184
-431.661	27.301	0.148	-0.126
-430.646	365.344	-0.093	-0.189
-429.632	-200.000	-0.023	0.102
-428.617	-78.951	0.362	-0.124
-427.603	-3.381	-0.177	0.125
-426.588	146.835	-0.152	-0.206
-425.573	160.066	0.179	-0.252
-424.559	47.216	-0.285	-0.268
-423.544	-28.669	0.157	0.091
-422.530	15.543	0.238	-0.189
-421.515	291.212	0.130	0.240
-420.500	298.449	-0.142	0.264
-419.486	-114.892	-0.155	-0.030
-418.471	-200.000	0.004	-0.304
-417.457	-86.662	-0.183	-0.057
-416.442	153.848	0.089	-0.123
-415.428	231.741	-0.227	-0.376
-414.413	-81.140	-0.237	0.079
-413.398	-200.000	0.002	-0.101
-412.384	800.000	0.069	-0.288
-411.369	388.182	-0.092	0.192
-410.355	18.906	-0.177	0.144
-409.340	731.192	0.095	-0.255
-408.325	0.080	-0.287	-0.207
-407.311	-153.200	-0.142	-0.010
-406.296	227.850	-0.005	-0.008
-405.282	-75.385	0.183	-0.066
-404.267	193.560	-0.204	0.312
-403.252	-144.899	0.481	0.044
-402.238	-200.000	0.035	-0.210
-401.223	66.491	0.151	0.155
-400.209	-22.228	0.314	-0.193
-399.194	-34.523	0.069	0.038
-398.179	16.853	0.270	-0.216
-397.165	155.718	0.108	-0.151
-396.150	-200.000	0.032	0.151
-395.136	-200.000	-0.044	0.392
-394.121	800.000	-0.026	-0.113
-393.106	-96.588	0.066	-0.017
-392.092	675.041	-0.107	-0.282
-391.077	622.951	-0.071	-0.180
-390.063	-38.291	-0.260	0.139
-389.048	735.812	0.057	0.153
-388.033	800.000	0.068	-0.288
-387.019	16.649	0.521	0.416
-386.004	496.764	0.073	0.169
-384.990	70.344	-0.162	0.169
-383.975	-14.297	0.140	0.091
-382.960	146.502	-0.145	-0.197
-381.946	-33.669	-0.213	0.118
-380.931	13.815	-0.244	0.191
-379.917	-198.367	-0.220	0.001
-378.902	103.317	-0.065	-0.077
-377.888	-43.879	-0.197	-0.100
-376.873	220.355	0.070	-0.113
-375.858	-100.191	0.212	0.053
-374.844	339.786	-0.068	0.134
-373.829	320.738	0.096	0.183
-372.815	348.490	0.063	-0.126
-371.800	12.461	-0.325	0.253
-370.785	-156.719	0.104	-0.006
-369.771	-200.000	-0.015	-0.081
-368.756	-46.970	-0.273	0.134
-367.742	180.920	0.275	0.407
-366.727	152.463	-0.145	0.200
-365.712	13.156	-0.054	-0.042
-364.698	-200.000	-0.001	0.186
-363.683	155.872	-0.074	0.103
-362.669	-39.692	0.085	0.045
-361.654	-10.752	0.195	0.130
-360.639	77.818	0.058	0.063
-359.625	800.000	0.093	-0.341
-358.610	-65.800	0.080	0.032
-357.596	-30.306	-0.140	0.080
-356.581	-163.796	-0.268	0.013
-355.566	380.718	-0.178	0.369
-354.552	-108.985	-0.076	-0.016
-353.537	-0.433	-0.208	-0.149
-352.523	-80.540	-0.277	0.093
-351.508	-200.000	0.032	-0.194
-350.493	93.191	0.092	0.104
-349.479	-200.000	0.008	0.163
-348.464	218.503	-0.323	0.520
-347.450	-56.263	0.418	0.187
-346.435	-195.496	-0.154	-0.001
-345.420	-200.000	-0.011	0.128
-344.406	-112.428	-0.132	0.027
-343.391	-58.393	-0.189	0.083
-342.377	706.661	-0.050	0.134
-341.362	134.657	0.092	-0.121
-340.348	246.270	0.152	0.258
-339.333	-34.155	0.124	-0.069
-338.318	-200.000	-0.023	-0.102
-337.304	61.753	-0.190	-0.190
-336.289	128.814	-0.224	-0.288
-335.275	-88.807	0.117	-0.035
-334.260	-156.819	0.464	-0.029
-333.245	800.000	-0.039	-0.119
-332.231	-145.836	0.115	0.010
-331.216	-88.044	0.105	-0.032
-330.202	19.392	-0.269	-0.218
-329.187	28.213	0.072	0.061
-328.172	-200.000	-0.023	-0.185
-327.158	-112.866	-0.336	0.067
-326.143	-33.504	-0.115	-0.064
-325.129	32.492	-0.160	0.139
-324.114	-200.000	0.034	0.349
-323.099	-96.406	0.188	0.050
-322.085	-143.830	-0.300	0.029
-321.070	11.752	-0.149	0.116
-320.056	0.177	-0.083	0.059
-319.041	-50.472	0.017	0.008
-318.026	-200.000	-0.006	-0.036
-317.012	-200.000	-0.013	0.067
-315.997	-200.000	0.015	-0.111
-314.983	40.561	0.012	-0.011
-313.968	116.594	0.140	-0.172
-312.953	-176.040	0.276	0.007
-311.939	133.785	-0.142	0.185
-310.924	-39.884	0.209	-0.110
-309.910	28.974	-0.021	-0.018
-308.895	-137.852	-0.070	-0.008
-307.880	-200.000	-0.096	-0.463
-306.866	598.535	-0.098	-0.245
-305.851	-200.000	0.002	0.235
-304.837	190.285	0.101	0.152
-303.822	309.116	0.086	-0.162
-302.807	42.313	-0.060	-0.055
-301.793	-84.238	0.515	0.164
-300.778	18.212	-0.077	-0.062
-299.764	-200.000	-0.005	-0.112
-298.749	-127.959	-0.235	-0.034
-297.735	-33.697	-0.245	0.136
-296.720	198.273	-0.119	0.183
-295.705	-97.836	0.210	-0.055
-294.691	38.475	-0.295	0.265
-293.676	276.723	-0.038	0.068
-292.662	109.263	0.084	0.101
-291.647	-45.248	0.209	0.104
-290.632	-50.456	-0.142	-0.067
-289.618	-101.741	0.328	0.080
-288.603	302.581	-0.112	-0.209
-287.589	-200.000	0.007	-0.241
-286.574	-6.857	0.226	-0.154
-285.559	-140.155	0.213	0.022
-284.545	-56.273	-0.176	0.079
-283.530	64.250	-0.152	-0.154
-282.516	-135.865	-0.150	0.018
-281.501	-200.000	-0.014	-0.094
-280.486	-71.808	0.104	0.039
-279.472	-200.000	-0.064	-0.431
-278.457	-36.983	-0.207	0.111
-277.443	-200.000	-0.016	-0.116
-276.428	206.570	0.098	0.153
-275.413	-96.676	-0.234	-0.062
-274.399	-37.627	0.269	0.144
-273.384	-200.000	0.005	0.066
-272.370	222.494	0.102	0.165
-271.355	172.209	0.144	-0.208
-270.340	651.831	0.059	0.151
-269.326	-200.000	-0.066	-0.466
-268.311	105.084	0.310	-0.368
-267.297	-86.847	-0.094	-0.029
-266.282	-10.270	-0.015	-0.010
-265.267	-200.000	-0.001	-0.385
-264.253	-187.412	-0.139	0.002
-263.238	-155.890	-0.467	0.030
-262.224	67.056	-0.034	0.035
-261.209	-79.567	-0.110	0.037
-260.195	220.197	-0.332	0.535
-259.180	-52.010	0.121	0.057
-258.165	-56.736	0.115	-0.051
-257.151	-200.000	-0.019	-0.199
-256.136	-200.000	-0.012	-0.138
-255.122	-53.972	0.065	0.030
-254.107	-101.071	0.349	-0.086
-253.092	-10.476	0.115	0.076
-252.078	-7.868	-0.203	-0.138
-251.063	800.000	-0.022	-0.079
-250.049	-200.000	0.041	-0.212
-249.034	-102.503	-0.285	-0.069
-248.019	-42.262	0.108	-0.056
-247.005	800.000	0.095	-0.344
-245.990	388.100	0.045	-0.094
-244.976	-200.000	-0.009	-0.120
-243.961	188.042	-0.079	0.118
-242.946	-200.000	-0.061	-0.363
-241.932	-7.631	0.275	0.187
-240.917	-131.583	-0.209	0.028
-239.903	-138.616	0.230	-0.025
-238.888	464.400	0.125	0.281
-237.873	-120.817	-0.243	0.041
-236.859	-58.686	-0.233	-0.101
-235.844	800.000	-0.092	-0.262
-234.830	181.971	-0.218	0.323
-233.815	-47.739	-0.007	-0.003
-232.800	-187.789	-0.347	-0.005
-231.786	511.017	-0.006	0.015
-230.771	-17.191	0.238	-0.151
-229.757	-200.000	0.010	-0.188
-228.742	46.267	-0.179	-0.166
-227.727	41.406	0.101	-0.091
-226.713	800.000	0.007	0.020
-225.698	-200.000	-0.030	0.499
-224.684	-34.779	0.233	-0.128
-223.669	-200.000	-0.028	0.177
-222.655	800.000	-0.043	-0.164
-221.640	-127.693	-0.184	-0.027
-220.625	-65.373	0.307	-0.124
-219.611	158.098	-0.199	0.277
-218.596	2.481	-0.090	-0.065
-217.582	-86.633	-0.167	0.051
-216.567	800.000	-0.022	0.068
-215.552	-171.005	0.237	-0.008
-214.538	-135.315	0.024	0.003
-213.523	67.450	0.091	-0.093
-212.509	121.058	0.203	-0.253
-211.494	800.000	0.032	-0.127
-210.479	-200.000	-0.048	-0.219
-209.465	-111.326	-0.165	0.034
-208.450	800.000	-0.031	0.126
-207.436	302.120	0.146	-0.270
-206.421	-200.000	-0.046	-0.251
-205.406	262.526	0.123	0.213
-204.392	-31.634	0.209	0.117
-203.377	-24.452	-0.077	0.046
-202.363	800.000	0.047	0.171
-201.348	-72.127	0.250	0.093
-200.333	-120.155	0.214	-0.037
-199.319	-200.000	0.027	0.300
-198.304	68.793	0.115	0.118
-197.290	-200.000	-0.004	-0.475
-196.275	471.702	-0.040	0.089
-195.260	226.376	0.150	0.245
-194.246	115.140	-0.058	-0.070
-193.231	53.586	-0.122	-0.117
-192.217	38.502	0.080	0.072
-191.202	168.220	-0.060	0.086
-190.187	198.717	-0.133	-0.203
-189.173	415.771	-0.056	0.120
-188.158	-44.022	-0.412	0.207
-187.144	-117.489	-0.162	0.029
-186.129	150.054	-0.227	0.308
-185.114	-1.780	0.134	0.094
-184.100	-147.381	0.111	0.009
-183.085	153.357	0.014	-0.019
-182.071	278.565	-0.159	0.284
-181.056	-146.099	-0.315	0.028
-180.042	145.252	0.158	-0.211
-179.027	232.043	0.123	-0.202
-178.012	27.277	0.152	-0.128
-176.998	358.073	-0.083	0.166
-175.983	265.594	0.097	-0.169
-174.969	135.434	0.353	-0.459
-173.954	-93.061	-0.294	0.082
-172.939	411.491	0.036	0.078
-171.925	176.710	0.217	-0.316
-170.910	-113.634	0.309	0.060
-169.896	-200.000	-0.012	0.192
-168.881	-20.607	-0.076	0.047
-167.866	319.919	-0.132	-0.252
-166.852	540.258	-0.083	-0.199
-165.837	800.000	-0.038	-0.162
-164.823	-11.473	0.212	-0.140
-163.808	-150.065	0.205	0.016
-162.793	462.264	0.115	0.257
-161.779	-48.309	0.150	0.072
-160.764	-200.000	0.008	-0.150
-159.750	33.208	-0.121	-0.105
-158.735	800.000	-0.073	-0.298
-157.720	-108.627	0.288	-0.062
-156.706	-200.000	-0.035	-0.261
-155.691	800.000	0.077	0.250
-154.677	-136.470	0.262	-0.030
-153.662	75.750	0.255	0.270
-152.647	28.381	-0.234	-0.198
-151.633	265.752	0.043	0.075
-150.618	35.123	-0.273	-0.240
-149.604	18.490	-0.389	0.311
-148.589	800.000	0.047	0.152
-147.574	-200.000	0.035	0.274
-146.560	566.892	0.028	0.068
-145.545	247.294	-0.253	0.427
-144.531	410.850	-0.058	0.123
-143.516	-200.000	0.032	-0.373
-142.502	-200.000	-0.015	0.360
-141.487	-57.321	0.165	0.073
-140.472	-121.090	-0.161	-0.027
-139.458	226.544	-0.112	-0.182
-138.443	536.759	0.067	0.160
-137.429	-106.444	-0.095	-0.021
-136.414	-200.000	0.092	0.448
-135.399	-200.000	-0.011	0.135
-134.385	-56.090	-0.041	0.018
-133.370	-61.165	0.155	-0.065
-132.356	-200.000	0.000	-0.011
-131.341	-34.306	-0.157	-0.086
-130.326	43.813	-0.176	0.161
-129.312	-97.893	-0.379	-0.098
-128.297	-200.000	-0.029	0.322
-127.283	-119.516	0.139	0.024
-126.268	65.580	-0.153	-0.155
-125.253	-200.000	-0.010	-0.049
-124.239	-31.067	-0.076	-0.043
-123.224	800.000	-0.046	-0.170
-122.210	-200.000	-0.019	0.212
-121.195	271.295	-0.081	-0.143
-120.180	87.329	0.063	0.070
-119.166	9.200	0.165	0.124
-118.151	237.038	0.029	0.048
-117.137	213.629	0.263	0.416
-116.122	-141.369	0.077	-0.008
-115.107	6.905	0.369	-0.274
-114.093	270.996	-0.115	0.201
-113.078	-200.000	-0.085	0.463
-112.064	-15.508	0.212	0.135
-111.049	32.469	0.135	0.116
-110.034	-111.243	0.234	0.048
-109.020	94.371	0.145	0.165
-108.005	-80.385	-0.233	0.078
-106.991	-145.105	-0.161	0.015
-105.976	-200.000	-0.053	-0.263
-104.962	-90.405	-0.153	-0.044
-103.947	800.000	0.097	-0.312
-102.932	50.035	-0.148	0.140
-101.918	-105.405	0.613	0.139
-100.903	-79.067	-0.274	0.093
-99.889	28.446	0.189	-0.159
-98.874	1.222	0.078	0.056
-97.859	430.541	-0.019	0.041
-96.845	800.000	0.042	0.135
-95.830	800.000	0.048	-0.148
-94.816	-143.249	-0.358	0.034
-93.801	23.395	0.123	0.101
-92.786	738.854	0.165	-0.442
-91.772	-12.767	-0.071	0.046
-90.757	703.054	0.006	0.016
-89.743	-78.239	-0.296	0.101
-88.728	-200.000	0.012	-0.097
-87.713	-73.200	0.169	-0.062
-86.699	-67.236	-0.125	0.049
-85.684	35.005	0.153	-0.134
-84.670	800.000	-0.092	-0.299
-83.655	-86.882	0.232	-0.071
-82.640	-30.834	-0.115	-0.065
-81.626	-200.000	-0.019	0.118
-80.611	434.861	0.106	-0.230
-79.597	-33.571	0.247	0.136
-78.582	-27.972	-0.092	-0.053
-77.567	267.484	-0.042	0.074
-76.553	-67.660	-0.164	-0.064
-75.538	-125.939	0.236	0.035
-74.524	31.046	-0.282	-0.241
-73.509	800.000	0.063	-0.197
-72.494	-104.638	0.255	-0.059
-71.480	-147.890	0.090	-0.007
-70.465	-83.366	-0.227	-0.073
-69.451	174.803	-0.196	0.283
-68.436	314.439	0.087	0.163
-67.422	-200.000	-0.043	-0.388
-66.407	-93.448	-0.252	0.070
-65.392	337.690	0.112	0.217
-64.378	-200.000	0.010	-0.087
-63.363	134.248	0.194	0.251
-62.349	-5.292	0.256	-0.175
-61.334	97.600	-0.623	-0.713
-60.319	30.118	0.278	0.237
-59.305	319.534	-0.309	-0.585
-58.290	-200.000	0.111	0.632
-57.276	800.000	0.668	1.837
-56.261	-200.000	76.502	517.000
-55.246	514.234	1332.231	3097.668
-54.232	143.182	2569.778	3407.241
-53.217	118.331	2236.340	2748.968
-52.203	53.575	1671.302	1597.956
-51.188	45.038	1391.400	1277.164
-50.173	41.412	1344.770	1212.324
-49.159	59.903	1381.136	1359.021
-48.144	66.923	1399.194	1419.736
-47.130	45.622	1361.182	1252.804
-46.115	41.376	1344.740	1211.885
-45.100	41.171	1340.230	1206.530
-44.086	41.068	1337.573	1203.468
-43.071	40.965	1335.627	1201.046
-42.057	40.975	1333.047	1198.741
-41.042	41.013	1331.220	1197.279
-40.027	41.138	1329.909	1196.801
-39.013	41.073	1328.189	1194.817
-37.998	41.133	1326.016	1193.177
-36.984	41.137	1324.245	1191.559
-35.969	41.131	1322.813	1190.183
-34.954	41.239	1320.518	1188.719
-33.940	41.253	1319.644	1187.970
-32.925	41.286	1317.999	1186.635
-31.911	41.269	1316.394	1185.043
-30.896	41.271	1315.083	1183.826
-29.881	41.306	1313.873	1182.899
-28.867	41.269	1312.116	1181.052
-27.852	41.292	1310.466	1179.658
-26.838	41.276	1309.120	1178.306
-25.823	41.351	1307.280	1177.046
-24.809	41.362	1305.955	1175.866
-23.794	41.241	1305.246	1174.468
-22.779	41.258	1303.594	1173.038
-21.765	41.285	1302.139	1171.838
-20.750	41.416	1300.479	1171.069
-19.736	41.247	1299.478	1169.127
-18.721	41.188	1298.397	1167.765
-17.706	41.186	1297.314	1166.735
-16.692	41.181	1295.955	1165.435
-15.677	41.144	1295.420	1164.689
-14.663	41.168	1293.785	1163.314
-13.648	41.192	1292.578	1162.325
-12.633	41.111	1291.736	1161.050
-11.619	41.206	1290.609	1160.543
-10.604	41.140	1289.638	1159.236
-9.590	41.011	1288.792	1157.680
-8.575	41.118	1287.229	1156.855
-7.560	41.130	1286.689	1156.390
-6.546	41.067	1285.982	1155.342
-5.531	41.214	1284.919	1155.198
-4.517	41.089	1284.273	1153.847
-3.502	41.123	1283.383	1153.196
-2.487	41.146	1282.474	1152.470
-1.473	41.316	1279.247	1150.501
-0.458	40.738	1264.794	1134.157
0.556	35.404	1247.680	1095.621
1.571	31.101	1250.623	1073.415
2.586	29.309	1264.753	1075.008
3.600	27.740	1254.106	1056.784
4.615	21.312	1178.691	958.027
5.629	10.823	1097.143	837.856
6.644	5.608	1073.642	793.469
7.659	5.091	1070.439	788.420
8.673	4.936	1069.236	786.680
9.688	4.868	1068.225	785.529
10.702	5.494	1066.641	787.445
11.717	11.469	1075.951	824.500
12.731	19.289	1086.574	872.303
13.746	19.849	1086.270	874.812
14.761	17.706	1082.947	861.243
15.775	16.478	1080.409	852.960
16.790	15.378	1078.011	845.450
17.804	14.808	1076.340	841.196
18.819	14.315	1075.320	837.844
19.834	14.071	1074.411	835.838
20.848	13.809	1073.189	833.495
21.863	13.484	1072.705	831.415
22.877	13.426	1071.668	830.247
23.892	13.375	1071.275	829.614
24.907	13.384	1070.187	828.740
25.921	13.387	1069.269	827.972
26.936	13.572	1067.683	827.597
27.950	13.438	1066.748	826.130
28.965	13.575	1064.927	825.328
29.980	13.653	1063.544	824.573
30.994	13.657	1062.515	823.718
32.009	13.662	1061.248	822.690
33.023	13.648	1060.024	821.598
34.038	13.660	1058.503	820.408
35.053	13.550	1058.330	819.655
36.067	13.497	1057.362	818.570
37.082	13.538	1056.131	817.748
38.096	13.506	1055.738	817.213
39.111	13.655	1054.537	816.945
40.126	13.511	1053.841	815.627
41.140	13.345	1052.543	813.730
42.155	13.389	1050.961	812.654
43.169	13.228	1050.150	811.165
44.184	13.194	1049.209	810.197
45.199	13.279	1048.402	809.920
46.213	13.363	1047.013	809.186
47.228	13.444	1046.461	809.082
48.242	13.460	1045.111	808.045
49.257	13.581	1044.255	807.906
50.271	13.468	1044.013	807.095
51.286	13.537	1042.433	806.139
52.301	13.605	1041.357	805.566
53.315	13.400	1040.495	803.830
54.330	13.387	1039.344	802.809
55.344	13.277	1038.490	801.542
56.359	13.392	1037.896	801.571
57.374	13.301	1036.720	800.151
58.388	13.231	1036.028	799.210
59.403	13.284	1035.085	798.664
60.417	13.403	1034.235	798.515
61.432	13.290	1032.978	796.928
62.447	13.206	1032.624	796.179
63.461	13.185	1031.701	795.295
64.476	13.120	1030.728	794.163
65.490	13.299	1029.673	794.141
66.505	13.175	1029.508	793.346
67.520	13.181	1028.531	792.555
68.534	13.265	1027.818	792.338
69.549	13.197	1027.039	791.340
70.563	13.208	1025.949	790.481
71.578	13.187	1024.941	789.536
72.593	13.098	1024.509	788.708
73.607	13.249	1023.728	788.759
74.622	13.189	1023.381	788.135
75.636	13.173	1022.580	787.373
76.651	13.120	1021.881	786.511
77.666	13.240	1021.058	786.378
78.680	13.148	1020.959	785.798
79.695	13.245	1019.840	785.326
80.709	13.320	1019.082	785.030
81.724	13.277	1018.458	784.272
82.739	13.485	1017.320	784.312
83.753	13.461	1017.194	784.034
84.768	13.547	1016.443	783.791
85.782	13.558	1015.542	783.082
86.797	13.461	1014.803	781.982
87.812	13.395	1013.487	780.587
88.826	13.497	1012.486	780.228
89.841	13.485	1011.595	779.417
90.855	13.521	1011.193	779.206
91.870	13.607	1010.121	778.718
92.884	13.694	1008.919	778.130
93.899	13.699	1008.398	777.681
94.914	13.661	1007.519	776.760
95.928	13.604	1006.969	775.996
96.943	13.552	1006.108	775.021
97.957	13.497	1005.379	774.134
98.972	13.467	1004.118	772.958
99.987	13.644	1003.323	773.100
101.001	13.495	1002.244	771.508
102.016	13.568	1001.467	771.180
103.030	13.694	1000.366	770.849
104.045	13.570	999.992	769.918
105.060	13.622	998.961	769.296
106.074	13.554	997.560	767.836
107.089	13.386	996.866	766.456
108.103	13.332	996.134	765.574
109.118	13.377	995.106	764.927
110.133	13.338	994.085	763.890
111.147	13.405	993.302	763.532
112.162	13.390	992.690	762.927
113.176	13.447	991.851	762.473
114.191	13.487	991.059	761.982
115.206	13.463	990.423	761.315
116.220	13.430	989.726	760.561
117.235	13.250	989.074	759.168
118.249	13.429	987.990	759.089
119.264	13.454	986.975	758.356
120.279	13.356	986.562	757.525
121.293	13.386	985.277	756.607
122.308	13.320	984.212	755.422
123.322	13.233	983.496	754.408
124.337	13.218	982.823	753.754
125.352	13.311	981.726	753.273
126.366	13.377	980.234	752.361
127.381	13.386	979.432	751.717
128.395	13.391	978.541	750.990
129.410	13.451	977.189	750.157
130.424	13.465	976.613	749.715
131.439	13.503	975.887	749.261
132.454	13.636	975.069	749.167
133.468	13.545	974.180	748.006
134.483	13.600	973.152	747.402
135.497	13.545	972.504	746.589
136.512	13.607	971.984	746.403
137.527	13.468	971.074	745.012
138.541	13.517	970.233	744.522
139.556	13.609	969.770	744.516
140.570	13.705	969.108	744.373
141.585	13.828	968.075	744.062
142.600	13.751	967.209	742.987
143.614	13.676	966.631	742.141
144.629	13.818	965.714	742.005
145.643	13.845	964.276	740.959
146.658	13.807	963.496	740.123
147.673	13.698	962.301	738.654
148.687	13.607	961.894	737.872
149.702	13.459	960.907	736.391
150.716	13.532	959.945	735.912
151.731	13.632	959.148	735.679
152.746	13.559	958.859	735.070
153.760	13.548	958.331	734.550
154.775	13.646	957.329	734.152
155.789	13.820	956.491	734.212
156.804	13.800	955.932	733.629
157.819	13.829	955.549	733.399
158.833	13.876	954.805	732.974
159.848	13.734	953.981	731.646
160.862	13.762	952.854	730.843
161.877	13.620	951.866	729.397
162.892	13.622	950.859	728.568
163.906	13.649	950.024	727.983
164.921	13.731	948.960	727.464
165.935	13.779	948.064	726.923
166.950	13.785	947.326	726.319
167.964	13.747	946.387	725.368
168.979	13.688	945.690	724.513
169.994	13.728	944.624	723.807
171.008	13.829	944.123	723.797
172.023	13.910	943.107	723.305
173.037	13.924	942.753	723.031
174.052	13.836	942.224	722.179
175.067	13.727	941.297	720.931
176.081	13.768	940.966	720.794
177.096	13.620	940.576	719.787
178.110	13.716	939.665	719.441
179.125	13.856	939.208	719.635
180.140	13.849	938.449	718.961
181.154	13.750	938.223	718.297
182.169	13.925	937.833	718.689
183.183	14.091	936.702	718.477
184.198	14.002	936.092	717.560
185.213	13.930	935.861	717.011
186.227	14.083	934.876	716.852
187.242	14.028	934.534	716.289
188.256	14.039	933.799	715.709
189.271	14.085	932.825	715.099
190.286	13.891	932.050	713.608
191.300	13.776	931.337	712.505
192.315	13.750	930.821	711.934
193.329	13.745	930.421	711.545
194.344	13.916	929.780	711.724
195.359	13.908	929.146	711.144
196.373	14.004	928.074	710.670
197.388	14.122	928.236	711.234
198.402	14.225	927.264	710.867
199.417	14.243	926.934	710.627
200.432	14.295	926.109	710.155
201.446	14.345	925.548	709.877
202.461	14.325	925.472	709.669
203.475	14.359	924.682	709.144
204.490	14.258	923.900	708.053
205.504	14.265	922.995	707.328
206.519	14.127	922.526	706.318
207.534	14.073	922.033	705.648
208.548	14.248	921.076	705.597
209.563	14.244	920.528	705.095
210.577	14.323	919.817	704.822
211.592	14.308	919.126	704.171
212.607	14.496	918.558	704.467
213.621	14.408	918.043	703.636
214.636	14.367	917.003	702.604
215.650	14.474	916.027	702.243
216.665	14.540	915.426	701.999
217.680	14.613	914.525	701.555
218.694	14.617	914.024	701.125
219.709	14.506	913.794	700.419
220.723	14.529	912.941	699.802
221.738	14.424	912.089	698.645
222.753	14.573	911.538	698.785
223.767	14.619	911.042	698.536
224.782	14.549	910.492	697.759
225.796	14.707	909.743	697.785
226.811	14.726	908.917	697.167
227.826	14.571	908.237	695.940
228.840	14.455	907.938	695.165
229.855	14.615	906.666	694.796
230.869	14.640	905.747	694.132
231.884	14.558	905.612	693.628
232.899	14.617	904.552	692.998
233.913	14.460	903.835	691.737
234.928	14.641	903.195	691.935
235.942	14.619	902.915	691.569
236.957	14.529	901.891	690.352
237.972	14.646	901.600	690.553
238.986	14.542	900.547	689.256
240.001	14.559	900.150	688.958
241.015	14.526	899.842	688.526
242.030	14.659	898.761	688.187
243.045	14.713	898.446	688.109
244.059	14.726	897.742	687.563
245.074	14.665	897.116	686.769
246.088	14.677	896.553	686.327
247.103	14.659	896.261	685.968
248.117	14.765	895.777	685.974
249.132	14.925	895.302	686.205
250.147	14.928	894.506	685.546
251.161	15.019	893.692	685.234
252.176	14.935	892.758	684.114
253.190	15.094	892.555	684.551
254.205	15.142	891.541	683.907
255.220	15.172	891.070	683.608
256.234	15.033	890.652	682.658
257.249	15.198	889.816	682.632
258.263	15.106	889.157	681.688
259.278	15.268	887.942	681.357
260.293	15.161	887.709	680.684
261.307	15.232	887.292	680.590
262.322	15.309	886.542	680.269
263.336	15.373	885.409	679.596
264.351	15.365	884.951	679.155
265.366	15.403	884.506	678.906
266.380	15.397	883.864	678.328
267.395	15.494	883.019	678.012
268.409	15.380	882.020	676.724
269.424	15.381	881.356	676.158
270.439	15.194	880.865	674.971
271.453	15.350	880.208	675.035
272.468	15.270	879.455	674.074
273.482	15.448	878.732	674.178
274.497	15.369	878.548	673.660
275.512	15.287	877.953	672.812
276.526	15.333	877.792	672.817
277.541	15.487	877.002	672.767
278.555	15.465	876.378	672.141
279.570	15.614	875.530	672.027
280.585	15.673	874.574	671.471
281.599	15.403	874.480	670.260
282.614	15.408	873.575	669.528
283.628	15.593	872.728	669.554
284.643	15.443	872.556	668.765
285.657	15.416	871.803	668.022
286.672	15.536	871.077	667.885
287.687	15.692	870.662	668.128
288.701	15.644	869.750	667.180
289.716	15.524	869.470	666.430
290.730	15.585	868.734	666.047
291.745	15.523	868.291	665.401
292.760	15.750	867.143	665.364
293.774	15.844	866.582	665.245
294.789	15.803	866.073	664.635
295.803	15.688	865.646	663.793
296.818	15.696	864.849	663.154
297.833	15.788	864.105	662.889
298.847	15.700	863.639	662.123
299.862	15.883	862.847	662.177
300.876	15.728	862.692	661.391
301.891	15.802	862.169	661.224
302.906	15.977	861.389	661.252
303.920	15.850	861.350	660.666
304.935	15.946	860.689	660.478
305.949	16.077	859.934	660.354
306.964	15.934	859.158	659.138
307.979	15.999	858.601	658.908
308.993	15.904	858.480	658.386
310.008	15.944	857.523	657.749
311.022	15.980	856.918	657.368
312.037	15.889	856.502	656.636
313.052	15.777	856.015	655.765
314.066	15.902	855.138	655.524
315.081	16.024	854.478	655.434
316.095	15.844	854.063	654.357
317.110	15.889	853.416	653.977
318.125	15.824	853.081	653.413
319.139	15.881	852.646	653.244
320.154	15.930	851.895	652.801
321.168	15.915	851.678	652.515
322.183	16.007	851.046	652.333
323.197	16.067	850.536	652.115
324.212	15.999	850.002	651.385
325.227	15.908	849.478	650.574
326.241	15.967	848.799	650.223
327.256	16.182	847.880	650.292
328.270	16.050	847.391	649.352
329.285	16.085	846.905	649.056
330.300	16.104	846.490	648.755
331.314	15.961	845.804	647.620
332.329	16.121	845.536	647.973
333.343	16.222	844.861	647.787
334.358	16.138	844.685	647.269
335.373	16.247	844.486	647.481
336.387	16.159	844.023	646.728
337.402	16.209	843.597	646.537
338.416	16.333	843.601	646.959
339.431	16.398	842.974	646.667
340.446	16.336	842.844	646.273
341.460	16.387	841.911	645.696
342.475	16.494	841.435	645.682
343.489	16.483	841.163	645.377
344.504	16.469	840.635	644.862
345.519	16.475	839.904	644.267
346.533	16.525	839.678	644.224
347.548	16.414	839.209	643.384
348.562	16.350	838.431	642.488
349.577	16.337	838.024	642.071
350.592	16.405	836.772	641.311
351.606	16.375	836.259	640.750
352.621	16.383	835.702	640.295
353.635	16.357	835.554	640.026
354.650	16.493	834.512	639.686
355.665	16.454	834.109	639.173
356.679	16.403	833.389	638.375
357.694	16.557	832.338	638.092
358.708	16.530	832.134	637.779
359.723	16.380	831.829	636.922
360.738	16.647	830.691	636.999
361.752	16.644	830.599	636.864
362.767	16.646	829.769	636.177
363.781	16.872	829.046	636.413
364.796	16.803	828.795	635.906
365.810	16.848	828.847	636.058
366.825	16.845	828.473	635.705
367.840	16.844	827.654	635.016
368.854	16.817	826.999	634.356
369.869	16.836	826.742	634.176
370.883	16.887	826.099	633.814
371.898	16.902	826.080	633.801
372.913	16.942	825.599	633.526
373.927	16.918	825.273	633.128
374.942	16.889	824.659	632.492
375.956	16.986	824.331	632.549
376.971	17.020	823.551	632.021
377.986	17.203	823.254	632.420
379.000	17.018	823.156	631.596
380.015	16.965	822.540	630.871
381.029	17.119	821.970	630.952
382.044	17.002	821.205	629.875
383.059	17.200	820.249	629.818
384.073	17.084	820.291	629.366
385.088	17.125	819.033	628.496
386.102	17.134	818.507	628.071
387.117	17.051	817.783	627.151
388.132	17.109	817.472	627.075
389.146	17.064	816.759	626.303
390.161	17.125	816.582	626.338
391.175	17.172	816.654	626.512
392.190	16.890	816.186	625.059
393.205	17.162	815.010	625.104
394.219	16.890	815.318	624.280
395.234	17.155	814.445	624.532
396.248	17.111	813.661	623.715
397.263	16.979	813.572	623.107
398.278	17.075	812.889	622.881
399.292	17.073	812.620	622.612
400.307	17.194	812.211	622.688
401.321	17.048	811.554	621.596
402.336	17.051	811.311	621.366
403.350	17.185	810.959	621.528
404.365	17.252	810.423	621.308
405.380	17.193	810.132	620.814
406.394	17.368	809.522	620.933
407.409	17.415	808.998	620.647
408.423	17.527	808.683	620.757
409.438	17.659	808.086	620.725
410.453	17.562	807.819	620.111
411.467	17.550	807.412	619.700
412.482	17.554	807.023	619.363
413.496	17.609	806.910	619.421
414.511	17.601	806.372	618.925
415.526	17.571	806.033	618.501
416.540	17.529	805.495	617.879
417.555	17.798	804.572	618.093
418.569	17.714	804.316	617.538
419.584	17.791	804.107	617.599
420.599	17.618	803.747	616.643
421.613	89.950	1261.119	1359.178
422.628	76.803	1327.788	1359.292
