DTS Sentinel unit serial number:	SN413079Multiplexer serial number:	ORYXHardware model number:	OX4-SRSoftware version number:	ORYX F/W v4.00 Oryx Data Collector v3.7.2.0data status	okinstallation	princeton_trtdifferential loss correction	single-endedforward channel	channel 1reverse channel	N/Adate	2019/09/19time	04:14:35forward acquisition time	60.00reverse acquisition time	0.00gamma	496.2192k internal	0.2342k external	0.2342temperature offset calibration	1.0023default loss term (dB/km)	0.3790temperature slope calibration	1.0000multiplexer offset coefficient	1.0000multiplexer slope coefficient	1.0000fibre end	0.00T internal ref (°C)	20.31T ext. ref 1 (°C)	0.64T ext. ref 2 (°C)	13.70length (m)	temperature (°C)	Stokes	anti-Stokes-747.200	428.852	0.109	0.235
-746.185	-200.000	0.041	0.184
-745.171	715.727	-0.111	0.295
-744.156	-85.797	-0.390	-0.121
-743.142	15.372	0.165	-0.130
-742.127	-33.500	-0.089	-0.049
-741.112	317.771	0.097	0.184
-740.098	59.809	-0.154	0.152
-739.083	-119.861	0.109	0.019
-738.069	-40.332	0.169	0.088
-737.054	284.734	0.133	0.239
-736.039	-200.000	-0.066	-0.316
-735.025	51.597	0.287	-0.273
-734.010	-32.902	0.029	0.016
-732.996	38.793	-0.272	-0.243
-731.981	113.220	-0.167	-0.203
-730.966	-21.815	0.110	-0.067
-729.952	-200.000	0.010	0.236
-728.937	-200.000	0.008	-0.055
-727.923	-200.000	0.016	-0.213
-726.908	-200.000	-0.382	0.002
-725.894	800.000	-0.054	-0.176
-724.879	-8.733	0.032	-0.021
-723.864	206.046	0.147	-0.229
-722.850	123.243	-0.255	-0.320
-721.835	38.585	0.117	0.105
-720.821	125.865	0.104	-0.131
-719.806	215.363	0.226	-0.359
-718.791	93.393	-0.260	0.294
-717.777	-200.000	0.012	0.251
-716.762	-168.729	0.316	-0.012
-715.748	109.105	-0.061	0.073
-714.733	-57.091	0.103	-0.045
-713.718	-150.485	0.075	-0.006
-712.704	-200.000	0.012	-0.089
-711.689	144.523	-0.179	0.240
-710.675	328.784	0.060	-0.114
-709.660	343.299	0.062	0.122
-708.645	736.300	-0.116	-0.312
-707.631	-200.000	-0.018	-0.143
-706.616	-200.000	-0.014	0.245
-705.602	-200.000	0.044	-0.380
-704.587	346.553	0.179	-0.351
-703.572	-47.452	0.338	-0.164
-702.558	489.771	0.033	0.075
-701.543	605.477	0.057	0.142
-700.529	163.829	0.152	-0.214
-699.514	-200.000	0.003	0.059
-698.499	800.000	-0.019	0.071
-697.485	-200.000	-0.005	-0.036
-696.470	-200.000	0.009	0.381
-695.456	62.600	-0.156	-0.155
-694.441	-157.540	0.299	-0.018
-693.426	-200.000	0.014	0.096
-692.412	-185.522	-0.423	0.006
-691.397	32.471	-0.152	0.131
-690.383	505.549	0.108	-0.250
-689.368	275.756	0.134	-0.237
-688.354	114.418	0.081	0.098
-687.339	-19.533	0.171	-0.106
-686.324	-119.529	-0.293	0.051
-685.310	-200.000	0.016	-0.179
-684.295	128.083	0.137	-0.174
-683.281	84.777	-0.057	-0.062
-682.266	278.113	0.059	0.105
-681.251	192.002	-0.025	-0.038
-680.237	-20.532	-0.257	0.158
-679.222	-81.972	-0.261	0.085
-678.208	37.665	-0.278	-0.247
-677.193	285.529	0.117	-0.211
-676.178	373.831	-0.017	-0.035
-675.164	56.826	0.328	0.319
-674.149	-97.158	-0.392	-0.102
-673.135	-200.000	0.023	-0.236
-672.120	-93.951	0.066	-0.018
-671.105	-55.990	-0.309	0.138
-670.091	-5.219	-0.171	0.118
-669.076	-95.395	-0.324	-0.087
-668.062	800.000	-0.130	0.380
-667.047	-200.000	0.004	0.103
-666.032	800.000	0.044	-0.179
-665.018	-0.723	-0.103	0.073
-664.003	-81.989	-0.119	0.039
-662.989	-200.000	0.005	-0.491
-661.974	-26.120	-0.071	0.041
-660.959	-200.000	-0.002	0.058
-659.945	800.000	0.053	-0.171
-658.930	-200.000	-0.005	0.047
-657.916	56.171	-0.064	-0.062
-656.901	83.193	-0.179	0.194
-655.886	-49.961	-0.316	0.150
-654.872	-44.125	0.145	-0.073
-653.857	4.536	0.280	0.205
-652.843	-200.000	0.003	-0.067
-651.828	26.359	-0.137	0.115
-650.814	192.715	-0.151	0.227
-649.799	-157.129	0.289	0.018
-648.784	106.722	-0.092	0.109
-647.770	-200.000	0.010	0.109
-646.755	194.481	-0.123	0.186
-645.741	30.430	0.140	0.119
-644.726	-200.000	-0.008	-0.108
-643.711	199.837	0.205	-0.313
-642.697	254.501	-0.143	-0.243
-641.682	39.942	0.109	-0.097
-640.668	-91.426	-0.150	-0.043
-639.653	-6.835	-0.178	-0.120
-638.638	-18.968	0.215	-0.133
-637.624	-191.040	0.105	0.001
-636.609	-47.726	-0.185	0.089
-635.595	12.111	-0.166	0.127
-634.580	-124.302	-0.182	0.028
-633.565	54.479	0.054	-0.052
-632.551	65.364	-0.154	-0.155
-631.536	-93.219	0.244	0.068
-630.522	-89.000	0.345	0.102
-629.507	-200.000	-0.001	-0.073
-628.492	-139.185	0.195	0.021
-627.478	31.681	-0.125	0.107
-626.463	93.070	-0.250	0.281
-625.449	-200.000	0.000	-0.170
-624.434	13.582	0.073	0.056
-623.419	-200.000	0.004	-0.249
-622.405	-7.307	0.124	0.084
-621.390	800.000	0.062	0.199
-620.376	-200.000	-0.016	-0.358
-619.361	64.247	0.297	-0.298
-618.346	-200.000	-0.023	0.270
-617.332	97.759	0.150	0.172
-616.317	50.128	-0.243	0.229
-615.303	-15.445	-0.169	-0.108
-614.288	741.185	0.109	0.293
-613.273	-149.207	-0.312	0.025
-612.259	59.739	0.116	-0.114
-611.244	-200.000	0.080	-0.493
-610.230	800.000	0.102	-0.326
-609.215	51.332	0.323	0.306
-608.201	-127.521	0.376	-0.054
-607.186	299.375	0.048	0.089
-606.171	245.079	-0.099	-0.165
-605.157	103.705	0.203	-0.237
-604.142	-200.000	0.007	0.262
-603.128	28.074	0.176	-0.148
-602.113	-183.824	0.079	-0.001
-601.098	-40.304	-0.271	0.140
-600.084	485.533	0.118	0.267
-599.069	179.812	-0.142	0.207
-598.055	-129.342	0.115	0.016
-597.040	-200.000	-0.038	0.244
-596.025	-35.552	0.119	0.064
-595.011	800.000	0.019	0.051
-593.996	-47.500	0.331	0.160
-592.982	42.232	0.084	-0.076
-591.967	680.323	-0.147	0.380
-590.952	-200.000	0.347	-0.001
-589.938	-102.182	0.123	-0.030
-588.923	-200.000	-0.016	-0.152
-587.909	478.168	0.039	-0.087
-586.894	566.130	0.075	-0.182
-585.879	-35.439	-0.129	-0.070
-584.865	800.000	0.064	0.228
-583.850	-131.899	-0.175	-0.023
-582.836	591.208	-0.050	-0.122
-581.821	37.443	0.149	0.132
-580.806	-200.000	-0.013	0.064
-579.792	34.934	0.066	0.057
-578.777	84.543	0.182	0.199
-577.763	800.000	0.035	-0.123
-576.748	-66.436	-0.368	0.146
-575.733	62.557	0.464	0.461
-574.719	-96.092	-0.221	-0.058
-573.704	-108.179	-0.236	-0.051
-572.690	575.912	0.156	0.379
-571.675	-96.711	0.403	-0.105
-570.661	-200.000	-0.062	-0.523
-569.646	800.000	0.026	0.102
-568.631	11.420	-0.339	0.258
-567.617	85.905	-0.148	0.162
-566.602	766.126	-0.163	-0.441
-565.588	-66.707	0.083	0.033
-564.573	-200.000	-0.025	-0.171
-563.558	-113.994	-0.086	0.017
-562.544	800.000	-0.047	-0.201
-561.529	8.800	-0.294	-0.220
-560.515	144.038	0.028	-0.037
-559.500	-76.428	-0.191	0.067
-558.485	13.572	0.130	-0.101
-557.471	-200.000	0.088	0.486
-556.456	-137.324	-0.088	-0.010
-555.442	100.644	0.142	0.164
-554.427	21.473	0.250	-0.202
-553.412	29.538	-0.072	-0.061
-552.398	-143.283	-0.433	0.041
-551.383	365.163	0.078	0.155
-550.369	800.000	-0.043	0.125
-549.354	-200.000	-0.140	0.001
-548.339	16.396	0.119	0.093
-547.325	-15.506	-0.186	0.118
-546.310	-200.000	-0.003	0.068
-545.296	-11.488	-0.261	-0.171
-544.281	-168.966	-0.278	-0.010
-543.266	59.588	0.259	0.254
-542.252	362.271	-0.089	0.177
-541.237	617.941	0.059	0.147
-540.223	-76.954	0.249	-0.086
-539.208	-33.263	-0.150	0.082
-538.193	-26.732	-0.020	-0.011
-537.179	-44.058	0.220	0.110
-536.164	-146.008	0.214	-0.019
-535.150	718.429	-0.045	0.119
-534.135	800.000	0.069	0.214
-533.121	-14.559	-0.359	-0.230
-532.106	-3.451	0.143	-0.099
-531.091	-49.619	0.190	0.090
-530.077	-200.000	-0.024	0.194
-529.062	-18.818	0.236	-0.146
-528.048	-97.124	0.172	-0.045
-527.033	249.853	-0.115	-0.194
-526.018	-55.958	0.190	0.084
-525.004	380.079	0.045	-0.092
-523.989	339.252	0.179	-0.346
-522.975	532.961	-0.081	0.191
-521.960	68.738	-0.104	0.106
-520.945	173.952	0.172	0.246
-519.931	-175.164	-0.117	-0.003
-518.916	-54.676	-0.159	-0.072
-517.902	-200.000	-0.034	0.162
-516.887	800.000	0.062	-0.206
-515.872	4.983	0.219	-0.160
-514.858	16.047	0.103	-0.080
-513.843	-200.000	-0.044	0.513
-512.829	-200.000	0.043	0.433
-511.814	84.974	-0.143	-0.156
-510.799	-59.147	-0.230	0.099
-509.785	800.000	0.056	0.170
-508.770	-173.264	-0.147	-0.004
-507.756	-200.000	-0.004	-0.278
-506.741	800.000	-0.030	0.101
-505.726	268.900	0.076	-0.132
-504.712	-4.445	0.090	0.062
-503.697	-200.000	0.274	-0.000
-502.683	-62.019	-0.323	-0.134
-501.668	252.018	-0.107	0.182
-500.653	453.435	-0.023	-0.050
-499.639	-200.000	0.015	0.105
-498.624	-42.332	-0.350	-0.177
-497.610	-200.000	-0.005	-0.158
-496.595	800.000	0.080	-0.265
-495.581	-101.847	0.080	0.019
-494.566	-200.000	-0.054	-0.391
-493.551	53.854	0.215	-0.205
-492.537	58.549	-0.123	-0.119
-491.522	-200.000	0.004	-0.339
-490.508	-128.778	-0.405	0.057
-489.493	177.140	0.048	-0.069
-488.478	-121.287	-0.283	-0.047
-487.464	7.710	0.272	0.202
-486.449	288.044	-0.071	-0.127
-485.435	63.288	0.179	-0.178
-484.420	1.668	-0.116	0.083
-483.405	-200.000	0.039	0.248
-482.391	152.452	0.082	-0.111
-481.376	800.000	-0.072	-0.239
-480.362	27.811	-0.196	-0.164
-479.347	-144.021	-0.258	-0.024
-478.332	323.064	0.105	0.198
-477.318	155.205	-0.105	-0.143
-476.303	-143.420	-0.251	0.024
-475.289	-135.623	-0.313	0.037
-474.274	-62.639	0.231	-0.095
-473.259	-123.277	-0.185	-0.029
-472.245	800.000	0.041	-0.150
-471.230	-8.427	0.289	-0.192
-470.216	-127.410	-0.078	-0.011
-469.201	274.443	0.125	0.220
-468.186	-69.500	0.088	0.033
-467.172	-200.000	0.022	-0.118
-466.157	493.665	-0.080	-0.181
-465.143	237.798	0.143	-0.236
-464.128	77.750	-0.151	0.159
-463.113	-107.148	-0.413	0.090
-462.099	14.205	0.129	0.099
-461.084	378.896	0.084	-0.171
-460.070	339.143	0.136	-0.262
-459.055	-16.598	0.201	-0.126
-458.040	800.000	0.040	0.155
-457.026	436.290	0.050	0.107
-456.011	476.481	-0.065	-0.145
-454.997	220.794	0.079	0.125
-453.982	-71.314	0.115	-0.043
-452.968	-10.162	-0.043	0.028
-451.953	102.068	-0.246	-0.285
-450.938	-69.124	-0.129	0.049
-449.924	127.677	0.135	-0.169
-448.909	35.849	-0.129	0.113
-447.895	800.000	0.029	0.091
-446.880	79.649	0.202	0.215
-445.865	800.000	-0.097	-0.283
-444.851	-68.025	0.415	-0.160
-443.836	265.594	-0.145	-0.250
-442.822	102.096	0.404	0.467
-441.807	800.000	0.125	0.354
-440.792	-8.012	0.153	-0.102
-439.778	-162.507	-0.085	0.004
-438.763	-200.000	0.055	0.318
-437.749	-135.668	0.207	-0.024
-436.734	328.224	0.137	-0.260
-435.719	-120.467	-0.020	0.003
-434.705	-56.910	0.104	0.045
-433.690	745.301	-0.066	-0.176
-432.676	-200.000	-0.061	-0.296
-431.661	40.166	0.188	-0.167
-430.646	-30.187	0.109	0.061
-429.632	402.845	0.160	-0.334
-428.617	279.725	-0.145	-0.256
-427.603	-200.000	-0.026	-0.387
-426.588	-44.617	-0.289	-0.143
-425.573	165.844	-0.084	0.118
-424.559	252.456	-0.116	-0.195
-423.544	-200.000	-0.029	0.275
-422.530	76.807	-0.166	0.174
-421.515	82.590	-0.072	-0.078
-420.500	542.634	0.047	-0.111
-419.486	331.448	-0.129	-0.246
-418.471	800.000	0.007	-0.027
-417.457	-157.079	0.165	0.010
-416.442	-200.000	0.001	-0.024
-415.428	-133.511	0.238	0.030
-414.413	-200.000	-0.013	-0.271
-413.398	113.448	0.156	0.188
-412.384	-50.948	-0.113	0.052
-411.369	146.064	-0.169	-0.224
-410.355	-119.627	0.225	-0.039
-409.340	-200.000	-0.007	-0.177
-408.325	-87.995	-0.170	-0.050
-407.311	22.276	0.059	-0.047
-406.296	-62.810	-0.130	0.053
-405.282	-24.773	0.195	0.114
-404.267	800.000	-0.045	0.152
-403.252	-200.000	-0.052	-0.303
-402.238	64.943	-0.115	0.114
-401.223	-114.873	-0.112	-0.021
-400.209	85.579	0.206	-0.223
-399.194	499.421	-0.095	-0.216
-398.179	419.376	-0.217	-0.459
-397.165	-147.084	0.374	-0.032
-396.150	-51.796	-0.335	-0.154
-395.136	-25.667	-0.168	0.098
-394.121	435.649	0.032	0.069
-393.106	76.969	-0.224	-0.235
-392.092	-200.000	0.056	-0.248
-391.077	-104.216	0.054	-0.012
-390.063	164.348	-0.084	0.117
-389.048	389.369	-0.026	0.053
-388.033	-95.592	-0.151	0.040
-387.019	514.125	0.235	0.542
-386.004	-3.513	-0.032	-0.022
-384.990	52.040	0.093	-0.087
-383.975	105.681	-0.184	0.214
-382.960	165.629	0.110	0.153
-381.946	-12.397	0.412	0.266
-380.931	71.681	-0.172	0.176
-379.917	-7.301	0.227	-0.152
-378.902	749.863	-0.081	0.215
-377.888	800.000	-0.059	0.168
-376.873	58.016	-0.129	0.125
-375.858	296.275	0.084	-0.153
-374.844	-113.908	0.018	0.003
-373.829	-200.000	-0.025	0.298
-372.815	209.494	-0.090	-0.140
-371.800	-85.522	-0.371	0.114
-370.785	734.551	0.039	-0.102
-369.771	-48.568	0.039	0.019
-368.756	-122.753	0.113	-0.018
-367.742	800.000	0.026	-0.095
-366.727	-200.000	-0.003	0.129
-365.712	85.720	0.232	0.251
-364.698	113.315	0.061	-0.073
-363.683	-200.000	0.014	0.230
-362.669	-71.316	0.335	-0.124
-361.654	313.818	-0.277	0.515
-360.639	-88.791	-0.099	-0.029
-359.625	-84.341	-0.313	-0.098
-358.610	-23.438	0.196	-0.116
-357.596	91.311	-0.162	-0.180
-356.581	34.582	-0.202	-0.174
-355.566	-74.205	-0.040	-0.014
-354.552	800.000	-0.062	-0.262
-353.537	-200.000	0.058	0.357
-352.523	144.321	-0.190	-0.251
-351.508	-26.121	0.404	0.234
-350.493	-123.411	-0.133	-0.021
-349.479	186.018	-0.138	-0.202
-348.464	-78.052	-0.237	-0.080
-347.450	173.550	0.058	0.083
-346.435	-200.000	-0.010	0.205
-345.420	-200.000	0.001	-0.259
-344.406	-200.000	-0.033	0.168
-343.391	-67.636	-0.210	-0.081
-342.377	199.358	-0.112	0.170
-341.362	-96.460	-0.125	0.033
-340.348	25.964	0.237	0.195
-339.333	25.740	0.321	-0.264
-338.318	-115.461	0.317	-0.059
-337.304	-12.804	0.109	-0.070
-336.289	800.000	0.068	-0.187
-335.275	119.943	-0.287	0.351
-334.260	-30.000	0.025	-0.014
-333.245	336.567	-0.090	-0.172
-332.231	-200.000	-0.027	-0.141
-331.216	-200.000	0.020	0.159
-330.202	-200.000	0.035	-0.178
-329.187	-64.504	-0.266	-0.107
-328.172	-100.719	0.304	-0.074
-327.158	-200.000	-0.005	-0.192
-326.143	-32.448	-0.105	0.058
-325.129	572.359	0.147	-0.354
-324.114	800.000	-0.021	-0.087
-323.099	19.664	-0.293	0.233
-322.085	-44.778	-0.216	-0.106
-321.070	-68.316	0.371	0.142
-320.056	221.510	-0.101	0.159
-319.041	6.790	-0.133	-0.098
-318.026	327.781	0.046	-0.087
-317.012	192.748	-0.049	0.074
-315.997	-155.094	-0.166	-0.011
-314.983	-177.617	-0.209	-0.005
-313.968	178.241	-0.116	0.166
-312.953	402.847	-0.098	-0.203
-311.939	-140.262	0.272	-0.028
-310.924	800.000	-0.022	-0.075
-309.910	15.405	-0.244	-0.189
-308.895	-200.000	0.029	-0.158
-307.880	689.271	-0.101	-0.260
-306.866	191.410	-0.158	-0.235
-305.851	-200.000	0.034	-0.154
-304.837	-200.000	-0.016	0.105
-303.822	167.541	0.146	0.205
-302.807	-200.000	0.009	0.419
-301.793	134.479	-0.107	-0.137
-300.778	83.606	-0.088	0.094
-299.764	800.000	-0.073	0.232
-298.749	195.507	0.048	-0.072
-297.735	272.351	0.164	0.286
-296.720	-200.000	0.003	-0.109
-295.705	-84.237	0.205	0.064
-294.691	-65.001	-0.159	-0.063
-293.676	26.945	0.275	-0.227
-292.662	218.947	-0.098	0.153
-291.647	-22.511	-0.083	-0.049
-290.632	-200.000	0.046	0.208
-289.618	-175.526	-0.105	-0.003
-288.603	262.441	0.143	-0.244
-287.589	96.094	0.149	0.168
-286.574	325.996	0.071	0.133
-285.559	505.131	0.031	0.070
-284.545	-200.000	-0.050	-0.282
-283.530	-142.262	0.475	-0.046
-282.516	28.921	-0.259	0.216
-281.501	-126.254	-0.244	-0.036
-280.486	-45.396	0.396	0.193
-279.472	-176.765	0.083	0.002
-278.457	-132.207	0.359	0.046
-277.443	-108.797	-0.273	-0.057
-276.428	145.806	0.212	0.279
-275.413	-39.221	0.144	0.074
-274.399	-101.728	-0.182	-0.043
-273.384	-0.205	0.244	-0.171
-272.370	-7.977	0.111	-0.073
-271.355	-147.953	0.209	-0.017
-270.340	-64.660	-0.008	0.003
-269.326	507.596	-0.053	0.121
-268.311	800.000	-0.023	-0.072
-267.297	-23.472	0.238	0.141
-266.282	-49.085	-0.043	0.020
-265.267	110.150	0.165	-0.194
-264.253	191.060	0.184	-0.272
-263.238	-18.393	0.120	0.074
-262.224	-140.570	-0.369	-0.038
-261.209	-138.992	0.191	-0.020
-260.195	261.933	-0.286	-0.487
-259.180	70.311	0.058	0.059
-258.165	-200.000	0.009	0.286
-257.151	-200.000	-0.016	-0.389
-256.136	-200.000	-0.025	0.328
-255.122	20.359	-0.143	0.114
-254.107	800.000	0.024	0.089
-253.092	-200.000	-0.043	-0.213
-252.078	-4.309	-0.107	-0.073
-251.063	-130.074	-0.174	-0.023
-250.049	515.103	0.095	0.217
-249.034	156.766	0.143	0.195
-248.019	-200.000	-0.013	0.084
-247.005	-91.505	-0.267	0.075
-245.990	-175.941	0.218	0.006
-244.976	162.515	0.243	-0.335
-243.961	-200.000	0.044	0.255
-242.946	-114.734	0.241	-0.045
-241.932	148.653	0.231	-0.307
-240.917	-181.493	0.441	-0.008
-239.903	-22.343	0.150	0.089
-238.888	-200.000	0.010	-0.169
-237.873	15.174	0.193	-0.148
-236.859	-11.047	-0.254	0.165
-235.844	29.770	-0.293	0.245
-234.830	87.206	0.174	0.189
-233.815	168.438	0.235	0.329
-232.800	-92.520	0.194	-0.054
-231.786	239.691	0.069	-0.113
-230.771	-200.000	-0.008	-0.155
-229.757	129.040	-0.213	0.267
-228.742	-200.000	-0.054	-0.397
-227.727	52.201	-0.302	0.282
-226.713	-200.000	0.026	-0.214
-225.698	-122.910	-0.217	-0.034
-224.684	-127.086	-0.290	0.042
-223.669	800.000	-0.099	0.307
-222.655	-200.000	-0.003	0.179
-221.640	-104.526	-0.198	-0.045
-220.625	-171.211	-0.445	0.015
-219.611	-154.915	0.398	0.026
-218.596	77.378	-0.038	0.039
-217.582	-64.126	0.179	0.072
-216.567	-144.136	0.115	-0.011
-215.552	-200.000	-0.009	0.063
-214.538	-128.095	0.115	0.016
-213.523	74.963	0.211	0.218
-212.509	-200.000	0.002	-0.265
-211.494	163.186	-0.095	-0.131
-210.479	800.000	0.032	0.088
-209.465	-60.945	0.090	-0.037
-208.450	-200.000	0.038	0.364
-207.436	23.437	-0.059	0.047
-206.421	14.914	-0.209	0.161
-205.406	800.000	-0.145	-0.499
-204.392	-40.556	-0.311	-0.158
-203.377	97.543	0.197	0.222
-202.363	351.527	0.076	0.148
-201.348	45.785	0.139	0.126
-200.333	50.150	-0.094	-0.087
-199.319	4.184	-0.321	0.230
-198.304	-120.431	0.088	0.015
-197.290	-113.815	-0.117	-0.022
-196.275	-120.942	0.318	-0.052
-195.260	126.890	-0.139	0.173
-194.246	142.643	-0.177	0.230
-193.231	800.000	-0.018	-0.066
-192.217	-162.993	-0.072	-0.003
-191.202	800.000	-0.046	0.184
-190.187	-200.000	-0.037	-0.201
-189.173	626.213	0.109	0.269
-188.158	-85.813	-0.364	0.111
-187.144	-146.040	-0.173	-0.015
-186.129	-200.000	-0.028	0.171
-185.114	-125.610	0.351	-0.052
-184.100	800.000	0.072	0.238
-183.085	-58.079	0.222	-0.095
-182.071	33.996	-0.186	-0.159
-181.056	-103.651	-0.170	0.039
-180.042	8.325	0.066	-0.049
-179.027	-143.578	-0.155	0.014
-178.012	-23.052	-0.154	-0.091
-176.998	800.000	0.098	-0.419
-175.983	800.000	0.109	0.309
-174.969	-22.087	-0.124	-0.074
-173.954	-200.000	-0.071	0.329
-172.939	59.628	-0.058	-0.056
-171.925	-147.281	-0.194	-0.016
-170.910	-116.070	0.283	-0.052
-169.896	-11.454	0.176	0.114
-168.881	752.649	-0.111	-0.294
-167.866	-15.585	-0.077	0.048
-166.852	169.396	-0.123	0.172
-165.837	126.633	0.204	0.253
-164.823	-97.582	-0.275	0.070
-163.808	800.000	-0.124	0.446
-162.793	600.458	0.118	0.288
-161.779	47.641	0.060	0.055
-160.764	339.093	-0.103	-0.196
-159.750	-26.405	0.213	-0.122
-158.735	800.000	-0.104	-0.286
-157.720	217.731	-0.154	-0.241
-156.706	-4.055	-0.233	0.158
-155.691	750.973	-0.068	0.179
-154.677	35.689	-0.368	-0.317
-153.662	177.024	-0.039	0.055
-152.647	-200.000	-0.008	0.131
-151.633	-99.538	-0.174	0.043
-150.618	13.704	-0.299	0.228
-149.604	407.904	-0.151	0.312
-148.589	-101.179	0.081	-0.019
-147.574	162.548	0.143	-0.197
-146.560	-0.278	-0.115	-0.080
-145.545	-200.000	-0.020	-0.354
-144.531	-139.611	-0.366	0.038
-143.516	-200.000	0.023	0.128
-142.502	12.718	-0.207	0.156
-141.487	-161.918	-0.288	-0.014
-140.472	800.000	0.089	-0.321
-139.458	256.121	0.213	-0.358
-138.443	303.047	-0.099	-0.180
-137.429	199.215	0.079	-0.118
-136.414	800.000	0.058	-0.217
-135.399	-27.431	0.207	-0.118
-134.385	-200.000	0.011	0.402
-133.370	235.039	0.122	0.197
-132.356	-200.000	-0.009	-0.164
-131.341	120.821	-0.322	0.391
-130.326	-65.637	-0.233	-0.092
-129.312	-200.000	0.034	-0.328
-128.297	116.445	-0.090	0.108
-127.283	-200.000	0.015	-0.069
-126.268	-200.000	-0.013	0.092
-125.253	-31.345	0.226	0.124
-124.239	-113.002	-0.063	0.012
-123.224	-172.273	-0.161	-0.005
-122.210	157.614	0.066	0.089
-121.195	-24.575	0.139	-0.081
-120.180	181.446	-0.097	-0.139
-119.166	800.000	-0.026	-0.099
-118.151	-153.323	-0.094	0.006
-117.137	-113.847	-0.053	0.010
-116.122	-200.000	-0.005	0.122
-115.107	10.726	0.208	-0.155
-114.093	-111.698	0.269	-0.053
-113.078	-200.000	-0.055	0.300
-112.064	800.000	-0.082	0.264
-111.049	-128.784	0.302	-0.042
-110.034	800.000	-0.093	0.290
-109.020	381.714	-0.049	-0.099
-108.005	-16.751	0.184	-0.114
-106.991	-117.447	0.488	0.086
-105.976	-200.000	0.032	-0.347
-104.962	-9.888	0.136	-0.088
-103.947	-42.489	-0.056	-0.028
-102.932	58.082	-0.072	-0.069
-101.918	163.496	-0.126	0.173
-100.903	-76.715	0.273	-0.093
-99.889	421.777	-0.054	0.112
-98.874	443.863	0.016	0.033
-97.859	-54.343	-0.201	-0.089
-96.845	-67.810	0.282	-0.108
-95.830	7.871	-0.186	-0.136
-94.816	775.979	0.029	0.077
-93.801	800.000	-0.022	-0.074
-92.786	16.071	0.096	0.074
-91.772	239.528	-0.239	0.388
-90.757	-200.000	-0.034	0.277
-89.743	53.778	-0.124	-0.116
-88.728	30.887	-0.148	0.123
-87.713	498.575	-0.048	-0.107
-86.699	-67.020	-0.256	-0.099
-85.684	656.599	-0.120	0.301
-84.670	-49.184	0.233	-0.109
-83.655	136.306	0.023	0.029
-82.640	800.000	-0.047	-0.182
-81.626	-168.349	-0.100	0.004
-80.611	-200.000	0.015	-0.385
-79.597	-123.577	0.093	0.014
-78.582	143.777	0.169	-0.220
-77.567	-34.869	-0.339	0.181
-76.553	754.225	0.062	-0.163
-75.538	28.806	0.127	0.105
-74.524	-108.141	-0.282	0.060
-73.509	169.740	0.236	0.329
-72.494	800.000	-0.008	-0.025
-71.480	75.877	-0.039	0.041
-70.465	197.187	-0.074	-0.110
-69.451	157.872	0.059	0.080
-68.436	-98.249	0.273	0.068
-67.422	-81.283	-0.270	0.087
-66.407	25.450	-0.035	-0.029
-65.392	-200.000	-0.048	0.316
-64.378	-111.494	-0.191	-0.038
-63.363	-200.000	-0.063	-0.335
-62.349	800.000	-0.049	0.151
-61.334	-35.419	-1.464	-0.776
-60.319	14.770	0.934	0.712
-59.305	310.288	-0.729	-1.331
-58.290	106.254	1.086	1.255
-57.276	-200.000	0.275	1.309
-56.261	-200.000	137.559	658.441
-55.246	335.089	1670.906	3156.629
-54.232	134.709	2796.497	3538.320
-53.217	84.662	2168.465	2314.262
-52.203	30.997	1601.725	1338.325
-51.188	23.284	1352.704	1083.236
-50.173	21.296	1317.635	1043.256
-49.159	48.345	1392.401	1270.342
-48.144	44.328	1400.285	1252.775
-47.130	23.485	1348.187	1080.671
-46.115	20.430	1329.298	1047.100
-45.100	20.173	1324.438	1041.688
-44.086	20.119	1322.028	1039.426
-43.071	20.231	1318.955	1037.643
-42.057	20.150	1317.794	1036.204
-41.042	20.183	1315.622	1034.649
-40.027	20.204	1314.222	1033.634
-39.013	20.177	1312.389	1031.990
-37.998	20.356	1310.182	1031.274
-36.984	20.357	1309.169	1030.445
-35.969	20.291	1307.347	1028.576
-34.954	20.261	1305.937	1027.253
-33.940	20.375	1304.259	1026.562
-32.925	20.370	1303.136	1025.610
-31.911	20.455	1301.615	1024.877
-30.896	20.451	1300.032	1023.565
-29.881	20.439	1298.991	1022.630
-28.867	20.417	1297.264	1021.105
-27.852	20.525	1295.781	1020.530
-26.838	20.515	1294.004	1019.033
-25.823	20.379	1293.435	1017.747
-24.809	20.363	1291.722	1016.263
-23.794	20.300	1290.719	1015.065
-22.779	20.404	1289.457	1014.641
-21.765	20.398	1288.330	1013.679
-20.750	20.393	1286.822	1012.421
-19.736	20.382	1285.434	1011.224
-18.721	20.146	1285.136	1009.579
-17.706	20.213	1283.915	1008.969
-16.692	20.307	1282.280	1008.186
-15.677	20.334	1280.769	1007.118
-14.663	20.184	1280.199	1005.757
-13.648	20.260	1278.833	1005.088
-12.633	20.177	1278.388	1004.218
-11.619	20.303	1277.124	1003.913
-10.604	20.278	1276.116	1002.933
-9.590	20.198	1275.824	1002.205
-8.575	20.203	1274.305	1001.000
-7.560	20.206	1273.311	1000.197
-6.546	20.184	1272.773	999.609
-5.531	20.222	1272.028	999.203
-4.517	20.204	1270.803	998.096
-3.502	20.258	1270.143	997.848
-2.487	20.348	1269.205	997.588
-1.473	20.212	1264.473	993.053
-0.458	18.439	1249.571	971.271
0.556	14.041	1234.044	933.744
1.571	10.435	1241.444	918.848
2.586	9.725	1257.419	926.512
3.600	10.008	1244.722	918.683
4.615	7.517	1172.872	852.221
5.629	2.929	1104.277	779.075
6.644	0.773	1089.458	757.757
7.659	0.628	1087.003	755.258
8.673	0.586	1086.410	754.569
9.688	0.573	1085.361	753.710
10.702	0.919	1082.164	753.146
11.717	3.677	1085.160	768.908
12.731	9.872	1093.254	805.571
13.746	15.367	1100.452	838.334
14.761	17.221	1102.820	849.342
15.775	16.616	1101.087	844.912
16.790	15.589	1099.470	838.472
17.804	14.837	1097.987	833.519
18.819	14.598	1096.094	830.817
19.834	14.313	1095.934	829.201
20.848	14.139	1094.992	827.550
21.863	14.002	1093.812	825.905
22.877	13.732	1093.492	824.250
23.892	13.655	1092.468	823.020
24.907	13.701	1091.421	822.390
25.921	13.764	1091.062	822.359
26.936	13.776	1090.226	821.714
27.950	13.891	1089.179	821.420
28.965	13.905	1087.559	820.197
29.980	13.956	1085.951	819.160
30.994	13.907	1085.120	818.221
32.009	13.920	1084.462	817.717
33.023	14.031	1082.776	816.920
34.038	13.941	1082.602	816.274
35.053	13.887	1080.971	814.704
36.067	13.782	1080.478	813.749
37.082	13.819	1079.838	813.375
38.096	13.985	1078.455	813.075
39.111	13.882	1078.189	812.298
40.126	13.813	1077.028	811.011
41.140	13.786	1075.190	809.427
42.155	13.589	1074.710	808.033
43.169	13.675	1073.664	807.591
44.184	13.739	1072.010	806.589
45.199	13.628	1071.007	805.223
46.213	13.830	1070.055	805.417
47.228	13.835	1069.216	804.738
48.242	13.828	1067.724	803.512
49.257	13.896	1066.954	803.188
50.271	13.785	1066.313	802.097
51.286	13.838	1065.026	801.315
52.301	13.745	1064.024	800.042
53.315	13.695	1063.216	799.123
54.330	13.857	1061.749	798.729
55.344	13.785	1061.121	797.842
56.359	13.837	1060.173	797.308
57.374	13.718	1059.383	796.071
58.388	13.733	1059.025	795.803
59.403	13.755	1057.990	795.060
60.417	13.680	1057.063	793.936
61.432	13.701	1056.063	793.212
62.447	13.711	1055.332	792.643
63.461	13.662	1054.734	791.887
64.476	13.591	1053.672	790.684
65.490	13.652	1052.864	790.298
66.505	13.633	1052.372	789.767
67.520	13.578	1051.600	788.854
68.534	13.740	1050.593	788.803
69.549	13.712	1049.494	787.776
70.563	13.615	1048.725	786.667
71.578	13.549	1048.157	785.858
72.593	13.673	1046.849	785.397
73.607	13.659	1046.657	785.116
74.622	13.578	1046.197	784.318
75.636	13.578	1044.903	783.277
76.651	13.632	1044.470	783.137
77.666	13.563	1043.911	782.323
78.680	13.576	1042.891	781.553
79.695	13.669	1042.501	781.630
80.709	13.726	1041.681	781.213
81.724	13.662	1041.065	780.380
82.739	13.713	1040.364	780.029
83.753	13.817	1039.571	779.850
84.768	13.851	1038.449	779.101
85.782	13.855	1037.679	778.472
86.797	13.805	1036.861	777.557
87.812	13.818	1035.655	776.645
88.826	13.902	1034.790	776.320
89.841	13.758	1034.391	775.278
90.855	13.870	1032.554	774.355
91.870	13.791	1032.584	773.939
92.884	13.834	1031.396	773.184
93.899	13.919	1030.492	772.833
94.914	13.965	1029.837	772.487
95.928	13.972	1028.840	771.702
96.943	13.926	1027.830	770.661
97.957	13.976	1026.990	770.199
98.972	13.928	1026.211	769.321
99.987	13.826	1025.135	767.975
101.001	13.953	1024.149	767.757
102.016	13.905	1023.278	766.812
103.030	13.915	1022.032	765.856
104.045	13.937	1021.866	765.767
105.060	13.901	1020.979	764.868
106.074	13.767	1020.543	763.860
107.089	13.797	1018.954	762.737
108.103	13.716	1018.243	761.766
109.118	13.805	1016.611	760.889
110.133	13.889	1016.331	760.993
111.147	13.735	1015.761	759.798
112.162	13.723	1014.617	758.819
113.176	13.864	1013.683	758.695
114.191	13.856	1012.747	757.891
115.206	13.895	1012.192	757.586
116.220	13.912	1011.577	757.138
117.235	13.839	1010.027	755.580
118.249	13.826	1009.067	754.733
119.264	13.837	1008.659	754.414
120.279	13.829	1008.015	753.830
121.293	13.738	1007.136	752.691
122.308	13.837	1006.362	752.493
123.322	13.881	1004.772	751.439
124.337	13.747	1004.025	750.209
125.352	13.774	1002.866	749.397
126.366	13.822	1001.685	748.665
127.381	13.905	1000.626	748.181
128.395	13.818	999.916	747.192
129.410	13.772	999.075	746.290
130.424	13.860	998.137	745.918
131.439	13.888	997.599	745.577
132.454	13.913	996.675	744.934
133.468	13.958	996.034	744.591
134.483	13.877	995.017	743.403
135.497	13.859	994.326	742.740
136.512	13.813	993.426	741.793
137.527	13.948	992.374	741.548
138.541	13.810	991.949	740.549
139.556	13.905	990.856	740.089
140.570	13.971	990.185	739.818
141.585	13.946	989.240	738.933
142.600	14.042	988.290	738.585
143.614	14.009	987.400	737.707
144.629	13.971	987.021	737.190
145.643	14.134	985.734	736.889
146.658	13.992	984.830	735.515
147.673	14.075	983.585	734.891
148.687	14.145	982.693	734.469
149.702	14.072	981.583	733.249
150.716	13.958	981.773	732.826
151.731	13.983	980.686	732.060
152.746	13.947	980.197	731.472
153.760	14.121	979.280	731.489
154.775	14.128	978.638	730.971
155.789	14.214	977.649	730.546
156.804	14.206	976.897	729.887
157.819	14.158	976.329	729.186
158.833	14.129	975.847	728.635
159.848	14.285	974.643	728.352
160.862	14.202	973.833	727.322
161.877	14.082	972.988	726.102
162.892	14.117	972.122	725.543
163.906	14.056	971.587	724.813
164.921	14.147	970.307	724.192
165.935	14.041	969.752	723.254
166.950	14.170	968.428	722.763
167.964	14.381	967.380	722.831
168.979	14.101	966.558	720.939
169.994	14.151	966.244	720.855
171.008	14.237	965.323	720.478
172.023	14.298	964.431	720.012
173.037	14.364	963.580	719.601
174.052	14.136	963.152	718.233
175.067	14.134	962.486	717.664
176.081	14.249	962.029	717.754
177.096	14.334	961.131	717.389
178.110	14.316	960.328	716.647
179.125	14.342	960.134	716.550
180.140	14.308	959.533	715.892
181.154	14.339	958.900	715.490
182.169	14.383	958.310	715.175
183.183	14.410	957.975	714.977
184.198	14.632	956.708	714.919
185.213	14.518	956.298	714.062
186.227	14.625	955.164	713.610
187.242	14.492	954.886	712.771
188.256	14.571	954.232	712.555
189.271	14.456	953.348	711.341
190.286	14.357	952.636	710.326
191.300	14.286	952.405	709.791
192.315	14.376	951.050	709.097
193.329	14.357	951.018	708.931
194.344	14.383	950.168	708.345
195.359	14.463	949.198	707.898
196.373	14.506	949.157	707.990
197.388	14.463	948.402	707.181
198.402	14.665	947.737	707.480
199.417	14.676	947.001	706.912
200.432	14.599	946.384	706.066
201.446	14.655	945.993	705.948
202.461	14.634	945.664	705.549
203.475	14.724	944.552	705.039
204.490	14.651	943.813	704.114
205.504	14.676	942.960	703.522
206.519	14.669	942.377	702.998
207.534	14.634	941.868	702.406
208.548	14.878	940.447	702.311
209.563	14.585	940.516	701.068
210.577	14.784	939.516	701.096
211.592	14.824	938.795	700.666
212.607	14.878	937.671	699.989
213.621	14.723	937.431	699.099
214.636	14.848	936.693	699.008
215.650	15.059	935.620	699.029
216.665	15.018	934.939	698.286
217.680	15.015	934.363	697.783
218.694	14.955	933.886	697.116
219.709	14.899	933.286	696.374
220.723	14.835	932.521	695.473
221.738	14.964	931.646	695.293
222.753	15.010	931.091	695.012
223.767	14.928	930.737	694.344
224.782	14.991	930.022	694.013
225.796	14.955	929.524	693.428
226.811	15.098	928.804	693.421
227.826	14.991	928.110	692.400
228.840	15.017	927.411	691.925
229.855	15.055	926.584	691.404
230.869	15.196	925.190	690.885
231.884	15.040	924.949	689.998
232.899	15.098	924.177	689.603
233.913	14.924	923.667	688.443
234.928	14.994	923.126	688.267
235.942	15.019	922.658	687.959
236.957	15.000	921.964	687.302
237.972	14.939	921.855	686.911
238.986	15.218	920.234	686.785
240.001	15.202	919.572	686.165
241.015	15.159	919.004	685.507
242.030	15.086	918.747	684.953
243.045	15.140	917.865	684.458
244.059	15.188	917.220	684.112
245.074	15.106	916.285	683.018
246.088	15.239	915.762	683.111
247.103	15.087	915.517	682.247
248.117	15.275	914.917	682.506
249.132	15.287	914.599	682.256
250.147	15.431	913.461	681.935
251.161	15.410	912.923	681.384
252.176	15.335	912.117	680.420
253.190	15.422	911.526	680.272
254.205	15.542	910.732	680.106
255.220	15.539	910.059	679.527
256.234	15.507	909.575	678.979
257.249	15.398	908.988	678.040
258.263	15.525	907.677	677.514
259.278	15.608	907.151	677.396
260.293	15.631	906.712	677.103
261.307	15.463	906.863	676.477
262.322	15.656	905.641	676.283
263.336	15.795	904.562	675.975
264.351	15.588	904.123	674.755
265.366	15.773	903.253	674.789
266.380	15.753	902.883	674.372
267.395	15.696	902.132	673.523
268.409	15.691	901.335	672.851
269.424	15.869	900.258	672.698
270.439	15.833	899.463	671.902
271.453	15.802	899.104	671.448
272.468	15.793	898.687	671.043
273.482	15.801	897.982	670.489
274.497	15.784	897.478	669.986
275.512	15.791	896.442	669.181
276.526	15.878	896.117	669.224
277.541	15.906	895.483	668.801
278.555	15.827	895.091	668.136
279.570	15.899	894.343	667.805
280.585	15.882	893.606	667.127
281.599	16.027	892.708	666.972
282.614	15.958	892.301	666.338
283.628	16.012	891.523	665.910
284.643	15.904	890.969	665.011
285.657	16.030	890.234	664.902
286.672	16.142	889.780	664.946
287.687	16.051	888.730	663.742
288.701	16.023	888.398	663.327
289.716	16.031	887.912	662.938
290.730	16.129	887.384	662.870
291.745	16.140	886.692	662.334
292.760	16.009	886.258	661.437
293.774	16.191	885.270	661.356
294.789	16.261	884.387	660.911
295.803	16.167	883.792	660.043
296.818	16.176	883.189	659.568
297.833	16.329	882.227	659.390
298.847	16.160	882.221	658.666
299.862	16.366	881.309	658.732
300.876	16.304	880.661	657.946
301.891	16.280	879.756	657.118
302.906	16.396	879.560	657.363
303.920	16.362	878.993	656.749
304.935	16.328	878.315	656.055
305.949	16.384	878.171	656.104
306.964	16.383	877.201	655.319
307.979	16.361	876.649	654.763
308.993	16.430	876.086	654.551
310.008	16.419	875.621	654.105
311.022	16.402	874.989	653.509
312.037	16.393	874.278	652.884
313.052	16.345	873.756	652.254
314.066	16.425	873.361	652.207
315.081	16.481	872.682	651.862
316.095	16.440	871.955	651.100
317.110	16.327	871.533	650.294
318.125	16.382	871.001	650.051
319.139	16.509	870.567	650.155
320.154	16.471	870.154	649.647
321.168	16.426	869.547	648.963
322.183	16.460	868.756	648.446
323.197	16.556	868.378	648.471
324.212	16.570	867.684	647.951
325.227	16.558	867.135	647.436
326.241	16.546	866.302	646.713
327.256	16.494	865.897	646.153
328.270	16.456	865.560	645.702
329.285	16.659	864.511	645.637
330.300	16.529	864.069	644.754
331.314	16.603	863.593	644.624
332.329	16.523	863.301	644.041
333.343	16.625	862.764	643.972
334.358	16.648	862.382	643.718
335.373	16.481	862.119	642.831
336.387	16.757	861.305	643.214
337.402	16.635	861.323	642.707
338.416	16.646	861.087	642.516
339.431	16.830	860.242	642.525
340.446	16.855	860.006	642.390
341.460	16.812	859.594	641.861
342.475	16.940	858.992	641.839
343.489	16.919	858.521	641.350
344.504	16.934	858.305	641.190
345.519	16.917	857.837	640.720
346.533	16.925	856.973	640.046
347.548	16.943	856.309	639.564
348.562	16.960	855.897	639.262
349.577	17.015	855.009	638.749
350.592	16.914	854.539	637.961
351.606	16.823	854.101	637.235
352.621	16.759	853.945	636.823
353.635	16.817	853.335	636.529
354.650	17.033	852.112	636.371
355.665	17.004	851.571	635.802
356.679	17.196	850.623	635.757
357.694	17.237	849.798	635.238
358.708	17.070	849.763	634.532
359.723	17.146	848.954	634.155
360.738	17.070	848.735	633.650
361.752	17.137	848.111	633.378
362.767	17.212	847.420	633.085
363.781	17.021	846.996	632.003
364.796	17.162	846.326	631.972
365.810	17.316	846.053	632.284
366.825	17.365	845.308	631.852
367.840	17.350	845.102	631.587
368.854	17.338	844.591	631.106
369.869	17.338	843.947	630.567
370.883	17.369	843.736	630.469
371.898	17.420	843.255	630.243
372.913	17.446	842.616	629.806
373.927	17.474	842.410	629.699
374.942	17.487	841.939	629.339
375.956	17.546	841.204	628.955
376.971	17.448	840.895	628.306
377.986	17.410	840.738	627.990
379.000	17.444	839.970	627.489
380.015	17.686	839.038	627.626
381.029	17.646	838.711	627.180
382.044	17.676	838.092	626.771
383.059	17.676	837.134	625.998
384.073	17.660	836.893	625.704
385.088	17.529	836.644	624.983
386.102	17.483	836.241	624.459
387.117	17.586	835.599	624.302
388.132	17.681	834.528	623.793
389.146	17.628	833.912	623.083
390.161	17.671	833.738	623.055
391.175	17.667	833.292	622.652
392.190	17.723	832.600	622.284
393.205	17.771	832.185	622.096
394.219	17.690	832.034	621.630
395.234	17.658	831.442	621.017
396.248	17.700	830.980	620.769
397.263	17.761	830.631	620.678
398.278	17.593	830.147	619.648
399.292	17.654	829.689	619.475
400.307	17.657	829.361	619.185
401.321	17.861	828.617	619.317
402.336	17.752	828.143	618.510
403.350	17.778	828.166	618.566
404.365	17.699	827.672	617.857
405.380	17.870	827.153	618.034
406.394	18.085	826.100	617.970
407.409	17.947	825.986	617.334
408.423	17.823	826.024	616.858
409.438	17.912	825.177	616.491
410.453	18.058	824.777	616.665
411.467	17.979	824.087	615.810
412.482	17.995	824.096	615.821
413.496	18.049	823.832	615.762
414.511	18.042	823.063	615.107
415.526	18.095	822.954	615.164
416.540	18.079	822.319	614.577
417.555	18.171	821.420	614.180
418.569	18.124	821.464	613.992
419.584	18.056	821.014	613.355
420.599	18.227	820.321	613.397
421.613	116.033	1301.890	1493.363
422.628	100.689	1372.023	1493.437
