DTS Sentinel unit serial number:	SN413079Multiplexer serial number:	ORYXHardware model number:	OX4-SRSoftware version number:	ORYX F/W v4.00 Oryx Data Collector v3.7.2.0data status	okinstallation	princeton_trtdifferential loss correction	single-endedforward channel	channel 1reverse channel	N/Adate	2019/09/14time	09:30:35forward acquisition time	60.00reverse acquisition time	0.00gamma	496.2192k internal	0.2321k external	0.2321temperature offset calibration	1.0073default loss term (dB/km)	0.3790temperature slope calibration	1.0000multiplexer offset coefficient	1.0000multiplexer slope coefficient	1.0000fibre end	0.00T internal ref (°C)	31.45T ext. ref 1 (°C)	3.86T ext. ref 2 (°C)	29.25length (m)	temperature (°C)	Stokes	anti-Stokes-747.200	-117.601	-0.110	0.020
-746.185	-6.115	-0.223	0.154
-745.171	-51.573	0.156	0.074
-744.156	19.652	-0.270	0.220
-743.142	-78.063	-0.256	-0.089
-742.127	52.254	0.171	0.165
-741.112	-32.317	-0.243	-0.137
-740.098	652.164	-0.081	-0.210
-739.083	50.908	0.043	0.042
-738.069	105.678	-0.169	0.202
-737.054	395.193	0.021	0.044
-736.039	-200.000	-0.049	0.294
-735.025	84.325	-0.149	-0.165
-734.010	-200.000	0.001	0.081
-732.996	57.050	-0.276	-0.272
-731.981	-127.759	0.221	-0.032
-730.966	791.914	0.069	0.192
-729.952	122.218	0.211	-0.266
-728.937	363.306	-0.158	-0.321
-727.923	-200.000	-0.050	-0.463
-726.908	59.806	-0.400	0.399
-725.894	80.187	-0.111	-0.120
-724.879	-200.000	-0.021	0.113
-723.864	800.000	-0.083	-0.305
-722.850	-53.926	-0.234	0.108
-721.835	455.082	-0.057	-0.128
-720.821	140.607	-0.210	0.280
-719.806	536.359	0.094	-0.226
-718.791	-200.000	-0.035	0.447
-717.777	-200.000	-0.033	-0.181
-716.762	249.566	-0.078	-0.134
-715.748	-200.000	0.096	0.561
-714.733	-84.477	0.295	0.094
-713.718	169.626	-0.196	0.282
-712.704	-117.971	-0.369	0.067
-711.689	791.548	-0.042	0.118
-710.675	-155.908	0.183	-0.012
-709.660	-100.497	0.205	-0.051
-708.645	-91.715	-0.152	-0.043
-707.631	623.048	0.027	0.069
-706.616	130.127	-0.134	-0.173
-705.602	306.666	-0.147	0.276
-704.587	40.868	0.112	0.102
-703.572	-38.894	0.147	-0.078
-702.558	43.066	-0.201	0.185
-701.543	800.000	0.010	-0.035
-700.529	-200.000	0.022	-0.323
-699.514	-197.160	0.287	-0.002
-698.499	-200.000	-0.017	-0.202
-697.485	-64.685	0.156	0.064
-696.470	112.947	0.138	-0.169
-695.456	-107.450	-0.306	-0.068
-694.441	66.274	0.190	-0.195
-693.426	302.308	0.151	-0.281
-692.412	-44.897	0.344	-0.173
-691.397	-200.000	-0.001	-0.147
-690.383	-105.360	-0.061	0.014
-689.368	-200.000	0.056	0.278
-688.354	19.561	0.243	-0.197
-687.339	-29.702	0.082	0.047
-686.324	238.186	-0.134	0.225
-685.310	-200.000	0.002	-0.134
-684.295	32.258	-0.045	-0.039
-683.281	800.000	-0.033	-0.107
-682.266	-19.341	-0.269	0.168
-681.251	3.104	-0.162	-0.119
-680.237	800.000	0.076	0.303
-679.222	-73.954	-0.272	0.099
-678.208	-178.393	-0.486	-0.011
-677.193	-26.113	-0.069	0.041
-676.178	-40.602	0.038	0.020
-675.164	-200.000	-0.007	0.165
-674.149	-19.960	-0.471	-0.293
-673.135	28.657	0.154	-0.132
-672.120	170.998	0.102	-0.147
-671.105	800.000	-0.095	-0.273
-670.091	-127.032	-0.289	0.043
-669.076	-200.000	0.030	0.247
-668.062	4.429	0.154	-0.114
-667.047	169.179	0.053	-0.077
-666.032	31.496	-0.214	0.185
-665.018	35.436	-0.157	0.139
-664.003	-11.284	-0.102	0.068
-662.989	-200.000	-0.021	-0.304
-661.974	-124.872	0.147	-0.023
-660.959	108.982	-0.092	0.111
-659.945	-140.080	0.227	0.024
-658.930	-43.775	0.421	0.214
-657.916	-29.782	0.343	-0.197
-656.901	-54.710	-0.287	-0.131
-655.886	-159.130	0.206	0.012
-654.872	-160.557	0.239	-0.013
-653.857	45.313	0.311	0.289
-652.843	111.950	-0.046	-0.056
-651.828	800.000	-0.051	-0.164
-650.814	-152.456	-0.284	0.021
-649.799	40.160	0.131	-0.119
-648.784	-138.156	-0.403	0.045
-647.770	-60.052	0.193	-0.083
-646.755	-26.747	-0.200	-0.118
-645.741	171.549	0.056	0.081
-644.726	264.399	0.041	-0.071
-643.711	800.000	0.074	0.254
-642.697	-69.645	-0.309	-0.119
-641.682	-200.000	0.028	-0.218
-640.668	-200.000	-0.015	0.136
-639.653	39.367	0.133	-0.120
-638.638	-67.318	0.150	-0.059
-637.624	-43.737	0.339	0.172
-636.609	-95.026	0.441	-0.120
-635.595	-5.622	-0.105	-0.072
-634.580	-68.534	-0.195	-0.076
-633.565	156.718	0.070	0.097
-632.551	-106.675	0.284	0.063
-631.536	65.530	-0.193	0.197
-630.522	-71.695	0.103	0.039
-629.507	-12.922	-0.188	-0.123
-628.492	76.350	-0.076	0.081
-627.478	50.367	-0.111	-0.106
-626.463	452.544	-0.090	0.199
-625.449	638.436	0.065	-0.166
-624.434	13.510	0.183	0.143
-623.419	-18.540	0.379	-0.238
-622.405	800.000	-0.016	-0.070
-621.390	800.000	0.072	-0.221
-620.376	-150.394	0.072	-0.006
-619.361	88.611	-0.053	0.060
-618.346	-96.190	0.261	-0.070
-617.332	-145.377	-0.314	-0.028
-616.317	800.000	-0.071	0.271
-615.303	-200.000	0.036	-0.351
-614.288	20.026	-0.301	0.244
-613.273	-59.689	-0.239	-0.103
-612.259	-52.358	-0.173	-0.080
-611.244	78.216	-0.104	-0.112
-610.230	-42.606	-0.156	0.080
-609.215	-144.714	-0.085	0.008
-608.201	26.099	0.184	0.155
-607.186	120.367	-0.025	-0.032
-606.171	-108.917	-0.183	-0.039
-605.157	-100.316	0.016	0.004
-604.142	-200.000	-0.027	-0.362
-603.128	-200.000	-0.035	-0.334
-602.113	-80.510	0.090	-0.030
-601.098	-0.889	-0.201	0.143
-600.084	-177.269	0.211	-0.005
-599.069	-42.523	-0.130	-0.067
-598.055	-180.240	-0.038	-0.001
-597.040	29.589	0.279	-0.239
-596.025	800.000	0.043	-0.190
-595.011	-85.151	0.313	-0.098
-593.996	-106.296	-0.237	0.053
-592.982	159.976	-0.157	0.220
-591.967	49.649	0.163	0.154
-590.952	458.694	0.115	0.256
-589.938	164.942	0.186	0.263
-588.923	-200.000	-0.008	0.125
-587.909	192.063	-0.160	0.242
-586.894	-200.000	-0.029	-0.141
-585.879	800.000	0.045	0.149
-584.865	783.006	0.026	-0.073
-583.850	94.352	0.057	-0.065
-582.836	-200.000	0.055	-0.326
-581.821	-136.385	-0.279	0.033
-580.806	800.000	0.117	0.479
-579.792	127.835	0.157	-0.201
-578.777	-34.629	0.244	0.134
-577.763	141.248	0.227	0.301
-576.748	205.320	-0.144	0.225
-575.733	2.128	0.103	0.075
-574.719	218.250	-0.105	-0.169
-573.704	99.420	0.275	-0.320
-572.690	800.000	0.040	0.137
-571.675	-92.041	-0.264	0.075
-570.661	217.897	-0.106	-0.170
-569.646	25.551	0.201	0.168
-568.631	-27.716	0.082	-0.048
-567.617	-103.967	-0.283	0.066
-566.602	726.624	0.138	0.370
-565.588	65.045	-0.270	0.274
-564.573	-29.037	-0.147	0.085
-563.558	-200.000	0.059	0.293
-562.544	348.936	-0.071	-0.140
-561.529	201.221	-0.149	-0.230
-560.515	800.000	0.089	0.279
-559.500	75.272	-0.098	-0.104
-558.485	-102.883	0.175	0.042
-557.471	64.049	-0.072	-0.073
-556.456	-54.275	-0.048	-0.022
-555.442	-80.663	-0.243	-0.081
-554.427	-175.790	-0.078	0.002
-553.412	59.916	-0.137	0.136
-552.398	-200.000	0.009	0.110
-551.383	146.378	0.055	0.074
-550.369	10.629	-0.250	0.191
-549.354	-143.498	-0.269	-0.026
-548.339	-200.000	0.016	-0.091
-547.325	-72.015	0.506	-0.189
-546.310	-97.784	-0.283	-0.073
-545.296	-200.000	-0.003	-0.087
-544.281	-43.212	0.206	0.105
-543.266	115.664	-0.130	-0.160
-542.252	-111.533	-0.274	-0.056
-541.237	17.002	0.226	-0.180
-540.223	-200.000	0.006	0.132
-539.208	800.000	-0.092	-0.308
-538.193	409.989	0.216	-0.459
-537.179	-173.324	-0.251	0.008
-536.164	410.106	0.176	0.374
-535.150	-113.601	0.359	0.070
-534.135	-200.000	-0.059	0.524
-533.121	96.035	0.244	0.280
-532.106	800.000	-0.094	0.354
-531.091	283.494	-0.067	0.121
-530.077	-200.000	-0.024	0.227
-529.062	155.352	0.136	-0.187
-528.048	-164.439	-0.299	0.014
-527.033	-200.000	0.012	0.058
-526.018	476.991	0.026	0.058
-525.004	-78.559	0.241	0.083
-523.989	160.037	-0.164	-0.229
-522.975	-18.412	-0.115	-0.072
-521.960	156.809	0.111	0.154
-520.945	-136.663	-0.301	0.035
-519.931	60.966	-0.040	0.039
-518.916	-102.628	-0.263	0.063
-517.902	110.734	0.018	-0.021
-516.887	716.016	0.013	0.036
-515.872	-200.000	-0.445	-0.001
-514.858	-34.012	0.357	0.197
-513.843	205.610	0.181	-0.281
-512.829	38.254	0.215	-0.192
-511.814	251.668	0.070	-0.120
-510.799	300.458	0.105	-0.194
-509.785	-23.648	-0.359	0.216
-508.770	201.786	-0.079	-0.121
-507.756	-200.000	0.015	-0.107
-506.741	94.244	-0.078	-0.088
-505.726	49.372	0.378	0.356
-504.712	-200.000	0.034	0.157
-503.697	-73.760	-0.346	-0.126
-502.683	63.319	-0.207	-0.208
-501.668	253.866	-0.097	-0.166
-500.653	-7.800	0.096	0.065
-499.639	48.419	-0.332	-0.311
-498.624	157.417	0.162	-0.224
-497.610	40.675	0.130	-0.117
-496.595	-200.000	-0.009	0.267
-495.581	40.343	0.228	0.206
-494.566	84.234	0.198	0.216
-493.551	27.342	-0.078	-0.066
-492.537	-200.000	0.000	-0.308
-491.522	-74.430	0.042	0.015
-490.508	-75.886	0.071	-0.025
-489.493	-65.553	0.216	0.087
-488.478	128.114	-0.062	0.079
-487.464	-200.000	0.020	0.279
-486.449	-112.237	-0.225	0.045
-485.435	-35.477	-0.158	0.086
-484.420	-104.257	-0.299	-0.069
-483.405	215.258	-0.133	-0.211
-482.391	-200.000	0.011	0.213
-481.376	4.609	-0.047	0.034
-480.362	-7.397	-0.191	0.129
-479.347	227.622	-0.055	0.090
-478.332	-200.000	-0.074	-0.336
-477.318	33.167	-0.280	-0.243
-476.303	-69.892	0.390	0.149
-475.289	-200.000	-0.019	0.170
-474.274	29.659	0.208	0.177
-473.259	53.631	0.258	-0.247
-472.245	-120.000	-0.237	0.041
-471.230	652.570	-0.078	0.200
-470.216	155.127	0.049	-0.068
-469.201	-12.544	-0.320	-0.209
-468.186	724.205	-0.054	-0.144
-467.172	-26.520	-0.021	-0.012
-466.157	-27.989	0.279	-0.162
-465.143	-200.000	-0.045	-0.333
-464.128	242.298	-0.120	0.201
-463.113	-200.000	0.000	-0.515
-462.099	71.353	0.227	0.236
-461.084	73.894	0.185	-0.194
-460.070	534.187	-0.010	-0.024
-459.055	154.343	0.108	-0.148
-458.040	357.936	-0.164	-0.327
-457.026	-9.358	-0.110	0.073
-456.011	-134.878	0.576	-0.070
-454.997	-200.000	-0.039	-0.223
-453.982	6.968	-0.243	-0.181
-452.968	-112.889	-0.220	-0.044
-451.953	-36.098	-0.282	0.152
-450.938	-127.895	0.073	-0.011
-449.924	-15.527	-0.173	-0.111
-448.909	-25.418	-0.297	0.175
-447.895	-47.231	-0.179	0.087
-446.880	156.336	-0.084	0.115
-445.865	5.450	0.303	-0.223
-444.851	-200.000	0.006	-0.125
-443.836	276.162	0.066	0.117
-442.822	-200.000	0.006	-0.139
-441.807	214.815	-0.051	-0.081
-440.792	-200.000	-0.213	-0.000
-439.778	-165.329	-0.336	-0.015
-438.763	119.182	-0.119	0.148
-437.749	24.566	0.150	0.124
-436.734	-144.143	-0.159	0.015
-435.719	-129.651	-0.137	-0.019
-434.705	-27.345	-0.068	-0.039
-433.690	-173.997	-0.149	-0.004
-432.676	-181.055	0.245	-0.005
-431.661	205.336	-0.142	0.220
-430.646	600.114	0.125	0.311
-429.632	73.184	0.156	0.163
-428.617	252.489	0.095	-0.161
-427.603	46.765	-0.060	0.056
-426.588	-200.000	-0.017	0.080
-425.573	-200.000	0.005	0.054
-424.559	302.484	0.119	-0.221
-423.544	155.667	-0.286	-0.393
-422.530	45.774	0.128	0.118
-421.515	121.826	0.067	-0.083
-420.500	-12.259	-0.162	-0.106
-419.486	25.061	-0.137	0.113
-418.471	-11.764	-0.227	0.149
-417.457	5.366	-0.288	-0.212
-416.442	12.765	0.141	-0.109
-415.428	800.000	-0.015	-0.055
-414.413	-2.240	0.102	0.072
-413.398	-102.528	0.433	-0.103
-412.384	-60.311	0.234	0.099
-411.369	-200.000	0.004	0.021
-410.355	-200.000	-0.076	-0.350
-409.340	-41.648	-0.238	0.122
-408.325	-200.000	-0.046	-0.262
-407.311	-200.000	-0.024	0.296
-406.296	640.552	0.083	0.211
-405.282	-200.000	-0.021	-0.103
-404.267	-82.954	-0.297	-0.096
-403.252	-200.000	0.033	-0.154
-402.238	107.186	-0.056	0.066
-401.223	-25.288	0.151	0.089
-400.209	-120.509	0.065	0.011
-399.194	726.882	0.060	-0.160
-398.179	186.581	-0.171	-0.253
-397.165	-200.000	0.019	-0.255
-396.150	-200.000	0.013	-0.126
-395.136	7.044	-0.255	-0.190
-394.121	-100.638	-0.132	-0.033
-393.106	-200.000	0.017	-0.285
-392.092	-7.393	0.309	0.209
-391.077	204.128	-0.121	0.186
-390.063	-126.456	-0.190	-0.028
-389.048	-131.235	0.519	-0.069
-388.033	44.618	-0.228	0.209
-387.019	-61.388	0.184	-0.077
-386.004	37.653	0.256	0.226
-384.990	800.000	-0.121	0.462
-383.975	-60.211	-0.091	0.039
-382.960	-128.060	-0.243	0.035
-381.946	-139.722	-0.185	0.020
-380.931	-102.847	0.511	-0.121
-379.917	9.515	-0.177	-0.134
-378.902	9.199	0.292	-0.220
-377.888	-19.326	0.096	-0.059
-376.873	130.113	-0.133	0.170
-375.858	31.206	-0.141	-0.121
-374.844	313.029	-0.029	0.055
-373.829	-200.000	0.042	0.306
-372.815	-200.000	-0.000	0.195
-371.800	-200.000	0.037	0.357
-370.785	-26.069	-0.120	0.070
-369.771	570.510	0.160	0.388
-368.756	-70.786	0.140	-0.053
-367.742	79.192	0.173	-0.185
-366.727	-200.000	-0.010	0.098
-365.712	198.227	-0.088	-0.133
-364.698	173.320	-0.021	-0.030
-363.683	-45.119	-0.383	-0.189
-362.669	247.856	0.182	-0.306
-361.654	-200.000	0.000	0.208
-360.639	800.000	-0.135	0.371
-359.625	-200.000	0.031	0.340
-358.610	550.647	-0.116	0.278
-357.596	800.000	0.111	-0.388
-356.581	-154.849	-0.110	0.007
-355.566	125.198	-0.205	-0.257
-354.552	232.563	0.171	0.280
-353.537	16.366	-0.425	0.334
-352.523	800.000	0.064	-0.210
-351.508	277.063	-0.225	0.398
-350.493	142.477	0.098	-0.130
-349.479	-7.868	0.173	-0.116
-348.464	-58.141	0.164	0.071
-347.450	167.728	-0.016	0.023
-346.435	114.663	-0.269	-0.326
-345.420	78.502	-0.083	-0.088
-344.406	5.173	0.193	-0.142
-343.391	-163.080	0.195	0.009
-342.377	83.161	0.281	-0.304
-341.362	285.701	0.094	0.169
-340.348	-200.000	0.054	0.319
-339.333	127.714	0.137	-0.173
-338.318	134.246	0.161	-0.207
-337.304	800.000	0.051	-0.207
-336.289	-200.000	0.006	0.154
-335.275	-200.000	-0.013	0.212
-334.260	-4.222	-0.157	0.108
-333.245	-200.000	-0.050	-0.247
-332.231	-200.000	-0.062	0.517
-331.216	-22.005	-0.248	0.150
-330.202	-69.802	-0.147	0.056
-329.187	-93.523	0.041	0.011
-328.172	-200.000	-0.028	-0.128
-327.158	442.391	0.102	0.222
-326.143	-19.456	-0.411	-0.253
-325.129	-200.000	0.014	-0.093
-324.114	149.085	0.116	-0.156
-323.099	-37.658	-0.079	0.042
-322.085	157.355	0.157	0.217
-321.070	489.850	0.159	0.361
-320.056	-164.261	-0.382	-0.017
-319.041	800.000	0.072	-0.276
-318.026	-10.412	-0.277	0.183
-317.012	-83.026	0.120	-0.038
-315.997	-200.000	0.019	-0.424
-314.983	-200.000	0.021	-0.098
-313.968	-97.927	0.165	0.042
-312.953	-6.701	-0.122	0.083
-311.939	704.741	-0.035	-0.092
-310.924	-200.000	-0.021	-0.268
-309.910	-88.719	0.283	0.084
-308.895	800.000	0.096	0.264
-307.880	-200.000	-0.031	-0.439
-306.866	-124.352	0.059	-0.009
-305.851	193.730	0.064	-0.097
-304.837	-175.623	-0.331	-0.009
-303.822	800.000	-0.066	0.192
-302.807	-19.401	-0.185	0.114
-301.793	23.586	0.119	-0.098
-300.778	141.385	0.142	0.186
-299.764	-200.000	0.028	0.291
-298.749	56.255	-0.117	-0.113
-297.735	-67.093	0.236	0.093
-296.720	-170.062	0.294	0.010
-295.705	-22.867	-0.277	-0.166
-294.691	97.511	0.100	-0.114
-293.676	34.733	0.107	-0.093
-292.662	-162.011	-0.051	0.003
-291.647	800.000	-0.104	0.285
-290.632	-200.000	0.009	-0.227
-289.618	-49.954	-0.348	0.164
-288.603	80.012	-0.162	0.173
-287.589	81.211	0.103	-0.111
-286.574	-0.832	0.201	-0.141
-285.559	-96.144	0.074	0.019
-284.545	576.591	0.082	-0.198
-283.530	800.000	-0.047	-0.192
-282.516	-45.153	-0.372	-0.184
-281.501	-18.278	0.336	-0.209
-280.486	-69.530	-0.261	-0.099
-279.472	-200.000	-0.009	-0.342
-278.457	218.183	0.143	0.226
-277.443	41.925	-0.233	-0.210
-276.428	25.253	0.310	0.256
-275.413	-91.566	-0.226	-0.064
-274.399	9.332	0.165	0.124
-273.384	-29.667	0.233	0.132
-272.370	316.324	-0.092	-0.172
-271.355	338.630	0.115	-0.223
-270.340	-200.000	0.026	-0.234
-269.326	800.000	0.082	-0.270
-268.311	-109.134	0.165	-0.035
-267.297	-11.077	-0.102	0.067
-266.282	800.000	-0.121	0.414
-265.267	8.026	-0.081	0.061
-264.253	-27.586	-0.215	-0.124
-263.238	-6.001	0.319	0.216
-262.224	-98.761	0.215	0.054
-261.209	-53.905	-0.066	-0.030
-260.195	152.755	-0.155	-0.210
-259.180	254.070	-0.064	0.108
-258.165	5.835	0.290	0.213
-257.151	-79.971	0.275	-0.092
-256.136	-200.000	0.010	-0.081
-255.122	163.032	-0.143	-0.200
-254.107	53.513	0.254	-0.242
-253.092	-176.691	0.091	0.002
-252.078	-151.890	0.338	0.025
-251.063	157.773	0.063	0.086
-250.049	-200.000	0.112	0.521
-249.034	-200.000	0.004	0.020
-248.019	-2.728	-0.165	0.114
-247.005	12.726	0.189	0.145
-245.990	-153.573	0.176	0.012
-244.976	136.803	-0.212	0.275
-243.961	692.094	0.160	0.415
-242.946	335.687	0.116	0.223
-241.932	-145.997	0.180	0.016
-240.917	-200.000	-0.062	-0.391
-239.903	68.571	0.105	0.106
-238.888	47.867	-0.360	0.333
-237.873	-117.572	-0.191	-0.034
-236.859	37.193	0.175	0.154
-235.844	-200.000	0.058	0.287
-234.830	-200.000	-0.008	0.087
-233.815	-57.274	0.361	-0.157
-232.800	-72.262	0.154	0.057
-231.786	493.619	-0.042	0.096
-230.771	162.312	-0.119	-0.165
-229.757	4.827	0.258	-0.188
-228.742	-69.391	0.078	-0.029
-227.727	138.176	0.094	-0.122
-226.713	800.000	-0.061	0.209
-225.698	0.115	-0.214	0.151
-224.684	800.000	-0.066	0.195
-223.669	-145.930	0.056	0.005
-222.655	416.087	0.045	0.096
-221.640	-95.411	0.224	0.060
-220.625	112.309	-0.098	0.118
-219.611	-8.823	-0.150	-0.099
-218.596	66.514	-0.232	-0.234
-217.582	800.000	0.092	-0.341
-216.567	-161.475	-0.092	-0.005
-215.552	-55.639	-0.229	0.102
-214.538	-200.000	0.012	0.336
-213.523	-78.189	-0.483	0.165
-212.509	-7.622	0.166	-0.111
-211.494	-200.000	-0.014	-0.099
-210.479	798.178	-0.153	-0.417
-209.465	-200.000	0.011	-0.052
-208.450	-67.030	-0.145	0.057
-207.436	149.754	-0.147	-0.197
-206.421	800.000	0.014	-0.044
-205.406	-102.084	-0.207	0.049
-204.392	-84.477	0.292	0.091
-203.377	211.959	0.180	-0.281
-202.363	263.313	-0.165	-0.283
-201.348	87.393	0.143	0.157
-200.333	59.317	0.162	0.158
-199.319	-152.690	0.287	0.020
-198.304	351.880	0.140	-0.275
-197.290	216.561	0.104	-0.164
-196.275	127.886	-0.281	0.353
-195.260	-166.522	-0.198	-0.008
-194.246	81.617	-0.263	0.282
-193.231	265.436	-0.034	0.059
-192.217	80.406	-0.061	-0.065
-191.202	-112.905	0.274	-0.054
-190.187	-71.587	0.379	0.140
-189.173	-200.000	-0.033	0.260
-188.158	11.607	-0.235	-0.179
-187.144	-200.000	0.016	-0.226
-186.129	-73.786	-0.195	0.070
-185.114	193.690	-0.213	-0.319
-184.100	800.000	0.034	0.129
-183.085	383.792	0.150	0.305
-182.071	46.725	0.154	0.141
-181.056	182.664	0.279	0.407
-180.042	13.488	0.174	-0.133
-179.027	-192.348	-0.128	0.001
-178.012	-39.617	-0.064	-0.033
-176.998	-99.268	0.328	0.082
-175.983	129.507	-0.275	-0.347
-174.969	-200.000	0.035	0.253
-173.954	-123.216	0.569	0.090
-172.939	68.615	0.312	-0.317
-171.925	120.170	-0.131	-0.160
-170.910	-57.413	-0.189	-0.082
-169.896	653.626	0.108	-0.274
-168.881	800.000	0.111	0.382
-167.866	2.929	-0.257	0.184
-166.852	272.847	0.092	-0.160
-165.837	84.491	0.260	0.281
-164.823	241.165	0.228	0.376
-163.808	-117.734	0.420	0.075
-162.793	489.775	-0.086	-0.195
-161.779	-76.091	0.251	0.088
-160.764	-109.607	-0.106	0.022
-159.750	-4.392	-0.349	-0.239
-158.735	800.000	-0.090	-0.279
-157.720	-100.476	-0.330	0.081
-156.706	-76.978	0.180	-0.062
-155.691	-29.161	0.098	0.056
-154.677	56.412	-0.107	-0.103
-153.662	366.797	-0.072	-0.143
-152.647	171.785	0.314	-0.445
-151.633	800.000	-0.010	-0.040
-150.618	5.907	0.131	-0.095
-149.604	-59.717	0.362	-0.153
-148.589	-104.217	-0.114	0.026
-147.574	-99.089	0.460	0.115
-146.560	-200.000	0.022	-0.140
-145.545	-87.680	-0.195	0.058
-144.531	-200.000	-0.006	0.038
-143.516	800.000	0.113	0.394
-142.502	-13.356	0.180	-0.116
-141.487	110.535	-0.251	-0.298
-140.472	15.149	-0.252	0.195
-139.458	236.547	-0.012	0.019
-138.443	198.409	-0.258	0.390
-137.429	54.076	-0.130	0.123
-136.414	-72.457	-0.223	-0.081
-135.399	-118.288	-0.213	0.037
-134.385	-200.000	-0.013	0.061
-133.370	800.000	0.075	-0.211
-132.356	225.042	0.160	0.255
-131.341	785.798	-0.059	-0.159
-130.326	20.585	0.176	0.140
-129.312	-23.511	-0.211	0.125
-128.297	-7.680	-0.198	0.132
-127.283	768.728	-0.017	-0.045
-126.268	2.139	-0.095	0.068
-125.253	8.304	0.208	-0.154
-124.239	-136.130	0.110	-0.013
-123.224	-200.000	-0.043	0.287
-122.210	-200.000	0.040	0.175
-121.195	-89.403	-0.220	0.064
-120.180	386.498	0.096	-0.196
-119.166	-0.926	0.178	-0.125
-118.151	-100.219	0.164	0.040
-117.137	-15.759	0.330	0.207
-116.122	103.339	0.134	0.155
-115.107	-6.156	0.115	0.077
-114.093	279.015	-0.067	-0.118
-113.078	-200.000	-0.027	-0.232
-112.064	-200.000	0.045	0.534
-111.049	3.676	0.121	0.087
-110.034	-4.239	0.293	0.200
-109.020	-156.882	0.158	0.010
-108.005	58.625	0.208	-0.201
-106.991	800.000	-0.102	0.299
-105.976	253.442	-0.092	0.154
-104.962	-200.000	0.001	0.203
-103.947	-124.057	0.237	-0.037
-102.932	-117.904	0.127	-0.022
-101.918	-158.657	0.065	-0.004
-100.903	175.385	0.158	0.226
-99.889	285.153	-0.078	-0.138
-98.874	-200.000	0.032	-0.162
-97.859	141.603	-0.102	-0.133
-96.845	566.340	-0.018	-0.043
-95.830	79.501	0.336	0.355
-94.816	-59.302	0.176	0.075
-93.801	74.209	0.165	0.170
-92.786	313.961	0.101	-0.187
-91.772	313.139	0.050	-0.093
-90.757	270.447	-0.074	0.128
-89.743	-200.000	0.002	-0.204
-88.728	-156.819	0.217	-0.013
-87.713	-130.643	-0.272	-0.036
-86.699	-120.320	0.323	0.054
-85.684	-85.810	-0.063	-0.019
-84.670	200.619	-0.054	0.081
-83.655	164.835	0.087	0.120
-82.640	-110.287	0.327	0.067
-81.626	-200.000	0.067	0.313
-80.611	-56.335	-0.195	0.085
-79.597	24.596	0.287	0.234
-78.582	-58.061	-0.307	0.132
-77.567	192.706	-0.057	-0.085
-76.553	81.870	0.264	0.282
-75.538	146.412	-0.059	0.078
-74.524	36.742	0.247	0.215
-73.509	-200.000	-0.018	0.185
-72.494	176.941	-0.071	-0.102
-71.480	-166.700	-0.281	0.011
-70.465	35.593	-0.059	-0.051
-69.451	-157.679	0.149	-0.009
-68.436	-56.956	-0.166	-0.072
-67.422	-200.000	-0.053	-0.257
-66.407	30.556	0.082	-0.069
-65.392	199.204	0.179	-0.271
-64.378	-200.000	-0.022	-0.161
-63.363	-78.343	0.084	-0.028
-62.349	313.492	0.046	0.086
-61.334	19.693	-1.279	-1.013
-60.319	-9.785	0.668	0.438
-59.305	-200.000	0.094	-0.884
-58.290	119.390	0.643	0.783
-57.276	297.741	0.800	1.445
-56.261	-200.000	95.723	580.603
-55.246	606.196	1408.580	3454.022
-54.232	188.719	2607.220	3838.699
-53.217	117.989	2177.653	2639.993
-52.203	43.551	1624.019	1461.124
-51.188	35.080	1356.354	1168.833
-50.173	31.665	1315.194	1113.058
-49.159	54.173	1361.482	1288.664
-48.144	55.994	1377.671	1314.915
-47.130	35.261	1336.706	1152.807
-46.115	31.666	1319.278	1116.342
-45.100	31.480	1314.233	1110.925
-44.086	31.419	1311.866	1108.516
-43.071	31.380	1309.644	1106.366
-42.057	31.300	1307.736	1104.236
-41.042	31.418	1305.168	1102.719
-40.027	31.272	1304.131	1100.940
-39.013	31.394	1302.421	1100.175
-37.998	31.500	1300.450	1099.085
-36.984	31.435	1298.578	1097.078
-35.969	31.425	1297.154	1095.773
-34.954	31.490	1295.606	1094.805
-33.940	31.476	1294.133	1093.435
-32.925	31.579	1292.283	1092.429
-31.911	31.683	1290.454	1091.446
-30.896	31.578	1289.606	1090.074
-29.881	31.552	1288.447	1088.898
-28.867	31.596	1286.643	1087.584
-27.852	31.665	1284.909	1086.478
-26.838	31.557	1283.771	1084.844
-25.823	31.549	1282.328	1083.537
-24.809	31.497	1281.290	1082.314
-23.794	31.545	1279.610	1081.133
-22.779	31.594	1278.074	1080.076
-21.765	31.526	1277.441	1079.106
-20.750	31.498	1276.377	1078.003
-19.736	31.386	1274.688	1075.887
-18.721	31.429	1272.971	1074.644
-17.706	31.484	1271.891	1074.005
-16.692	31.432	1270.792	1072.738
-15.677	31.327	1269.961	1071.387
-14.663	31.400	1268.602	1070.619
-13.648	31.296	1267.566	1069.107
-12.633	31.390	1266.482	1068.684
-11.619	31.402	1265.401	1067.802
-10.604	31.388	1264.823	1067.193
-9.590	31.351	1263.546	1065.857
-8.575	31.284	1262.985	1064.961
-7.560	31.315	1261.905	1064.185
-6.546	31.267	1261.295	1063.358
-5.531	31.333	1259.795	1062.425
-4.517	31.271	1259.260	1061.578
-3.502	31.283	1258.223	1060.733
-2.487	31.451	1257.267	1060.837
-1.473	31.453	1253.555	1057.671
-0.458	30.685	1239.059	1041.105
0.556	28.243	1222.706	1007.997
1.571	24.935	1228.149	994.066
2.586	23.890	1242.748	999.918
3.600	22.569	1230.287	982.445
4.615	16.612	1156.900	892.436
5.629	7.835	1081.567	790.799
6.644	4.091	1061.244	757.585
7.659	3.637	1059.324	753.930
8.673	3.793	1058.411	753.974
9.688	3.930	1056.492	753.208
10.702	4.153	1054.976	753.144
11.717	9.041	1062.194	782.099
12.731	17.222	1073.252	830.305
13.746	20.184	1076.288	847.075
14.761	19.640	1074.978	843.312
15.775	18.650	1073.779	837.470
16.790	17.808	1071.148	831.243
17.804	16.852	1069.832	825.491
18.819	16.682	1068.882	823.861
19.834	16.461	1067.998	822.032
20.848	16.340	1066.883	820.511
21.863	16.172	1065.754	818.756
22.877	16.024	1065.250	817.578
23.892	15.926	1064.316	816.312
24.907	15.871	1064.067	815.782
25.921	15.867	1063.206	815.032
26.936	16.070	1061.514	814.646
27.950	16.037	1059.987	813.239
28.965	16.121	1058.501	812.435
29.980	16.252	1056.796	811.685
30.994	16.185	1056.246	810.865
32.009	16.417	1054.987	810.942
33.023	16.158	1054.408	809.183
34.038	16.166	1052.336	807.559
35.053	16.085	1051.965	806.818
36.067	16.088	1051.170	806.150
37.082	16.172	1050.006	805.586
38.096	16.281	1049.427	805.593
39.111	16.230	1048.470	804.542
40.126	16.021	1047.675	802.864
41.140	15.841	1046.039	800.683
42.155	15.766	1044.906	799.391
43.169	15.808	1043.577	798.503
44.184	15.844	1042.516	797.789
45.199	15.721	1041.962	796.713
46.213	15.859	1040.650	796.291
47.228	16.015	1039.600	796.154
48.242	16.034	1038.831	795.588
49.257	15.916	1037.820	794.184
50.271	16.090	1036.692	794.070
51.286	16.120	1035.698	793.378
52.301	16.141	1034.963	792.844
53.315	15.920	1034.233	791.177
54.330	15.898	1032.784	789.897
55.344	15.818	1032.197	789.004
56.359	15.950	1031.288	788.854
57.374	15.920	1030.262	787.862
58.388	15.771	1029.157	786.251
59.403	15.776	1028.576	785.758
60.417	15.685	1028.008	784.832
61.432	15.728	1027.084	784.259
62.447	15.601	1026.323	783.013
63.461	15.610	1025.259	782.178
64.476	15.670	1024.351	781.695
65.490	15.693	1023.409	781.012
66.505	15.694	1022.724	780.422
67.520	15.673	1022.171	779.837
68.534	15.716	1021.761	779.655
69.549	15.706	1020.853	778.846
70.563	15.648	1019.867	777.756
71.578	15.714	1018.623	777.043
72.593	15.473	1018.602	775.843
73.607	15.509	1017.918	775.423
74.622	15.635	1016.690	774.998
75.636	15.573	1016.267	774.321
76.651	15.631	1015.551	773.977
77.666	15.716	1014.998	773.878
78.680	15.769	1014.399	773.597
79.695	15.653	1013.456	772.274
80.709	15.741	1013.261	772.462
81.724	15.989	1012.491	772.945
82.739	15.911	1012.002	772.143
83.753	15.879	1011.884	771.842
84.768	16.201	1010.144	771.916
85.782	16.197	1009.488	771.330
86.797	16.135	1008.763	770.425
87.812	16.029	1007.993	769.285
88.826	16.143	1006.757	768.790
89.841	16.192	1005.447	767.946
90.855	16.183	1004.966	767.473
91.870	16.186	1004.275	766.889
92.884	16.300	1002.892	766.282
93.899	16.246	1002.000	765.288
94.914	16.243	1001.556	764.868
95.928	16.214	1001.014	764.255
96.943	16.161	1000.299	763.403
97.957	16.181	999.013	762.443
98.972	16.289	997.924	762.031
99.987	16.316	997.158	761.503
101.001	16.126	996.433	760.024
102.016	16.216	995.521	759.667
103.030	16.212	994.605	758.883
104.045	16.251	993.795	758.373
105.060	16.174	993.029	757.377
106.074	15.998	992.231	755.911
107.089	15.838	991.165	754.312
108.103	15.812	989.916	753.182
109.118	15.810	989.332	752.660
110.133	15.767	988.519	751.784
111.147	15.769	987.391	750.868
112.162	15.910	986.991	751.124
113.176	15.956	985.913	750.444
114.191	15.849	985.605	749.669
115.206	16.003	984.597	749.516
116.220	15.949	983.727	748.549
117.235	15.859	982.581	747.213
118.249	15.867	981.942	746.695
119.264	15.848	981.157	745.951
120.279	15.764	980.597	745.085
121.293	15.730	979.963	744.387
122.308	15.647	978.611	742.926
123.322	15.705	977.678	742.408
124.337	15.628	976.546	741.143
125.352	15.646	975.780	740.577
126.366	15.613	974.544	739.430
127.381	15.577	973.616	738.498
128.395	15.696	972.525	738.131
129.410	15.821	971.667	737.960
130.424	15.880	970.873	737.553
131.439	15.935	970.063	737.111
132.454	15.850	969.306	736.101
133.468	15.956	968.663	736.011
134.483	15.986	967.850	735.456
135.497	16.001	966.826	734.680
136.512	16.021	965.909	734.004
137.527	16.105	964.761	733.432
138.541	15.985	964.437	732.600
139.556	16.123	963.635	732.526
140.570	16.065	963.287	731.946
141.585	16.282	962.304	732.073
142.600	16.293	961.283	731.282
143.614	16.186	960.866	730.434
144.629	16.265	960.254	730.249
145.643	16.278	958.820	729.147
146.658	16.243	958.007	728.317
147.673	16.005	957.000	726.460
148.687	15.974	956.446	725.838
149.702	15.865	955.670	724.716
150.716	15.938	954.547	724.115
151.731	15.985	954.159	723.957
152.746	15.953	953.150	722.992
153.760	16.178	952.297	723.247
154.775	16.241	951.827	723.095
155.789	16.133	951.467	722.297
156.804	16.216	950.403	721.780
157.819	16.185	949.909	721.206
158.833	16.264	949.313	721.026
159.848	16.396	948.178	720.667
160.862	16.254	947.461	719.452
161.877	16.178	945.829	717.825
162.892	16.082	945.012	716.733
163.906	15.934	944.339	715.530
164.921	16.089	942.966	715.084
165.935	16.130	942.521	714.860
166.950	16.147	941.835	714.346
167.964	16.138	940.792	713.453
168.979	16.116	939.512	712.326
169.994	16.091	939.058	711.813
171.008	16.071	938.840	711.501
172.023	16.339	937.732	711.730
173.037	16.346	937.288	711.360
174.052	16.318	936.594	710.652
175.067	16.228	935.489	709.370
176.081	16.043	934.830	708.032
177.096	16.059	934.637	707.892
178.110	16.190	933.667	707.641
179.125	16.197	933.182	707.242
180.140	16.074	933.301	706.753
181.154	16.460	932.279	707.534
182.169	16.497	931.854	707.302
183.183	16.526	931.135	706.813
184.198	16.475	930.597	706.131
185.213	16.454	929.416	705.085
186.227	16.496	929.294	705.107
187.242	16.569	928.517	704.760
188.256	16.642	927.395	704.148
189.271	16.668	927.003	703.897
190.286	16.369	926.041	701.862
191.300	16.168	924.926	700.121
192.315	16.115	924.505	699.519
193.329	16.111	924.168	699.185
194.344	16.118	923.885	698.939
195.359	16.374	923.011	699.276
196.373	16.567	922.505	699.630
197.388	16.563	921.987	699.157
198.402	16.739	921.132	699.174
199.417	16.700	921.273	699.057
200.432	16.813	920.274	698.705
201.446	16.927	919.635	698.627
202.461	16.865	919.133	697.927
203.475	16.873	918.863	697.693
204.490	16.762	918.103	696.600
205.504	16.765	917.066	695.762
206.519	16.608	916.378	694.534
207.534	16.706	915.461	694.178
208.548	16.831	914.722	694.069
209.563	16.768	914.045	693.236
210.577	16.722	913.548	692.610
211.592	16.830	913.200	692.728
212.607	16.875	912.319	692.183
213.621	16.810	911.472	691.212
214.636	16.902	910.630	690.886
215.650	16.952	910.302	690.781
216.665	16.855	909.335	689.593
217.680	16.881	909.231	689.557
218.694	17.140	908.176	689.750
219.709	16.950	908.016	688.796
220.723	16.971	907.137	688.150
221.738	16.951	906.311	687.381
222.753	16.945	905.779	686.895
223.767	17.142	905.383	687.330
224.782	17.161	904.669	686.806
225.796	17.204	904.038	686.439
226.811	17.159	903.164	685.532
227.826	17.075	902.636	684.731
228.840	17.089	902.033	684.273
229.855	16.984	900.941	682.960
230.869	17.028	899.962	682.333
231.884	17.109	899.306	682.101
232.899	16.988	898.682	681.082
233.913	16.931	897.955	680.242
234.928	16.856	897.425	679.480
235.942	16.664	897.528	678.728
236.957	16.919	896.423	678.853
237.972	16.789	896.205	678.110
238.986	16.870	895.216	677.624
240.001	16.964	894.409	677.330
241.015	16.995	893.766	676.907
242.030	16.996	893.453	676.611
243.045	17.098	892.851	676.503
244.059	17.213	891.831	676.127
245.074	17.048	891.928	675.486
246.088	17.184	891.070	675.318
247.103	17.182	890.538	674.845
248.117	17.341	890.118	675.097
249.132	17.480	889.854	675.392
250.147	17.581	889.188	675.223
251.161	17.755	888.380	675.242
252.176	17.523	888.005	673.978
253.190	17.711	887.333	674.152
254.205	17.663	886.644	673.381
255.220	17.694	885.607	672.654
256.234	17.634	885.302	672.124
257.249	17.685	884.476	671.641
258.263	17.527	883.793	670.442
259.278	17.669	882.565	670.008
260.293	17.781	882.279	670.170
261.307	17.827	882.321	670.326
262.322	17.916	881.421	669.930
263.336	17.814	880.636	668.876
264.351	17.888	879.572	668.298
265.366	17.889	879.458	668.154
266.380	17.820	879.025	667.497
267.395	17.859	877.758	666.627
268.409	17.790	877.350	665.991
269.424	17.850	876.335	665.397
270.439	17.759	875.898	664.649
271.453	17.664	874.862	663.434
272.468	17.795	873.951	663.197
273.482	17.862	873.954	663.398
274.497	17.799	873.381	662.660
275.512	17.655	873.142	661.861
276.526	17.785	872.527	661.841
277.541	17.955	871.752	661.855
278.555	17.985	871.220	661.509
279.570	18.131	870.684	661.606
280.585	18.084	870.090	660.915
281.599	17.806	869.496	659.332
282.614	17.855	868.248	658.518
283.628	17.796	867.993	658.036
284.643	17.993	867.291	658.206
285.657	18.003	866.417	657.523
286.672	18.064	866.023	657.401
287.687	17.954	865.555	656.563
288.701	18.010	864.983	656.287
289.716	18.098	864.534	656.225
290.730	18.113	863.806	655.672
291.745	18.108	862.895	654.904
292.760	18.170	862.637	654.889
293.774	18.297	861.987	654.823
294.789	18.184	861.447	653.920
295.803	18.043	860.935	652.937
296.818	18.038	859.970	652.128
297.833	18.113	859.318	651.863
298.847	18.099	858.820	651.375
299.862	18.028	858.429	650.748
300.876	18.221	857.967	651.076
301.891	18.397	857.255	651.145
302.906	18.322	856.723	650.399
303.920	18.432	856.167	650.338
304.935	18.495	855.745	650.199
305.949	18.471	855.047	649.518
306.964	18.280	854.437	648.277
307.979	18.247	854.144	647.872
308.993	18.355	853.340	647.611
310.008	18.498	852.704	647.613
311.022	18.394	851.854	646.516
312.037	18.344	851.401	645.930
313.052	18.191	850.561	644.655
314.066	18.175	849.978	644.095
315.081	18.028	849.810	643.359
316.095	18.243	848.635	643.222
317.110	18.394	848.081	643.311
318.125	18.181	848.113	642.478
319.139	18.231	847.499	642.145
320.154	18.338	847.353	642.378
321.168	18.333	846.681	641.794
322.183	18.379	845.722	641.181
323.197	18.403	845.475	641.028
324.212	18.361	845.241	640.638
325.227	18.363	844.244	639.831
326.241	18.354	843.751	639.370
327.256	18.597	842.674	639.400
328.270	18.258	842.680	638.087
329.285	18.399	842.032	638.062
330.300	18.401	841.333	637.483
331.314	18.294	841.005	636.783
332.329	18.562	840.741	637.522
333.343	18.532	840.208	636.950
334.358	18.506	839.656	636.378
335.373	18.480	839.659	636.227
336.387	18.552	839.058	635.985
337.402	18.655	838.697	636.035
338.416	18.744	838.636	636.264
339.431	18.867	837.912	636.114
340.446	18.755	837.820	635.574
341.460	18.917	837.545	635.906
342.475	18.934	837.078	635.560
343.489	18.953	836.470	635.112
344.504	18.956	836.022	634.727
345.519	19.151	835.683	635.131
346.533	18.997	834.700	633.759
347.548	18.802	834.437	632.788
348.562	18.668	833.757	631.723
349.577	18.824	832.956	631.633
350.592	18.727	832.323	630.740
351.606	18.773	831.689	630.371
352.621	18.663	830.946	629.349
353.635	18.703	830.736	629.281
354.650	18.870	829.701	629.052
355.665	18.986	829.042	628.922
356.679	19.012	828.561	628.599
357.694	18.967	828.178	628.087
358.708	18.879	827.841	627.453
359.723	18.973	827.132	627.204
360.738	18.784	826.537	626.010
361.752	18.894	825.963	625.919
362.767	19.069	825.161	625.892
363.781	19.130	825.242	626.120
364.796	19.170	824.532	625.673
365.810	19.414	824.274	626.307
366.825	19.221	823.861	625.238
367.840	19.227	823.259	624.747
368.854	19.294	822.743	624.542
369.869	19.277	822.057	623.906
370.883	19.234	821.609	623.353
371.898	19.303	821.677	623.601
372.913	19.192	821.254	622.822
373.927	19.400	820.500	622.947
374.942	19.407	819.932	622.487
375.956	19.517	819.549	622.539
376.971	19.539	819.225	622.314
377.986	19.498	818.872	621.842
379.000	19.596	818.309	621.714
380.015	19.553	817.777	621.100
381.029	19.540	817.287	620.627
382.044	19.518	816.515	619.908
383.059	19.563	815.579	619.304
384.073	19.553	815.340	619.029
385.088	19.491	814.650	618.229
386.102	19.387	814.403	617.615
387.117	19.521	813.338	617.232
388.132	19.326	813.266	616.424
389.146	19.397	812.608	616.125
390.161	19.545	812.234	616.315
391.175	19.425	811.930	615.604
392.190	19.544	811.493	615.641
393.205	19.494	810.741	614.839
394.219	19.477	810.422	614.482
395.234	19.539	809.834	614.202
396.248	19.368	809.498	613.285
397.263	19.290	808.786	612.412
398.278	19.306	808.640	612.306
399.292	19.422	807.984	612.167
400.307	19.301	807.705	611.472
401.321	19.369	807.326	611.371
402.336	19.501	806.615	611.247
403.350	19.374	806.645	610.765
404.365	19.649	806.060	611.243
405.380	19.682	805.624	610.972
406.394	19.791	804.700	610.602
407.409	19.826	804.544	610.556
408.423	19.899	804.313	610.583
409.438	19.939	804.103	610.512
410.453	20.051	803.435	610.346
411.467	20.050	802.937	609.909
412.482	20.006	802.619	609.458
413.496	19.893	802.590	608.984
414.511	20.141	801.950	609.315
415.526	19.935	801.710	608.355
416.540	20.022	800.826	607.936
417.555	20.111	800.397	607.872
418.569	19.991	800.266	607.295
419.584	20.103	799.644	607.162
420.599	19.945	799.143	606.177
421.613	158.841	1370.575	1791.628
422.628	137.797	1453.840	1791.746
