DTS Sentinel unit serial number:	SN413079Multiplexer serial number:	ORYXHardware model number:	OX4-SRSoftware version number:	ORYX F/W v4.00 Oryx Data Collector v3.7.2.0data status	okinstallation	princeton_trtdifferential loss correction	single-endedforward channel	channel 1reverse channel	N/Adate	2019/09/12time	11:44:11forward acquisition time	60.00reverse acquisition time	0.00gamma	496.2192k internal	0.2294k external	0.2294temperature offset calibration	1.0039default loss term (dB/km)	0.3790temperature slope calibration	1.0000multiplexer offset coefficient	1.0000multiplexer slope coefficient	1.0000fibre end	0.00T internal ref (°C)	39.80T ext. ref 1 (°C)	1.98T ext. ref 2 (°C)	37.65length (m)	temperature (°C)	Stokes	anti-Stokes-747.200	-92.567	-0.285	-0.082
-746.185	-68.892	-0.269	-0.106
-745.171	-200.000	-0.040	0.357
-744.156	26.253	-0.036	0.030
-743.142	-99.998	0.310	0.079
-742.127	18.089	-0.173	0.141
-741.112	246.129	-0.101	-0.174
-740.098	-133.840	0.248	-0.031
-739.083	-5.704	-0.374	0.262
-738.069	-115.154	-0.236	0.046
-737.054	800.000	0.047	-0.146
-736.039	148.610	-0.095	-0.131
-735.025	-178.087	0.122	0.003
-734.010	-23.506	-0.210	0.129
-732.996	138.014	-0.097	-0.130
-731.981	-41.843	0.190	-0.099
-730.966	-173.001	0.320	0.010
-729.952	-200.000	0.005	-0.078
-728.937	-56.942	-0.235	0.106
-727.923	24.957	0.099	0.084
-726.908	129.605	-0.158	-0.206
-725.894	18.351	0.093	-0.076
-724.879	-177.754	0.180	0.004
-723.864	124.784	-0.156	-0.201
-722.850	800.000	0.110	0.325
-721.835	-74.999	0.288	-0.105
-720.821	592.113	-0.117	-0.296
-719.806	-170.440	-0.237	-0.008
-718.791	800.000	0.014	-0.064
-717.777	-161.409	-0.185	-0.010
-716.762	-4.634	-0.154	0.109
-715.748	186.647	-0.234	-0.356
-714.733	19.381	-0.110	-0.091
-713.718	-11.185	0.198	-0.134
-712.704	-63.828	-0.329	-0.137
-711.689	-174.523	-0.102	0.003
-710.675	-114.653	-0.191	-0.037
-709.660	-42.430	0.097	0.051
-708.645	-200.000	-0.087	-0.400
-707.631	215.044	-0.095	-0.155
-706.616	133.910	0.074	-0.098
-705.602	-4.947	0.160	0.112
-704.587	-189.858	-0.256	0.003
-703.572	226.502	-0.234	-0.388
-702.558	-200.000	0.009	-0.384
-701.543	-85.650	0.364	0.115
-700.529	-200.000	0.034	-0.289
-699.514	800.000	-0.033	0.127
-698.499	285.322	-0.042	0.078
-697.485	-141.412	0.132	-0.014
-696.470	-57.608	0.245	-0.110
-695.456	116.077	0.153	-0.191
-694.441	-91.147	-0.135	0.040
-693.426	124.817	0.129	0.166
-692.412	152.690	-0.098	0.137
-691.397	121.628	-0.133	0.169
-690.383	307.644	0.137	-0.260
-689.368	95.990	-0.196	-0.228
-688.354	-200.000	0.024	0.132
-687.339	-134.438	-0.202	-0.025
-686.324	196.901	0.144	-0.224
-685.310	107.693	0.232	0.282
-684.295	-160.444	0.071	-0.004
-683.281	800.000	0.064	0.275
-682.266	-124.899	-0.126	0.020
-681.251	-118.512	-0.030	0.005
-680.237	414.185	0.103	-0.223
-679.222	-101.944	0.086	-0.021
-678.208	-116.014	0.093	-0.018
-677.193	-88.911	0.124	-0.037
-676.178	-29.754	-0.131	-0.076
-675.164	-109.774	0.290	-0.062
-674.149	30.028	-0.122	-0.106
-673.135	-200.000	-0.005	-0.107
-672.120	120.584	-0.224	0.284
-671.105	153.329	-0.157	-0.219
-670.091	103.220	0.131	-0.157
-669.076	-52.494	0.217	-0.102
-668.062	19.432	0.070	-0.057
-667.047	-33.425	0.105	-0.059
-666.032	-160.143	-0.650	-0.036
-665.018	800.000	-0.059	0.246
-664.003	-200.000	-0.043	-0.263
-662.989	-99.033	0.166	0.043
-661.974	213.163	0.099	-0.160
-660.959	-32.942	0.254	0.144
-659.945	-200.000	0.007	0.200
-658.930	304.562	-0.113	-0.215
-657.916	800.000	0.028	-0.088
-656.901	-4.129	-0.307	-0.217
-655.886	2.428	-0.177	-0.131
-654.872	210.931	-0.114	-0.182
-653.857	173.629	-0.109	0.161
-652.843	-172.692	0.199	-0.006
-651.828	-166.071	-0.524	-0.023
-650.814	4.854	-0.047	-0.035
-649.799	187.662	-0.018	-0.028
-648.784	155.538	-0.076	0.107
-647.770	-68.032	-0.256	-0.102
-646.755	36.615	-0.434	-0.390
-645.741	-31.619	0.058	-0.033
-644.726	-200.000	0.059	-0.514
-643.711	-71.197	-0.584	-0.223
-642.697	-172.819	0.172	-0.005
-641.682	-200.000	-0.009	-0.231
-640.668	83.371	-0.089	0.099
-639.653	-24.806	0.227	-0.137
-638.638	-185.624	-0.114	-0.002
-637.624	-40.378	-0.297	0.157
-636.609	173.339	-0.048	0.070
-635.595	-3.725	-0.338	-0.239
-634.580	-200.000	-0.027	0.239
-633.565	-130.657	0.324	0.044
-632.551	-200.000	-0.028	-0.371
-631.536	-200.000	0.005	-0.062
-630.522	-80.149	0.062	-0.021
-629.507	-156.218	-0.380	0.024
-628.492	800.000	0.062	0.220
-627.478	-200.000	-0.063	0.355
-626.463	800.000	-0.084	-0.281
-625.449	800.000	0.090	-0.319
-624.434	495.666	0.180	-0.421
-623.419	-91.750	-0.205	0.059
-622.405	-112.133	-0.152	0.031
-621.390	-80.113	-0.250	0.085
-620.376	-200.000	0.041	-0.194
-619.361	42.734	0.024	-0.022
-618.346	63.133	0.060	-0.062
-617.332	-163.564	-0.216	-0.010
-616.317	-106.545	-0.150	0.034
-615.303	-43.417	-0.260	-0.134
-614.288	-200.000	0.021	0.186
-613.273	721.393	-0.036	-0.099
-612.259	183.493	0.057	-0.086
-611.244	-6.787	-0.089	-0.062
-610.230	120.552	0.217	-0.275
-609.215	245.855	0.052	0.089
-608.201	69.112	0.068	-0.071
-607.186	-58.460	0.031	-0.014
-606.171	800.000	0.046	0.147
-605.157	-33.763	-0.090	0.050
-604.142	158.266	0.131	-0.185
-603.128	658.011	0.043	-0.112
-602.113	-200.000	-0.005	-0.138
-601.098	-200.000	0.003	-0.026
-600.084	800.000	0.036	-0.133
-599.069	394.616	-0.122	-0.260
-598.055	305.582	0.106	-0.200
-597.040	-200.000	-0.021	-0.155
-596.025	-67.951	-0.253	0.101
-595.011	-114.947	-0.351	0.068
-593.996	-134.263	-0.226	0.028
-592.982	800.000	-0.029	-0.087
-591.967	-169.487	-0.285	0.011
-590.952	289.900	-0.037	0.069
-589.938	800.000	0.065	0.287
-588.923	98.773	-0.062	0.073
-587.909	100.613	0.105	0.123
-586.894	800.000	0.098	-0.286
-585.879	6.594	-0.262	0.198
-584.865	-61.894	0.191	-0.081
-583.850	-200.000	0.005	-0.205
-582.836	-79.560	-0.389	-0.133
-581.821	-91.717	0.112	0.032
-580.806	183.053	-0.118	0.177
-579.792	-200.000	-0.001	0.143
-578.777	-93.445	0.070	0.020
-577.763	-30.592	-0.431	0.248
-576.748	41.331	-0.083	0.077
-575.733	292.363	-0.183	0.339
-574.719	-200.000	-0.049	0.496
-573.704	-13.805	-0.019	-0.012
-572.690	411.996	-0.040	0.086
-571.675	-93.106	0.204	-0.058
-570.661	-200.000	0.009	0.222
-569.646	671.997	-0.070	0.184
-568.631	440.591	-0.060	-0.134
-567.617	450.950	-0.034	0.075
-566.602	-200.000	-0.036	-0.200
-565.588	354.780	-0.067	-0.135
-564.573	800.000	0.094	0.307
-563.558	-196.184	0.445	0.003
-562.544	-82.163	-0.301	0.100
-561.529	-200.000	0.024	0.158
-560.515	62.198	-0.177	0.179
-559.500	-109.725	-0.206	-0.044
-558.485	11.632	-0.248	0.193
-557.471	-29.734	-0.120	0.070
-556.456	-154.710	-0.192	0.013
-555.442	448.865	0.150	0.337
-554.427	-102.795	-0.083	0.020
-553.412	800.000	0.107	0.360
-552.398	-200.000	-0.052	0.239
-551.383	-70.580	0.160	-0.061
-550.369	90.901	-0.061	-0.070
-549.354	168.344	0.041	-0.059
-548.339	71.804	-0.034	-0.036
-547.325	-138.710	0.153	0.017
-546.310	144.174	-0.107	-0.145
-545.296	249.382	-0.044	-0.076
-544.281	800.000	-0.059	0.239
-543.266	800.000	0.044	-0.143
-542.252	-75.850	-0.449	0.161
-541.237	583.228	-0.050	0.125
-540.223	-200.000	-0.290	0.001
-539.208	407.488	0.093	-0.199
-538.193	81.789	0.152	-0.167
-537.179	800.000	-0.069	-0.260
-536.164	-44.202	0.172	-0.088
-535.150	2.360	0.338	0.248
-534.135	57.064	-0.112	-0.110
-533.121	85.168	0.121	-0.135
-532.106	800.000	-0.032	0.113
-531.091	-60.137	-0.203	-0.088
-530.077	11.333	-0.051	-0.039
-529.062	-49.033	-0.209	0.102
-528.048	124.236	-0.024	-0.030
-527.033	-70.776	-0.058	0.022
-526.018	-85.365	0.203	0.064
-525.004	79.887	-0.212	-0.231
-523.989	-196.684	-0.196	0.001
-522.975	242.061	0.174	-0.295
-521.960	90.338	0.217	-0.246
-520.945	800.000	-0.030	-0.113
-519.931	-200.000	-0.031	0.537
-518.916	-200.000	-0.011	0.113
-517.902	47.273	-0.155	0.146
-516.887	800.000	0.158	0.639
-515.872	722.734	-0.016	0.043
-514.858	182.401	0.307	0.459
-513.843	-200.000	-0.013	0.261
-512.829	-200.000	0.054	-0.388
-511.814	800.000	0.033	0.138
-510.799	29.550	-0.071	-0.061
-509.785	-110.955	0.306	-0.064
-508.770	-33.869	0.156	0.087
-507.756	-105.867	0.063	-0.014
-506.741	-156.607	0.160	-0.010
-505.726	-200.000	-0.003	0.041
-504.712	243.989	0.126	-0.213
-503.697	-117.170	0.156	0.029
-502.683	-13.548	-0.182	0.120
-501.668	-88.586	-0.145	0.044
-500.653	-138.632	-0.285	-0.032
-499.639	-58.094	-0.202	0.089
-498.624	-200.000	0.022	-0.293
-497.610	97.823	-0.167	-0.195
-496.595	133.540	-0.138	-0.181
-495.581	22.533	0.267	-0.221
-494.566	42.231	-0.123	0.113
-493.551	-200.000	0.002	-0.021
-492.537	-49.182	0.138	0.067
-491.522	-189.816	0.231	0.003
-490.508	145.155	-0.250	0.339
-489.493	800.000	0.034	-0.107
-488.478	328.625	0.219	-0.426
-487.464	53.867	-0.199	0.194
-486.449	-40.058	-0.091	0.048
-485.435	190.150	0.062	0.094
-484.420	105.167	-0.062	-0.074
-483.405	-160.546	0.113	-0.006
-482.391	800.000	0.033	0.092
-481.376	41.801	0.140	-0.129
-480.362	63.315	0.182	0.185
-479.347	800.000	0.101	-0.350
-478.332	361.138	0.126	-0.256
-477.318	280.645	0.050	0.091
-476.303	-91.318	-0.205	0.059
-475.289	800.000	-0.090	-0.316
-474.274	-200.000	0.015	-0.068
-473.259	-20.479	0.387	0.241
-472.245	-107.600	-0.158	-0.035
-471.230	-71.425	0.189	0.072
-470.216	-54.611	0.034	-0.015
-469.201	526.467	-0.000	0.001
-468.186	538.211	0.060	0.145
-467.172	-14.584	-0.267	-0.174
-466.157	-94.049	0.046	-0.013
-465.143	-128.849	0.283	0.040
-464.128	36.597	-0.226	-0.201
-463.113	444.633	-0.195	-0.434
-462.099	254.176	-0.066	0.114
-461.084	15.409	-0.140	0.111
-460.070	492.387	-0.144	-0.334
-459.055	-46.020	0.205	0.102
-458.040	-44.122	0.143	-0.073
-457.026	67.574	-0.152	0.157
-456.011	565.745	-0.032	0.078
-454.997	510.512	0.057	0.134
-453.982	38.061	-0.327	0.294
-452.968	446.375	-0.171	0.381
-451.953	-158.045	0.090	0.005
-450.938	-200.000	-0.042	-0.338
-449.924	800.000	-0.044	0.144
-448.909	-8.336	0.294	-0.200
-447.895	-87.486	0.075	-0.023
-446.880	-115.263	0.267	0.051
-445.865	-38.922	-0.177	0.094
-444.851	549.156	0.200	-0.485
-443.836	108.989	-0.088	0.106
-442.822	-52.301	-0.262	-0.123
-441.807	-150.842	0.074	0.006
-440.792	-21.158	-0.104	-0.064
-439.778	-200.000	0.011	0.197
-438.763	-69.234	0.284	0.110
-437.749	-162.210	-0.256	0.013
-436.734	100.380	0.167	-0.196
-435.719	178.108	0.110	-0.162
-434.705	243.893	0.193	-0.326
-433.690	-82.952	-0.171	0.056
-432.676	-120.678	-0.084	-0.014
-431.661	19.898	0.055	0.045
-430.646	-127.759	0.121	-0.018
-429.632	277.995	0.073	0.131
-428.617	-42.819	-0.164	0.084
-427.603	155.811	-0.105	0.146
-426.588	-200.000	0.057	0.596
-425.573	124.923	-0.215	0.274
-424.559	-200.000	0.027	0.145
-423.544	800.000	0.026	-0.099
-422.530	21.758	0.198	-0.163
-421.515	-148.064	-0.330	0.028
-420.500	-200.000	-0.013	-0.098
-419.486	-69.495	0.055	0.021
-418.471	356.965	0.144	-0.290
-417.457	800.000	0.030	-0.113
-416.442	800.000	-0.081	0.241
-415.428	-200.000	-0.003	-0.125
-414.413	189.730	-0.254	-0.385
-413.398	-12.273	-0.291	-0.192
-412.384	-47.822	0.173	-0.085
-411.369	-200.000	-0.021	0.322
-410.355	231.611	-0.080	0.132
-409.340	326.532	0.237	-0.458
-408.325	180.960	0.095	-0.142
-407.311	-200.000	-0.059	-0.260
-406.296	-200.000	0.004	0.101
-405.282	349.350	-0.043	0.086
-404.267	53.744	-0.074	0.072
-403.252	-200.000	0.021	0.226
-402.238	350.883	0.187	0.373
-401.223	-159.287	-0.066	0.004
-400.209	-200.000	-0.008	-0.069
-399.194	546.203	0.074	0.179
-398.179	-200.000	0.033	0.155
-397.165	41.146	0.025	0.023
-396.150	-200.000	-0.019	-0.091
-395.136	115.307	0.241	0.297
-394.121	570.559	0.019	0.047
-393.106	28.597	0.163	-0.139
-392.092	-200.000	-0.038	-0.226
-391.077	-51.723	0.422	-0.198
-390.063	34.241	0.340	0.300
-389.048	85.217	-0.216	0.239
-388.033	-200.000	-0.013	0.193
-387.019	293.200	-0.158	-0.291
-386.004	15.056	0.071	0.056
-384.990	111.972	-0.255	-0.311
-383.975	800.000	-0.050	-0.145
-382.960	511.939	-0.058	-0.137
-381.946	-123.417	0.237	-0.038
-380.931	-200.000	-0.019	0.095
-379.917	102.228	0.034	0.041
-378.902	135.982	0.048	0.063
-377.888	-84.053	0.206	-0.066
-376.873	194.195	-0.044	-0.067
-375.858	-28.379	-0.180	0.104
-374.844	158.714	-0.275	0.385
-373.829	800.000	0.139	-0.388
-372.815	165.139	0.129	0.183
-371.800	800.000	-0.068	0.198
-370.785	-95.632	-0.227	-0.061
-369.771	-75.355	-0.095	-0.034
-368.756	-97.768	0.098	-0.026
-367.742	-200.000	-0.017	-0.151
-366.727	-200.000	-0.008	-0.128
-365.712	202.716	-0.158	0.246
-364.698	34.480	-0.065	-0.057
-363.683	333.172	-0.090	0.175
-362.669	-68.034	0.044	-0.017
-361.654	-127.006	0.052	0.008
-360.639	-200.000	0.014	0.200
-359.625	576.685	-0.133	0.326
-358.610	800.000	-0.076	-0.237
-357.596	-200.000	0.000	-0.180
-356.581	175.337	0.174	-0.254
-355.566	-200.000	-0.012	-0.282
-354.552	-200.000	0.013	0.067
-353.537	-145.704	0.078	0.007
-352.523	800.000	0.059	0.242
-351.508	-6.070	-0.082	0.057
-350.493	131.425	0.189	0.245
-349.479	13.083	-0.123	-0.096
-348.464	-90.747	-0.232	-0.067
-347.450	-151.849	-0.063	-0.005
-346.435	53.545	-0.054	-0.052
-345.420	202.209	-0.173	-0.268
-344.406	-135.043	-0.355	0.043
-343.391	119.413	-0.070	0.088
-342.377	-115.297	0.051	-0.010
-341.362	543.948	-0.094	0.227
-340.348	325.061	-0.169	0.326
-339.333	593.226	-0.081	-0.200
-338.318	191.790	0.026	-0.040
-337.304	120.638	0.117	-0.147
-336.289	-200.000	0.014	0.075
-335.275	800.000	-0.055	-0.238
-334.260	-71.908	0.363	-0.136
-333.245	75.923	0.237	-0.252
-332.231	-8.124	-0.105	0.071
-331.216	-90.337	0.136	0.040
-330.202	62.278	0.077	0.077
-329.187	26.912	-0.189	0.160
-328.172	66.422	0.140	0.143
-327.158	11.404	-0.147	-0.113
-326.143	-123.416	0.172	0.028
-325.129	-96.451	-0.148	-0.039
-324.114	-200.000	0.007	-0.052
-323.099	800.000	0.078	-0.277
-322.085	-3.212	-0.182	0.128
-321.070	-200.000	-0.014	-0.082
-320.056	523.951	-0.089	-0.209
-319.041	-200.000	0.022	-0.595
-318.026	194.190	0.089	-0.136
-317.012	-200.000	-0.039	0.231
-315.997	800.000	-0.061	0.235
-314.983	-200.000	0.020	0.200
-313.968	91.481	-0.056	0.063
-312.953	800.000	0.056	0.240
-311.939	46.323	-0.110	-0.103
-310.924	-72.606	0.237	-0.088
-309.910	-164.417	0.271	-0.012
-308.895	72.585	0.132	-0.139
-307.880	131.545	-0.192	-0.249
-306.866	147.256	0.117	0.158
-305.851	-145.419	-0.166	-0.015
-304.837	800.000	0.070	0.212
-303.822	-44.930	0.272	-0.136
-302.807	-75.817	0.237	0.085
-301.793	249.823	0.118	-0.201
-300.778	-101.641	-0.172	-0.042
-299.764	-58.298	-0.123	-0.054
-298.749	708.485	0.062	0.164
-297.735	-165.676	-0.105	-0.005
-296.720	-200.000	0.009	-0.200
-295.705	-200.000	0.039	-0.267
-294.691	680.049	0.038	-0.098
-293.676	1.590	0.137	-0.099
-292.662	800.000	-0.122	0.363
-291.647	-64.279	-0.156	0.064
-290.632	45.281	-0.199	0.185
-289.618	-150.167	0.229	0.018
-288.603	137.318	0.248	0.326
-287.589	-101.603	-0.196	0.048
-286.574	-200.000	0.015	-0.118
-285.559	5.238	-0.043	-0.031
-284.545	327.508	-0.062	0.120
-283.530	-200.000	-0.020	-0.146
-282.516	800.000	0.054	-0.180
-281.501	-82.564	-0.243	-0.079
-280.486	329.239	0.192	-0.371
-279.472	33.817	0.154	0.135
-278.457	-81.040	-0.144	0.048
-277.443	473.287	0.134	0.304
-276.428	-200.000	-0.002	-0.160
-275.413	-200.000	0.027	0.236
-274.399	800.000	-0.043	0.171
-273.384	122.027	0.079	0.099
-272.370	32.657	0.130	0.112
-271.355	258.248	0.243	0.421
-270.340	559.144	-0.024	-0.057
-269.326	78.346	0.172	0.184
-268.311	-200.000	0.016	0.157
-267.297	800.000	0.094	-0.319
-266.282	67.981	0.200	0.205
-265.267	72.315	0.100	-0.105
-264.253	131.449	-0.090	0.116
-263.238	148.281	-0.055	0.075
-262.224	103.631	0.123	0.145
-261.209	-200.000	0.023	0.184
-260.195	800.000	0.075	0.266
-259.180	-131.756	0.384	-0.050
-258.165	121.217	-0.236	0.295
-257.151	341.959	-0.032	0.063
-256.136	261.401	0.064	0.111
-255.122	547.472	-0.056	-0.134
-254.107	-200.000	-0.050	0.487
-253.092	148.354	0.227	-0.307
-252.078	-44.320	0.338	0.170
-251.063	126.235	0.188	-0.239
-250.049	746.613	-0.122	-0.329
-249.034	800.000	-0.032	0.123
-248.019	113.623	-0.059	-0.072
-247.005	32.193	0.264	-0.228
-245.990	800.000	0.119	-0.407
-244.976	110.197	-0.126	-0.152
-243.961	-38.543	-0.088	0.046
-242.946	124.599	0.249	-0.315
-241.932	-146.762	0.053	0.005
-240.917	21.147	-0.202	-0.165
-239.903	344.748	-0.213	-0.419
-238.888	378.513	-0.074	-0.151
-237.873	197.106	0.202	-0.309
-236.859	-74.778	0.286	0.103
-235.844	-144.871	0.358	-0.033
-234.830	774.950	-0.050	0.137
-233.815	127.070	0.046	0.058
-232.800	-66.695	-0.244	-0.097
-231.786	88.718	0.160	-0.178
-230.771	-136.117	-0.157	-0.018
-229.757	-99.871	0.228	-0.057
-228.742	-200.000	0.033	0.170
-227.727	-200.000	0.000	-0.075
-226.713	154.717	0.102	-0.141
-225.698	525.550	0.105	0.247
-224.684	-116.606	0.268	0.049
-223.669	-82.621	0.220	-0.071
-222.655	-198.108	-0.248	-0.001
-221.640	-115.893	0.210	0.039
-220.625	-76.990	-0.142	-0.050
-219.611	-1.339	-0.322	-0.228
-218.596	222.241	-0.048	0.077
-217.582	5.563	0.271	-0.200
-216.567	-138.137	-0.203	-0.023
-215.552	39.459	-0.247	-0.222
-214.538	-90.802	-0.102	0.029
-213.523	240.586	0.120	-0.201
-212.509	800.000	0.082	0.272
-211.494	-182.923	0.142	-0.003
-210.479	-119.475	0.251	0.044
-209.465	98.318	0.213	0.245
-208.450	-200.000	-0.014	0.144
-207.436	-69.897	-0.287	0.109
-206.421	-170.290	0.294	-0.010
-205.406	269.199	0.133	0.233
-204.392	-200.000	-0.118	-0.521
-203.377	-153.596	-0.501	0.035
-202.363	-81.394	0.107	0.035
-201.348	-60.037	0.217	0.093
-200.333	-200.000	0.023	0.216
-199.319	135.339	0.139	-0.182
-198.304	-200.000	-0.004	-0.353
-197.290	-46.713	-0.275	-0.135
-196.275	29.296	0.319	0.271
-195.260	-120.628	0.165	0.028
-194.246	-200.000	0.021	0.093
-193.231	-200.000	0.003	0.232
-192.217	-152.637	-0.089	-0.006
-191.202	34.371	-0.053	-0.046
-190.187	-200.000	-0.008	-0.053
-189.173	96.480	0.150	0.172
-188.158	-200.000	0.032	-0.201
-187.144	-112.700	0.385	-0.077
-186.129	48.723	0.229	-0.215
-185.114	103.692	0.162	0.191
-184.100	-129.530	-0.277	-0.038
-183.085	723.281	0.157	-0.418
-182.071	398.973	-0.031	-0.064
-181.056	-140.209	-0.139	0.015
-180.042	163.668	0.118	-0.166
-179.027	-81.721	0.171	0.056
-178.012	-175.665	-0.083	0.002
-176.998	10.100	0.088	-0.067
-175.983	59.834	0.057	0.056
-174.969	-139.289	0.200	0.022
-173.954	166.609	0.358	0.508
-172.939	-19.357	-0.283	0.175
-171.925	800.000	-0.085	0.360
-170.910	179.895	0.089	0.130
-169.896	-79.351	-0.079	0.027
-168.881	-21.859	-0.187	0.114
-167.866	3.438	0.205	-0.149
-166.852	716.269	-0.016	-0.042
-165.837	190.630	-0.155	0.234
-164.823	-200.000	-0.007	0.301
-163.808	800.000	0.083	-0.235
-162.793	-200.000	-0.017	-0.308
-161.779	-200.000	0.037	0.215
-160.764	800.000	0.083	0.316
-159.750	-137.170	-0.378	-0.043
-158.735	-179.370	0.263	-0.006
-157.720	-35.778	-0.153	0.083
-156.706	118.928	0.025	0.031
-155.691	-60.287	0.290	-0.123
-154.677	-123.089	-0.043	-0.007
-153.662	-200.000	-0.085	0.405
-152.647	387.064	-0.039	0.081
-151.633	147.486	0.134	0.180
-150.618	-200.000	0.016	-0.228
-149.604	-145.693	-0.255	-0.023
-148.589	-69.942	0.121	0.046
-147.574	800.000	-0.088	-0.287
-146.560	81.553	-0.079	-0.085
-145.545	526.345	0.132	0.310
-144.531	66.690	0.092	0.094
-143.516	230.583	0.141	-0.231
-142.502	-8.273	-0.321	-0.216
-141.487	-200.000	0.020	-0.289
-140.472	-55.815	-0.551	0.246
-139.458	-200.000	-0.002	0.106
-138.443	-4.195	0.309	0.213
-137.429	-168.013	-0.138	0.005
-136.414	171.540	-0.240	0.344
-135.399	-170.706	0.276	0.010
-134.385	445.315	-0.159	-0.350
-133.370	-1.108	-0.131	0.092
-132.356	-105.429	-0.019	0.004
-131.341	28.319	0.151	-0.127
-130.326	88.847	0.190	-0.211
-129.312	-171.909	0.397	-0.013
-128.297	-75.956	0.343	0.121
-127.283	270.049	-0.132	-0.232
-126.268	-85.945	0.279	0.086
-125.253	137.067	-0.226	-0.294
-124.239	562.359	-0.082	-0.197
-123.224	312.572	-0.053	-0.099
-122.210	-152.003	-0.174	-0.013
-121.195	-130.878	0.321	0.043
-120.180	-200.000	-0.018	-0.246
-119.166	71.245	0.050	-0.052
-118.151	65.390	-0.238	0.241
-117.137	-200.000	0.019	0.145
-116.122	26.605	-0.195	0.163
-115.107	233.882	-0.169	-0.277
-114.093	-155.659	-0.452	0.029
-113.078	663.100	0.066	-0.170
-112.064	575.186	0.065	-0.158
-111.049	-143.073	0.291	-0.028
-110.034	-200.000	-0.011	-0.053
-109.020	756.413	0.089	0.241
-108.005	-40.111	-0.206	-0.107
-106.991	-95.653	0.282	-0.075
-105.976	-200.000	0.003	-0.061
-104.962	-68.969	-0.282	0.108
-103.947	800.000	0.058	-0.170
-102.932	500.558	0.035	0.081
-101.918	128.037	0.146	0.185
-100.903	4.230	0.176	0.129
-99.889	800.000	0.039	-0.139
-98.874	-87.314	-0.258	-0.078
-97.859	119.279	0.184	0.227
-96.845	378.247	-0.058	-0.119
-95.830	800.000	-0.045	-0.183
-94.816	-200.000	0.005	-0.049
-93.801	-102.780	0.230	0.055
-92.786	142.978	0.190	0.252
-91.772	7.515	-0.170	0.127
-90.757	265.861	-0.077	0.134
-89.743	171.306	-0.065	0.093
-88.728	15.888	-0.223	-0.175
-87.713	-73.451	-0.246	0.090
-86.699	612.608	-0.017	0.042
-85.684	-200.000	-0.057	0.301
-84.670	-200.000	0.055	0.267
-83.655	315.083	-0.250	-0.470
-82.640	-41.842	-0.306	-0.156
-81.626	-68.063	-0.088	-0.034
-80.611	-200.000	-0.021	0.293
-79.597	800.000	0.054	-0.197
-78.582	259.067	-0.071	-0.123
-77.567	-65.571	0.362	0.145
-76.553	-24.940	-0.334	0.198
-75.538	8.605	-0.077	-0.058
-74.524	800.000	-0.032	0.106
-73.509	-200.000	0.040	-0.444
-72.494	-26.786	-0.119	-0.069
-71.480	143.592	0.050	-0.067
-70.465	347.664	-0.108	0.211
-69.451	800.000	0.015	0.052
-68.436	-136.811	0.345	0.040
-67.422	-7.129	-0.185	0.125
-66.407	-200.000	-0.017	-0.219
-65.392	800.000	-0.069	0.249
-64.378	5.988	0.324	0.239
-63.363	800.000	-0.032	-0.100
-62.349	15.472	0.102	-0.080
-61.334	131.769	-0.748	-0.959
-60.319	-51.463	0.333	0.155
-59.305	800.000	-0.163	-0.460
-58.290	163.694	0.442	0.619
-57.276	491.857	0.652	1.486
-56.261	-200.000	76.926	507.044
-55.246	493.880	1352.501	3089.440
-54.232	144.176	2586.711	3435.879
-53.217	114.254	2240.358	2714.600
-52.203	51.169	1687.486	1593.700
-51.188	43.457	1413.968	1286.478
-50.173	39.949	1368.377	1223.275
-49.159	58.114	1404.432	1369.449
-48.144	64.351	1423.369	1426.816
-47.130	43.921	1385.967	1263.697
-46.115	39.941	1369.647	1224.168
-45.100	39.615	1365.100	1218.040
-44.086	39.617	1362.417	1215.610
-43.071	39.575	1360.183	1213.310
-42.057	39.540	1358.096	1211.184
-41.042	39.589	1356.331	1209.867
-40.027	39.711	1354.629	1209.048
-39.013	39.767	1352.039	1207.027
-37.998	39.751	1350.562	1205.563
-36.984	39.688	1349.207	1203.922
-35.969	39.729	1347.483	1202.588
-34.954	39.811	1345.406	1201.187
-33.940	39.904	1343.841	1200.303
-32.925	39.811	1343.012	1198.950
-31.911	39.846	1341.455	1197.728
-30.896	39.922	1339.420	1196.326
-29.881	39.962	1337.921	1195.182
-28.867	39.900	1336.574	1193.553
-27.852	39.836	1335.559	1192.216
-26.838	39.935	1333.770	1191.165
-25.823	39.904	1332.521	1189.818
-24.809	39.835	1331.299	1188.260
-23.794	39.771	1330.214	1186.861
-22.779	39.928	1328.078	1185.853
-21.765	39.958	1326.579	1184.644
-20.750	39.933	1325.314	1183.319
-19.736	39.830	1323.693	1181.211
-18.721	39.677	1322.930	1179.565
-17.706	39.723	1321.766	1178.760
-16.692	39.769	1320.341	1177.714
-15.677	39.772	1319.300	1176.758
-14.663	39.863	1317.912	1176.014
-13.648	39.836	1316.617	1174.651
-12.633	39.676	1315.980	1173.084
-11.619	39.739	1314.892	1172.445
-10.604	39.758	1313.962	1171.682
-9.590	39.718	1313.536	1171.014
-8.575	39.712	1312.098	1169.651
-7.560	39.698	1311.316	1168.826
-6.546	39.591	1310.689	1167.584
-5.531	39.783	1309.435	1167.558
-4.517	39.711	1308.877	1166.592
-3.502	39.752	1307.733	1165.767
-2.487	39.798	1306.471	1164.863
-1.473	39.834	1302.785	1161.748
-0.458	39.027	1288.113	1143.919
0.556	35.577	1268.853	1104.333
1.571	31.802	1272.919	1085.952
2.586	30.511	1288.734	1091.764
3.600	28.878	1276.700	1071.964
4.615	20.521	1197.162	959.180
5.629	8.112	1112.337	827.122
6.644	2.442	1087.744	779.935
7.659	1.964	1085.133	775.563
8.673	1.841	1083.701	773.847
9.688	1.675	1082.606	772.151
10.702	2.095	1081.387	773.344
11.717	9.112	1091.992	816.652
12.731	20.241	1108.402	886.005
13.746	25.036	1114.055	914.994
14.761	25.388	1113.692	916.415
15.775	25.229	1113.517	915.379
16.790	25.237	1112.472	914.480
17.804	25.057	1111.818	912.943
18.819	25.191	1111.667	913.420
19.834	25.249	1110.928	913.026
20.848	25.321	1110.274	912.774
21.863	25.277	1109.749	912.040
22.877	25.175	1109.233	911.019
23.892	25.066	1108.616	909.877
24.907	25.287	1107.664	910.135
25.921	25.214	1106.216	908.494
26.936	25.199	1105.195	907.500
27.950	25.115	1103.772	905.827
28.965	25.025	1101.764	903.648
29.980	25.211	1100.565	903.518
30.994	25.353	1099.614	903.370
32.009	25.272	1098.507	901.974
33.023	25.186	1097.102	900.313
34.038	25.120	1096.739	899.602
35.053	25.145	1096.439	899.404
36.067	25.245	1095.077	898.705
37.082	25.157	1094.932	898.068
38.096	25.299	1094.351	898.219
39.111	25.456	1093.193	897.976
40.126	25.329	1091.700	896.035
41.140	24.983	1089.923	892.776
42.155	24.762	1088.453	890.389
43.169	24.893	1087.526	890.208
44.184	24.880	1086.597	889.304
45.199	24.820	1085.951	888.397
46.213	24.709	1084.986	886.981
47.228	24.992	1084.218	887.676
48.242	25.032	1083.731	887.398
49.257	25.192	1082.519	887.117
50.271	25.367	1081.660	887.197
51.286	25.244	1081.624	886.484
52.301	25.269	1080.300	885.440
53.315	25.238	1079.198	884.307
54.330	25.087	1078.238	882.697
55.344	25.139	1077.892	882.593
56.359	25.093	1076.904	881.483
57.374	24.923	1075.624	879.519
58.388	24.947	1075.143	879.166
59.403	24.944	1073.839	878.006
60.417	24.758	1073.268	876.551
61.432	24.764	1072.542	875.910
62.447	24.882	1071.963	875.940
63.461	25.046	1071.205	876.045
64.476	24.955	1070.004	874.539
65.490	24.865	1069.239	873.395
66.505	24.820	1068.605	872.583
67.520	24.949	1067.591	872.308
68.534	24.700	1066.635	870.235
69.549	24.488	1065.476	868.185
70.563	24.550	1064.664	867.743
71.578	24.368	1064.051	866.285
72.593	24.183	1063.057	864.502
73.607	24.347	1062.561	864.815
74.622	24.677	1062.162	866.016
75.636	24.647	1061.695	865.414
76.651	24.606	1060.502	864.164
77.666	24.530	1060.161	863.443
78.680	24.566	1059.137	862.705
79.695	24.707	1058.575	862.852
80.709	24.831	1058.001	862.908
81.724	24.665	1056.918	861.145
82.739	24.816	1056.376	861.354
83.753	25.216	1055.935	862.847
84.768	25.489	1054.773	863.132
85.782	25.454	1054.451	862.623
86.797	25.496	1052.722	861.332
87.812	25.276	1052.038	859.642
88.826	25.317	1051.293	859.156
89.841	25.557	1050.105	859.254
90.855	25.405	1049.521	857.976
91.870	25.412	1048.389	857.006
92.884	25.282	1047.130	855.283
93.899	25.177	1046.205	853.950
94.914	25.382	1045.465	854.248
95.928	25.197	1044.192	852.253
96.943	25.092	1042.968	850.681
97.957	24.950	1041.492	848.729
98.972	24.678	1040.619	846.653
99.987	24.934	1040.332	847.557
101.001	25.191	1039.315	847.867
102.016	25.088	1038.528	846.663
103.030	25.014	1037.621	845.501
104.045	24.819	1036.839	843.871
105.060	24.797	1035.344	842.475
106.074	24.963	1034.743	842.691
107.089	25.249	1034.496	843.762
108.103	25.061	1033.223	841.766
109.118	24.764	1032.179	839.446
110.133	24.867	1031.149	839.020
111.147	24.693	1029.779	837.017
112.162	24.566	1028.809	835.558
113.176	24.848	1028.360	836.437
114.191	24.760	1027.651	835.375
115.206	24.467	1026.419	832.936
116.220	24.483	1025.598	832.270
117.235	24.509	1024.752	831.631
118.249	24.548	1023.884	831.032
119.264	24.471	1023.014	829.896
120.279	24.502	1022.929	829.898
121.293	24.657	1021.451	829.342
122.308	24.561	1020.811	828.307
123.322	24.359	1019.495	826.226
124.337	24.425	1017.827	825.111
125.352	23.957	1016.610	821.890
126.366	23.756	1015.858	820.279
127.381	24.597	1015.851	824.084
128.395	25.047	1015.645	825.916
129.410	25.117	1014.783	825.463
130.424	25.226	1013.252	824.646
131.439	24.996	1012.935	823.259
132.454	25.155	1011.644	822.867
133.468	24.896	1011.139	821.198
134.483	25.166	1010.216	821.611
135.497	25.263	1009.698	821.561
136.512	25.328	1008.575	820.874
137.527	25.342	1007.910	820.322
138.541	25.325	1007.018	819.445
139.556	25.478	1005.829	819.102
140.570	25.385	1005.447	818.297
141.585	25.561	1004.469	818.226
142.600	25.361	1003.136	816.162
143.614	25.544	1002.515	816.414
144.629	25.802	1001.507	816.693
145.643	25.548	1000.754	814.856
146.658	25.321	998.711	812.091
147.673	25.278	998.072	811.306
148.687	25.128	997.025	809.709
149.702	25.197	995.954	809.074
150.716	25.019	995.280	807.654
151.731	25.251	994.422	807.931
152.746	25.471	994.309	808.761
153.760	25.443	993.427	807.846
154.775	25.577	992.576	807.684
155.789	25.530	991.778	806.750
156.804	25.418	990.647	805.259
157.819	25.480	990.023	804.957
158.833	25.532	989.352	804.571
159.848	25.664	988.213	804.166
160.862	25.571	987.003	802.693
161.877	25.467	985.907	801.267
162.892	25.563	984.708	800.649
163.906	25.622	983.548	799.897
164.921	25.493	982.878	798.710
165.935	25.545	981.955	798.121
166.950	25.621	980.767	797.421
167.964	25.572	980.036	796.536
168.979	25.375	979.271	794.976
169.994	25.426	978.108	794.186
171.008	25.512	978.053	794.451
172.023	25.450	977.734	793.849
173.037	25.336	976.174	792.008
174.052	25.274	975.058	790.757
175.067	25.117	974.383	789.452
176.081	25.201	974.421	789.781
177.096	25.232	973.376	789.001
178.110	25.049	972.380	787.318
179.125	24.815	971.329	785.372
180.140	24.879	971.426	785.664
181.154	25.085	970.780	785.973
182.169	25.334	970.693	786.926
183.183	25.559	970.209	787.447
184.198	25.403	969.470	786.096
185.213	25.271	968.678	784.807
186.227	25.497	967.954	785.139
187.242	25.407	967.354	784.191
188.256	25.565	966.829	784.381
189.271	25.690	965.674	783.923
190.286	25.315	964.523	781.288
191.300	24.671	962.994	777.180
192.315	23.761	961.561	772.000
193.329	23.811	960.993	771.694
194.344	24.684	961.384	775.729
195.359	25.292	961.665	778.524
196.373	25.364	961.239	778.426
197.388	25.295	960.562	777.509
198.402	25.408	959.489	777.058
199.417	25.397	958.879	776.452
200.432	25.238	957.553	774.619
201.446	25.033	957.145	773.336
202.461	25.138	956.321	773.059
203.475	24.354	954.809	768.391
204.490	23.542	952.800	763.216
205.504	24.340	953.818	767.395
206.519	24.961	953.562	769.791
207.534	25.008	953.257	769.681
208.548	25.350	953.270	771.090
209.563	25.231	952.288	769.720
210.577	25.165	951.468	768.706
211.592	25.552	951.206	770.084
212.607	25.501	950.366	769.115
213.621	25.566	949.941	768.982
214.636	25.558	949.137	768.230
215.650	25.436	948.324	766.985
216.665	25.514	948.034	767.015
217.680	25.615	946.753	766.340
218.694	25.206	945.811	763.769
219.709	24.883	945.075	761.730
220.723	25.294	944.722	763.129
221.738	25.266	944.428	762.704
222.753	25.271	943.783	762.138
223.767	25.367	943.395	762.161
224.782	25.670	942.502	762.659
225.796	25.644	942.252	762.280
226.811	25.138	940.596	758.730
227.826	24.296	939.305	754.065
228.840	24.538	938.857	754.660
229.855	24.694	938.042	754.596
230.869	24.187	937.181	751.697
231.884	24.538	937.293	753.201
232.899	25.413	937.318	756.843
233.913	25.182	936.907	755.474
234.928	25.085	936.014	754.280
235.942	25.132	935.441	753.946
236.957	24.869	934.300	751.855
237.972	24.911	933.625	751.422
238.986	25.029	933.075	751.408
240.001	25.151	932.481	751.375
241.015	25.093	932.235	750.867
242.030	25.387	931.058	751.081
243.045	25.551	930.791	751.484
244.059	25.413	930.939	750.963
245.074	25.421	929.436	749.716
246.088	24.970	928.868	747.309
247.103	25.279	928.272	748.052
248.117	25.795	928.616	750.414
249.132	25.889	928.341	750.519
250.147	26.112	927.727	750.884
251.161	26.212	927.431	750.993
252.176	26.196	926.566	750.159
253.190	26.358	926.172	750.444
254.205	26.470	925.554	750.342
255.220	26.315	925.160	749.316
256.234	26.279	923.994	748.154
257.249	26.148	923.359	747.032
258.263	26.196	922.766	746.687
259.278	26.339	921.842	746.463
260.293	26.325	921.573	746.121
261.307	26.260	920.940	745.276
262.322	26.179	919.602	743.792
263.336	25.349	917.804	738.857
264.351	24.270	915.994	732.904
265.366	24.300	915.798	732.803
266.380	25.398	916.672	737.953
267.395	25.923	916.390	739.816
268.409	25.815	915.396	738.504
269.424	25.975	914.808	738.621
270.439	26.079	914.330	738.595
271.453	26.122	913.780	738.259
272.468	26.374	913.373	738.896
273.482	26.367	913.284	738.731
274.497	25.855	911.443	735.087
275.512	25.538	910.949	733.332
276.526	25.964	910.953	735.006
277.541	26.095	910.622	735.208
278.555	26.014	909.441	733.859
279.570	25.740	908.777	732.144
280.585	25.973	908.020	732.416
281.599	25.906	906.983	731.245
282.614	25.306	905.585	727.620
283.628	25.343	905.507	727.644
284.643	25.684	905.131	728.659
285.657	25.280	904.271	726.269
286.672	25.021	902.900	724.058
287.687	25.615	902.880	726.375
288.701	25.757	902.433	726.524
289.716	25.359	901.686	724.252
290.730	25.299	900.689	723.147
291.745	25.008	899.796	721.195
292.760	25.328	900.050	722.624
293.774	26.298	900.478	726.807
294.789	26.564	900.400	727.748
295.803	26.657	899.629	727.433
296.818	26.608	898.984	726.654
297.833	26.212	897.407	723.726
298.847	26.013	896.824	722.395
299.862	26.372	896.871	723.807
300.876	26.598	896.751	724.553
301.891	26.621	895.782	723.794
302.906	26.125	894.558	720.763
303.920	26.192	894.442	720.871
304.935	26.675	893.997	722.376
305.949	26.436	893.144	720.673
306.964	26.202	892.658	719.285
307.979	26.296	892.264	719.276
308.993	26.804	892.034	721.047
310.008	26.757	891.351	720.246
311.022	26.407	890.733	718.294
312.037	26.326	889.753	717.116
313.052	26.073	888.919	715.379
314.066	25.226	887.356	710.703
315.081	24.849	886.384	708.372
316.095	25.711	886.574	711.870
317.110	26.130	886.796	713.643
318.125	25.424	885.013	709.360
319.139	24.418	883.227	703.897
320.154	24.228	883.586	703.370
321.168	25.231	883.692	707.350
322.183	25.830	883.961	709.864
323.197	26.207	883.251	710.715
324.212	26.291	882.960	710.750
325.227	26.429	882.200	710.615
326.241	26.119	881.844	709.051
327.256	26.172	881.263	708.727
328.270	26.133	880.116	707.589
329.285	25.877	879.102	705.708
330.300	25.656	878.336	704.167
331.314	25.892	878.121	704.854
332.329	26.345	878.267	706.684
333.343	26.466	877.873	706.775
334.358	26.457	877.442	706.331
335.373	26.484	877.030	706.039
336.387	26.789	877.202	707.308
337.402	26.931	876.966	707.609
338.416	26.690	876.618	706.324
339.431	26.747	876.433	706.335
340.446	27.169	875.848	707.445
341.460	27.075	874.937	706.281
342.475	26.891	874.765	705.365
343.489	26.927	874.138	704.937
344.504	27.106	873.961	705.426
345.519	27.434	873.424	706.203
346.533	27.308	873.275	705.533
347.548	27.275	872.691	704.868
348.562	27.238	871.902	704.026
349.577	27.127	871.341	703.082
350.592	27.225	870.466	702.692
351.606	27.127	870.025	701.895
352.621	26.970	868.935	700.348
353.635	27.015	868.145	699.822
354.650	26.411	866.341	695.984
355.665	25.412	864.968	690.977
356.679	25.910	864.823	692.715
357.694	26.264	864.777	693.977
358.708	26.202	864.085	693.122
359.723	26.543	863.948	694.258
360.738	26.934	863.788	695.569
361.752	26.893	863.470	695.095
362.767	27.386	862.698	696.299
363.781	27.606	862.508	696.924
364.796	27.710	862.035	696.878
365.810	27.570	861.852	696.132
366.825	27.592	861.220	695.645
367.840	27.326	860.439	693.937
368.854	26.904	859.620	691.609
369.869	26.880	859.177	691.100
370.883	27.057	858.734	691.354
371.898	26.741	857.914	689.433
372.913	26.945	857.886	690.124
373.927	27.124	857.335	690.302
374.942	27.274	856.846	690.415
375.956	27.436	856.536	690.717
376.971	27.265	856.580	690.045
377.986	27.621	855.922	690.802
379.000	27.454	855.200	689.527
380.015	27.377	854.093	688.280
381.029	27.438	853.849	688.254
382.044	27.589	853.326	688.341
383.059	27.656	852.928	688.212
384.073	27.667	852.406	687.771
385.088	27.609	851.393	686.675
386.102	27.385	850.560	685.103
387.117	27.360	850.081	684.561
388.132	27.069	848.717	682.310
389.146	26.465	848.275	679.624
390.161	26.738	848.401	680.692
391.175	27.231	848.371	682.457
392.190	26.948	847.010	680.243
393.205	25.612	844.873	673.466
394.219	24.234	842.745	666.562
395.234	24.076	842.404	665.641
396.248	25.465	844.253	672.242
397.263	26.983	845.345	678.733
398.278	26.986	844.708	678.172
399.292	26.842	843.760	676.816
400.307	26.799	843.312	676.236
401.321	27.037	842.782	676.638
402.336	27.371	842.877	677.899
403.350	27.603	843.098	678.880
404.365	27.940	842.902	679.919
405.380	28.293	842.374	680.744
406.394	28.447	841.733	680.737
407.409	28.236	841.189	679.453
408.423	28.064	841.187	678.753
409.438	28.103	841.160	678.816
410.453	28.399	840.292	679.155
411.467	28.246	839.417	677.820
412.482	28.112	839.682	677.476
413.496	28.420	838.584	677.671
414.511	28.282	838.455	676.997
415.526	28.348	837.913	676.741
416.540	28.116	837.041	675.123
417.555	28.048	836.073	674.031
418.569	28.082	835.757	673.842
419.584	27.823	835.652	672.742
420.599	27.813	834.745	671.917
421.613	96.189	1270.701	1387.810
422.628	83.295	1334.243	1387.957
