DTS Sentinel unit serial number:	SN413079Multiplexer serial number:	ORYXHardware model number:	OX4-SRSoftware version number:	ORYX F/W v4.00 Oryx Data Collector v3.7.2.0data status	okinstallation	princeton_trtdifferential loss correction	single-endedforward channel	channel 1reverse channel	N/Adate	2019/09/11time	11:24:11forward acquisition time	60.00reverse acquisition time	0.00gamma	496.2192k internal	0.2296k external	0.2296temperature offset calibration	0.9951default loss term (dB/km)	0.3790temperature slope calibration	1.0000multiplexer offset coefficient	1.0000multiplexer slope coefficient	1.0000fibre end	0.00T internal ref (°C)	37.86T ext. ref 1 (°C)	0.17T ext. ref 2 (°C)	35.53length (m)	temperature (°C)	Stokes	anti-Stokes-747.200	-52.903	-0.254	0.119
-746.185	-58.646	-0.123	-0.055
-745.171	90.350	0.247	0.283
-744.156	487.088	-0.111	0.259
-743.142	225.837	-0.132	0.219
-742.127	18.670	-0.133	0.108
-741.112	-200.000	0.004	-0.118
-740.098	800.000	-0.105	0.381
-739.083	-34.029	0.270	-0.152
-738.069	-149.865	-0.259	-0.021
-737.054	-53.828	-0.032	0.015
-736.039	0.155	-0.235	-0.171
-735.025	-119.917	0.302	-0.053
-734.010	-10.308	-0.346	-0.235
-732.996	3.334	-0.177	-0.132
-731.981	-129.171	0.126	0.018
-730.966	268.546	0.149	-0.266
-729.952	-200.000	-0.021	-0.203
-728.937	-82.106	-0.198	0.066
-727.923	764.376	-0.088	0.245
-726.908	-200.000	0.004	0.128
-725.894	800.000	-0.086	-0.285
-724.879	-73.449	-0.110	-0.041
-723.864	800.000	0.061	-0.194
-722.850	-42.771	-0.252	-0.131
-721.835	81.754	-0.113	0.125
-720.821	5.543	0.071	-0.053
-719.806	34.186	-0.149	-0.132
-718.791	800.000	0.037	-0.147
-717.777	3.415	-0.246	0.183
-716.762	404.793	-0.091	0.196
-715.748	40.173	0.069	-0.064
-714.733	800.000	-0.154	-0.478
-713.718	-151.309	-0.059	-0.005
-712.704	-200.000	-0.027	0.180
-711.689	478.007	-0.149	-0.344
-710.675	-160.372	-0.143	-0.008
-709.660	55.987	-0.074	-0.074
-708.645	-43.748	-0.519	0.267
-707.631	-103.686	0.189	-0.045
-706.616	63.706	-0.020	0.021
-705.602	54.968	0.155	-0.153
-704.587	-200.000	0.037	-0.213
-703.572	800.000	-0.107	-0.443
-702.558	-75.060	0.504	-0.184
-701.543	-200.000	0.076	-0.433
-700.529	-81.210	-0.174	0.059
-699.514	89.745	-0.172	-0.196
-698.499	-44.872	0.335	0.170
-697.485	-127.805	-0.215	0.032
-696.470	-67.701	-0.250	0.100
-695.456	-34.805	0.187	-0.104
-694.441	-191.333	0.260	0.003
-693.426	291.170	0.015	0.028
-692.412	-35.496	0.230	0.128
-691.397	-113.024	0.298	0.060
-690.383	109.507	-0.201	0.246
-689.368	380.606	0.090	0.187
-688.354	-200.000	-0.032	0.229
-687.339	-128.259	-0.251	0.036
-686.324	800.000	0.028	-0.095
-685.310	800.000	-0.056	-0.248
-684.295	49.360	-0.203	-0.194
-683.281	-71.382	-0.131	0.050
-682.266	-86.894	0.359	0.112
-681.251	177.126	-0.077	0.115
-680.237	471.534	-0.123	-0.282
-679.222	800.000	0.054	0.176
-678.208	-200.000	-0.002	0.292
-677.193	-140.984	-0.153	-0.016
-676.178	189.569	-0.207	-0.316
-675.164	-39.023	0.135	-0.073
-674.149	-59.593	0.142	0.062
-673.135	102.366	-0.051	0.060
-672.120	52.294	0.172	-0.167
-671.105	-19.415	-0.244	-0.154
-670.091	-11.642	0.283	0.190
-669.076	-57.662	0.243	0.109
-668.062	166.919	0.145	-0.209
-667.047	-55.461	-0.476	0.217
-666.032	-43.623	-0.180	0.092
-665.018	-171.872	-0.186	0.006
-664.003	96.202	-0.084	0.098
-662.989	107.702	-0.043	0.053
-661.974	49.816	0.140	-0.134
-660.959	753.944	-0.153	-0.420
-659.945	306.423	-0.178	-0.337
-658.930	59.593	-0.074	0.074
-657.916	800.000	-0.025	0.075
-656.901	-131.942	-0.243	-0.032
-655.886	-80.685	0.057	0.019
-654.872	800.000	0.050	-0.190
-653.857	102.894	-0.242	-0.288
-652.843	-200.000	-0.053	0.269
-651.828	143.425	-0.048	-0.065
-650.814	-102.018	0.372	0.091
-649.799	-200.000	-0.002	0.180
-648.784	80.459	-0.151	0.166
-647.770	-29.789	0.111	-0.064
-646.755	-91.170	0.413	-0.120
-645.741	-91.637	-0.147	0.043
-644.726	-43.431	-0.049	-0.025
-643.711	800.000	-0.078	-0.296
-642.697	71.987	0.186	0.197
-641.682	15.853	-0.184	-0.147
-640.668	36.078	0.058	-0.052
-639.653	-120.029	-0.356	0.062
-638.638	800.000	-0.054	-0.235
-637.624	-69.713	-0.099	0.039
-636.609	-60.506	0.125	-0.054
-635.595	45.797	-0.301	-0.284
-634.580	-200.000	-0.005	0.026
-633.565	74.970	0.189	-0.203
-632.551	124.930	-0.124	-0.159
-631.536	-200.000	-0.033	0.349
-630.522	134.417	0.064	0.084
-629.507	104.719	-0.092	-0.110
-628.492	-90.913	0.152	-0.044
-627.478	800.000	-0.065	-0.221
-626.463	4.063	-0.093	0.069
-625.449	80.245	-0.057	0.063
-624.434	-120.481	-0.062	0.011
-623.419	37.155	-0.300	0.270
-622.405	15.222	-0.154	0.123
-621.390	-22.583	0.228	-0.140
-620.376	800.000	0.040	-0.162
-619.361	-115.287	-0.227	-0.044
-618.346	-12.504	-0.080	-0.053
-617.332	800.000	-0.037	0.152
-616.317	796.781	0.052	0.146
-615.303	-37.727	-0.148	0.080
-614.288	-80.364	-0.200	0.068
-613.273	-82.371	-0.217	-0.072
-612.259	458.495	-0.083	0.188
-611.244	-127.262	0.181	-0.027
-610.230	-135.718	-0.487	-0.059
-609.215	-40.112	-0.293	-0.155
-608.201	224.774	0.015	0.024
-607.186	-39.177	0.170	0.091
-606.171	-19.754	0.240	0.151
-605.157	-142.698	-0.225	0.022
-604.142	800.000	-0.026	-0.081
-603.128	-26.598	-0.285	-0.170
-602.113	-144.714	-0.336	0.031
-601.098	-37.222	0.227	0.123
-600.084	-152.150	-0.331	-0.024
-599.069	149.570	-0.057	0.078
-598.055	-37.975	-0.192	0.104
-597.040	-22.936	0.070	0.043
-596.025	191.926	0.236	-0.362
-595.011	-39.963	0.205	0.109
-593.996	6.101	-0.215	0.162
-592.982	-200.000	-0.009	-0.066
-591.967	-200.000	-0.010	-0.048
-590.952	-200.000	-0.042	0.199
-589.938	-52.669	0.085	-0.040
-588.923	65.355	-0.098	-0.100
-587.909	-73.913	-0.193	-0.071
-586.894	-96.626	0.131	-0.035
-585.879	171.278	-0.152	0.221
-584.865	-200.000	0.011	0.152
-583.850	280.749	0.113	-0.204
-582.836	800.000	-0.103	0.312
-581.821	346.882	-0.137	-0.274
-580.806	34.243	-0.170	-0.150
-579.792	-32.998	0.122	0.069
-578.777	-136.444	-0.047	0.006
-577.763	-200.000	0.091	-0.559
-576.748	800.000	-0.012	-0.033
-575.733	-114.868	0.095	0.018
-574.719	91.125	0.138	0.157
-573.704	657.554	-0.134	0.350
-572.690	-14.428	-0.168	-0.110
-571.675	132.459	-0.274	0.359
-570.661	-200.000	-0.096	0.475
-569.646	-156.258	0.052	-0.003
-568.631	-163.999	-0.221	0.010
-567.617	166.328	0.226	-0.325
-566.602	-200.000	-0.019	0.116
-565.588	-200.000	-0.029	-0.298
-564.573	15.638	-0.107	-0.085
-563.558	737.133	0.034	0.093
-562.544	197.598	-0.126	0.195
-561.529	-200.000	-0.025	-0.199
-560.515	-136.578	-0.101	-0.012
-559.500	458.643	-0.106	-0.240
-558.485	47.260	0.119	0.112
-557.471	-105.815	-0.133	0.031
-556.456	40.205	0.236	0.215
-555.442	-200.000	-0.039	0.384
-554.427	-85.174	-0.161	-0.051
-553.412	-57.257	-0.401	0.179
-552.398	-200.000	-0.032	0.239
-551.383	21.519	-0.395	-0.326
-550.369	-135.389	0.190	0.023
-549.354	5.398	-0.161	-0.121
-548.339	800.000	-0.083	-0.340
-547.325	33.325	-0.366	-0.322
-546.310	537.185	0.034	0.082
-545.296	219.924	-0.214	-0.347
-544.281	137.582	-0.186	-0.246
-543.266	-116.366	0.236	0.044
-542.252	465.803	-0.078	-0.177
-541.237	246.079	0.132	-0.225
-540.223	-200.000	-0.032	-0.252
-539.208	65.638	-0.067	-0.069
-538.193	153.017	-0.094	-0.130
-537.179	-9.855	0.190	0.128
-536.164	-168.885	0.231	0.009
-535.150	-185.573	0.091	-0.001
-534.135	-200.000	-0.023	0.267
-533.121	800.000	-0.033	-0.122
-532.106	-200.000	-0.009	-0.122
-531.091	-115.134	0.119	-0.023
-530.077	133.150	0.190	0.249
-529.062	-200.000	0.017	0.168
-528.048	20.246	0.107	0.088
-527.033	-160.347	0.135	-0.007
-526.018	-39.592	0.296	-0.157
-525.004	21.695	-0.063	0.052
-523.989	-63.223	-0.146	0.061
-522.975	134.199	-0.088	-0.115
-521.960	-68.993	0.141	0.055
-520.945	800.000	0.103	-0.376
-519.931	15.216	0.078	0.062
-518.916	800.000	0.096	0.317
-517.902	-170.750	-0.256	0.009
-516.887	-93.157	-0.074	-0.021
-515.872	447.901	-0.019	0.043
-514.858	6.872	0.168	-0.127
-513.843	-46.175	0.277	-0.138
-512.829	-200.000	0.025	-0.140
-511.814	-1.307	-0.269	0.192
-510.799	-25.943	0.091	-0.054
-509.785	14.471	0.235	0.185
-508.770	-68.140	-0.355	-0.140
-507.756	-2.870	-0.133	0.094
-506.741	-175.606	0.301	0.008
-505.726	77.263	0.200	0.215
-504.712	177.487	-0.192	0.283
-503.697	504.750	-0.169	-0.397
-502.683	-200.000	0.012	0.118
-501.668	59.258	-0.184	-0.183
-500.653	-200.000	-0.009	-0.461
-499.639	-25.898	0.360	-0.215
-498.624	210.074	-0.062	-0.099
-497.610	-200.000	0.005	-0.295
-496.595	27.654	-0.090	0.077
-495.581	-3.156	-0.243	-0.172
-494.566	800.000	0.083	0.243
-493.551	800.000	-0.037	-0.145
-492.537	6.499	-0.104	0.078
-491.522	-109.110	0.288	-0.062
-490.508	800.000	-0.024	0.095
-489.493	12.587	-0.065	0.051
-488.478	-200.000	-0.188	-0.001
-487.464	-81.176	-0.043	-0.014
-486.449	40.956	0.099	0.091
-485.435	-95.088	-0.170	-0.046
-484.420	-29.871	-0.141	0.081
-483.405	26.934	0.133	-0.113
-482.391	528.977	0.062	-0.147
-481.376	-87.877	-0.146	0.044
-480.362	-200.000	0.008	-0.056
-479.347	-149.330	0.396	-0.032
-478.332	71.300	-0.088	0.092
-477.318	87.492	-0.259	0.290
-476.303	-139.663	-0.235	0.025
-475.289	-48.137	-0.224	-0.109
-474.274	-200.000	0.012	-0.172
-473.259	138.747	-0.130	-0.172
-472.245	-200.000	0.041	-0.192
-471.230	-161.809	-0.240	0.012
-470.216	120.896	-0.092	0.116
-469.201	6.662	-0.134	-0.100
-468.186	-200.000	-0.021	-0.156
-467.172	800.000	0.039	-0.125
-466.157	800.000	0.015	0.045
-465.143	-185.726	0.226	0.003
-464.128	17.328	-0.276	0.221
-463.113	-158.398	0.030	-0.002
-462.099	98.164	0.193	-0.225
-461.084	-172.426	0.184	-0.006
-460.070	300.027	-0.115	0.215
-459.055	-89.022	0.496	-0.148
-458.040	243.155	0.097	-0.165
-457.026	2.877	0.220	0.161
-456.011	503.428	-0.073	0.170
-454.997	-200.000	0.007	-0.220
-453.982	-101.884	0.058	-0.014
-452.968	243.228	-0.221	-0.375
-451.953	120.850	-0.075	-0.095
-450.938	-29.759	-0.387	0.223
-449.924	800.000	0.106	0.382
-448.909	-200.000	0.013	0.072
-447.895	-200.000	0.030	0.361
-446.880	-159.650	-0.194	0.011
-445.865	119.328	0.035	0.044
-444.851	-56.591	0.079	-0.035
-443.836	-200.000	0.113	0.000
-442.822	-52.850	-0.302	-0.140
-441.807	438.067	0.007	0.015
-440.792	-120.543	0.074	-0.013
-439.778	-200.000	0.002	-0.163
-438.763	-69.558	-0.052	-0.020
-437.749	59.679	0.201	0.200
-436.734	530.815	-0.063	0.151
-435.719	484.282	0.069	0.160
-434.705	224.010	0.190	-0.310
-433.690	-71.266	0.403	0.153
-432.676	-24.287	0.266	-0.160
-431.661	101.313	0.236	-0.277
-430.646	-161.353	0.259	0.014
-429.632	539.577	0.061	0.146
-428.617	198.924	-0.044	0.067
-427.603	-14.894	-0.278	0.180
-426.588	-122.591	-0.250	0.041
-425.573	174.348	0.116	0.169
-424.559	-200.000	0.002	0.082
-423.544	-140.673	0.108	0.011
-422.530	-70.761	-0.100	-0.038
-421.515	108.532	-0.103	-0.124
-420.500	210.070	0.178	-0.282
-419.486	-122.381	-0.284	0.047
-418.471	-161.263	-0.442	-0.023
-417.457	-200.000	-0.052	0.236
-416.442	1.299	0.138	0.100
-415.428	800.000	-0.025	-0.075
-414.413	-194.888	-0.302	-0.002
-413.398	-200.000	0.049	0.254
-412.384	-122.580	-0.064	-0.011
-411.369	-97.618	-0.346	-0.091
-410.355	800.000	-0.020	0.062
-409.340	-200.000	-0.041	0.265
-408.325	4.317	0.167	-0.123
-407.311	-166.439	0.163	-0.007
-406.296	676.037	-0.087	-0.229
-405.282	-100.270	-0.266	-0.067
-404.267	300.135	0.037	-0.068
-403.252	281.254	0.117	0.210
-402.238	-113.734	-0.192	-0.038
-401.223	-180.033	-0.129	0.003
-400.209	-65.727	-0.228	-0.092
-399.194	108.920	-0.163	-0.197
-398.179	-40.665	-0.439	-0.230
-397.165	-53.730	0.309	0.142
-396.150	154.211	0.089	-0.123
-395.136	800.000	0.057	-0.219
-394.121	-200.000	0.029	-0.231
-393.106	-82.399	-0.087	-0.028
-392.092	146.213	0.173	0.234
-391.077	-129.777	0.317	0.044
-390.063	181.123	-0.149	-0.221
-389.048	-80.224	-0.375	-0.126
-388.033	85.071	0.217	-0.240
-387.019	-189.683	0.072	0.001
-386.004	-200.000	0.011	0.296
-384.990	15.406	0.279	-0.221
-383.975	-200.000	-0.012	-0.071
-382.960	88.884	0.206	-0.231
-381.946	-200.000	-0.034	-0.296
-380.931	262.408	-0.097	-0.169
-379.917	-200.000	0.036	-0.177
-378.902	-200.000	0.022	-0.180
-377.888	-43.316	-0.054	-0.028
-376.873	-22.227	-0.324	0.198
-375.858	121.626	-0.101	-0.126
-374.844	-200.000	-0.012	0.072
-373.829	-98.231	-0.033	0.009
-372.815	-200.000	-0.035	0.217
-371.800	517.354	0.088	0.207
-370.785	-25.737	-0.054	0.032
-369.771	-24.944	0.165	0.099
-368.756	-65.815	-0.322	0.130
-367.742	14.790	-0.143	0.113
-366.727	472.721	0.175	-0.397
-365.712	-200.000	0.012	-0.393
-364.698	-62.819	0.492	0.205
-363.683	-101.055	0.159	0.039
-362.669	-131.184	0.176	-0.024
-361.654	9.271	-0.193	-0.147
-360.639	800.000	-0.022	0.065
-359.625	26.927	-0.333	0.281
-358.610	-49.616	0.123	0.059
-357.596	285.802	0.071	0.129
-356.581	-200.000	0.027	0.189
-355.566	42.516	0.235	0.215
-354.552	-156.575	-0.025	0.002
-353.537	800.000	0.028	-0.096
-352.523	-97.205	0.166	-0.044
-351.508	-200.000	-0.008	-0.230
-350.493	-32.593	-0.307	0.172
-349.479	-150.854	0.343	0.026
-348.464	800.000	0.020	-0.069
-347.450	-64.625	-0.228	-0.093
-346.435	82.834	-0.159	-0.173
-345.420	129.815	-0.086	0.110
-344.406	-200.000	0.021	0.134
-343.391	765.759	0.127	0.346
-342.377	-200.000	-0.081	0.448
-341.362	-200.000	-0.024	0.360
-340.348	489.176	0.104	-0.239
-339.333	81.966	0.121	0.132
-338.318	-116.714	0.324	-0.060
-337.304	800.000	-0.055	-0.236
-336.289	-47.083	0.175	-0.086
-335.275	81.757	0.087	0.095
-334.260	800.000	-0.077	0.248
-333.245	800.000	0.057	0.174
-332.231	-200.000	0.003	-0.149
-331.216	5.739	0.059	-0.044
-330.202	800.000	0.127	0.358
-329.187	-126.767	0.235	-0.035
-328.172	1.433	-0.385	0.278
-327.158	95.512	0.283	0.324
-326.143	186.277	0.122	0.183
-325.129	493.756	-0.086	-0.198
-324.114	-95.011	0.391	-0.106
-323.099	116.073	0.182	-0.225
-322.085	-64.117	-0.212	0.087
-321.070	-200.000	-0.064	0.376
-320.056	-200.000	-0.002	-0.248
-319.041	11.683	0.111	0.086
-318.026	70.974	-0.163	0.169
-317.012	-142.540	0.271	0.027
-315.997	800.000	-0.046	0.162
-314.983	121.024	-0.158	-0.197
-313.968	-200.000	0.087	-0.430
-312.953	29.802	-0.153	-0.131
-311.939	-68.207	0.186	0.073
-310.924	-120.683	-0.308	-0.052
-309.910	482.878	-0.046	-0.105
-308.895	370.956	-0.073	-0.148
-307.880	-64.903	-0.159	-0.065
-306.866	198.660	0.262	-0.403
-305.851	42.403	-0.228	0.208
-304.837	-45.376	-0.192	0.096
-303.822	125.185	0.104	0.132
-302.807	-72.765	0.160	-0.059
-301.793	4.527	-0.218	0.161
-300.778	-200.000	-0.045	0.226
-299.764	44.019	-0.084	-0.077
-298.749	22.004	-0.181	0.148
-297.735	-110.640	-0.211	0.044
-296.720	-54.302	0.126	0.057
-295.705	-114.787	0.163	-0.031
-294.691	-200.000	-0.001	0.182
-293.676	800.000	-0.048	-0.138
-292.662	-200.000	-0.005	-0.290
-291.647	432.144	0.063	-0.137
-290.632	9.280	-0.123	-0.093
-289.618	-200.000	-0.020	0.170
-288.603	185.340	-0.023	0.034
-287.589	86.179	0.160	0.177
-286.574	194.929	0.121	0.185
-285.559	-200.000	0.031	0.163
-284.545	-200.000	-0.050	0.270
-283.530	0.791	0.076	0.054
-282.516	-71.931	0.162	0.060
-281.501	149.287	0.083	0.113
-280.486	142.316	0.264	0.352
-279.472	800.000	-0.058	-0.173
-278.457	303.612	0.029	0.054
-277.443	-200.000	-0.001	0.051
-276.428	-68.929	-0.159	0.062
-275.413	-62.954	0.208	0.086
-274.399	-140.199	0.205	0.022
-273.384	9.648	0.146	-0.111
-272.370	-200.000	0.001	0.307
-271.355	-200.000	0.058	-0.255
-270.340	154.420	0.028	-0.038
-269.326	-200.000	-0.042	0.317
-268.311	514.970	-0.065	0.153
-267.297	-25.277	0.226	0.134
-266.282	27.178	0.292	0.246
-265.267	-200.000	0.029	-0.178
-264.253	800.000	0.012	-0.040
-263.238	-111.766	-0.242	0.049
-262.224	173.870	0.221	0.320
-261.209	-26.841	0.208	-0.122
-260.195	532.617	0.128	0.304
-259.180	-48.533	0.221	0.107
-258.165	-23.781	-0.354	0.213
-257.151	-41.780	0.227	-0.117
-256.136	-200.000	0.009	-0.257
-255.122	22.120	0.250	-0.204
-254.107	56.365	0.083	-0.081
-253.092	43.509	0.259	-0.237
-252.078	-97.752	0.201	-0.052
-251.063	-200.000	-0.042	-0.290
-250.049	59.588	0.261	0.258
-249.034	-63.305	0.228	-0.094
-248.019	361.571	0.177	-0.355
-247.005	800.000	0.051	-0.160
-245.990	-126.531	0.243	-0.036
-244.976	87.870	-0.091	-0.101
-243.961	571.091	0.060	0.147
-242.946	413.756	-0.008	0.017
-241.932	-200.000	-0.021	0.202
-240.917	31.576	0.167	-0.144
-239.903	-95.798	-0.321	-0.086
-238.888	-69.630	0.223	-0.086
-237.873	800.000	-0.133	0.400
-236.859	-152.930	-0.358	0.025
-235.844	-106.518	0.272	0.061
-234.830	-200.000	-0.108	-0.686
-233.815	637.737	-0.076	0.192
-232.800	-200.000	-0.018	0.329
-231.786	206.814	-0.071	0.111
-230.771	105.970	0.051	-0.061
-229.757	37.788	0.212	0.188
-228.742	-200.000	0.010	-0.055
-227.727	330.697	-0.079	0.152
-226.713	44.766	-0.113	-0.104
-225.698	423.283	0.100	-0.216
-224.684	-104.146	-0.216	-0.050
-223.669	-69.684	0.359	-0.138
-222.655	58.665	0.271	-0.266
-221.640	-63.036	0.186	-0.077
-220.625	33.845	-0.145	0.127
-219.611	83.223	-0.175	-0.191
-218.596	215.246	-0.079	0.126
-217.582	582.622	0.082	-0.203
-216.567	-38.838	-0.201	0.106
-215.552	-200.000	0.051	-0.255
-214.538	-61.943	0.232	0.097
-213.523	194.646	0.144	0.219
-212.509	-90.092	0.223	0.065
-211.494	286.964	0.256	-0.463
-210.479	-151.915	0.370	-0.027
-209.465	-51.701	0.077	0.036
-208.450	800.000	0.121	-0.433
-207.436	95.594	-0.135	-0.155
-206.421	190.263	0.248	0.372
-205.406	349.869	0.080	0.158
-204.392	85.461	0.152	0.167
-203.377	171.957	0.091	-0.131
-202.363	-200.000	-0.017	0.101
-201.348	-119.594	-0.212	-0.037
-200.333	202.940	-0.102	-0.157
-199.319	106.033	-0.166	0.197
-198.304	-179.350	0.178	-0.004
-197.290	12.575	-0.206	0.159
-196.275	-200.000	-0.037	0.269
-195.260	329.965	-0.054	0.104
-194.246	143.002	0.119	0.159
-193.231	460.439	0.052	0.116
-192.217	28.395	0.174	-0.147
-191.202	-200.000	-0.048	0.228
-190.187	800.000	-0.102	-0.319
-189.173	-80.017	0.052	-0.017
-188.158	712.538	-0.093	-0.247
-187.144	509.329	-0.082	0.190
-186.129	397.649	-0.036	0.075
-185.114	1.057	0.275	-0.198
-184.100	-200.000	0.265	0.001
-183.085	627.951	0.025	-0.062
-182.071	72.267	0.214	-0.223
-181.056	-85.273	-0.177	0.055
-180.042	800.000	0.047	-0.192
-179.027	495.543	0.045	-0.103
-178.012	-123.876	-0.352	-0.055
-176.998	-154.476	0.116	0.008
-175.983	-200.000	-0.005	0.036
-174.969	-127.737	-0.334	-0.048
-173.954	800.000	-0.119	0.379
-172.939	-70.378	0.252	0.096
-171.925	781.977	-0.177	0.484
-170.910	-134.094	0.365	0.045
-169.896	41.604	0.114	-0.104
-168.881	-126.272	-0.116	-0.017
-167.866	-42.966	0.128	-0.065
-166.852	-124.587	0.232	-0.036
-165.837	421.575	-0.221	0.474
-164.823	-77.648	-0.146	-0.050
-163.808	-200.000	0.020	0.127
-162.793	234.604	-0.151	0.249
-161.779	-200.000	0.013	0.108
-160.764	-115.977	0.083	0.015
-159.750	-200.000	0.021	0.148
-158.735	-82.977	0.104	-0.033
-157.720	415.412	-0.108	-0.230
-156.706	-200.000	-0.023	-0.309
-155.691	-42.081	-0.024	-0.012
-154.677	-200.000	-0.051	-0.359
-153.662	18.751	-0.209	0.167
-152.647	-100.902	0.216	0.053
-151.633	800.000	-0.046	0.130
-150.618	-200.000	0.035	0.280
-149.604	129.517	-0.009	-0.011
-148.589	-24.342	-0.186	-0.111
-147.574	800.000	0.079	-0.323
-146.560	482.034	0.099	0.224
-145.545	-200.000	0.021	-0.228
-144.531	350.020	-0.056	0.111
-143.516	-48.254	-0.143	-0.069
-142.502	181.344	-0.217	0.319
-141.487	-60.638	0.331	0.140
-140.472	-200.000	-0.015	0.177
-139.458	1.769	0.079	-0.057
-138.443	-1.782	-0.237	-0.166
-137.429	64.917	0.151	-0.153
-136.414	-38.006	0.085	-0.045
-135.399	-31.771	-0.285	0.160
-134.385	800.000	0.120	0.347
-133.370	-125.375	0.520	-0.079
-132.356	300.783	-0.084	-0.155
-131.341	800.000	0.057	-0.245
-130.326	-1.164	-0.067	-0.047
-129.312	-98.538	0.181	-0.046
-128.297	-200.000	-0.038	-0.192
-127.283	34.295	0.190	0.165
-126.268	-170.757	-0.178	0.006
-125.253	800.000	-0.036	0.138
-124.239	96.316	-0.076	0.087
-123.224	-95.752	0.266	-0.071
-122.210	464.078	-0.110	-0.246
-121.195	27.123	0.132	0.111
-120.180	151.161	0.035	0.047
-119.166	77.248	0.098	-0.104
-118.151	-200.000	-0.037	-0.411
-117.137	-152.273	-0.236	-0.017
-116.122	-200.000	-0.005	0.242
-115.107	148.978	0.162	-0.218
-114.093	99.927	0.202	-0.234
-113.078	-78.412	-0.315	0.108
-112.064	800.000	-0.082	-0.262
-111.049	207.935	0.114	-0.178
-110.034	-200.000	0.037	0.181
-109.020	78.490	-0.158	-0.168
-108.005	-200.000	0.041	-0.244
-106.991	-200.000	-0.041	-0.268
-105.976	-19.349	-0.282	0.174
-104.962	27.027	-0.211	0.176
-103.947	223.034	-0.105	0.168
-102.932	-16.371	-0.125	0.079
-101.918	-200.000	0.017	-0.172
-100.903	321.626	0.128	0.243
-99.889	-98.379	-0.216	0.055
-98.874	22.616	-0.221	0.180
-97.859	-11.290	-0.149	0.097
-96.845	49.549	0.180	0.169
-95.830	-116.229	0.281	0.052
-94.816	800.000	0.017	-0.064
-93.801	25.999	0.122	0.102
-92.786	194.530	0.082	-0.123
-91.772	-119.087	-0.093	-0.016
-90.757	130.167	-0.024	0.031
-89.743	-103.831	-0.320	0.074
-88.728	800.000	0.006	0.021
-87.713	212.841	0.209	0.328
-86.699	800.000	-0.109	0.332
-85.684	-87.623	0.306	0.092
-84.670	-36.011	-0.241	-0.130
-83.655	539.914	0.118	0.279
-82.640	29.103	-0.209	-0.176
-81.626	399.176	-0.095	0.197
-80.611	-33.784	0.066	-0.036
-79.597	-91.961	0.213	0.060
-78.582	-101.501	-0.195	-0.047
-77.567	-1.007	0.093	-0.066
-76.553	-117.484	-0.165	-0.030
-75.538	777.485	0.163	0.443
-74.524	-200.000	-0.020	0.254
-73.509	800.000	-0.049	-0.198
-72.494	343.332	0.145	0.284
-71.480	23.526	-0.125	-0.102
-70.465	168.195	0.048	-0.069
-69.451	71.351	0.202	-0.208
-68.436	-200.000	-0.001	0.012
-67.422	-136.641	0.206	0.024
-66.407	13.757	0.142	0.110
-65.392	800.000	-0.047	0.145
-64.378	800.000	-0.040	0.121
-63.363	272.038	0.062	0.109
-62.349	-95.818	0.073	0.019
-61.334	-80.194	-0.722	-0.241
-60.319	69.239	0.349	0.358
-59.305	271.260	-0.277	-0.486
-58.290	131.656	0.451	0.577
-57.276	572.553	0.630	1.527
-56.261	-200.000	83.766	507.926
-55.246	566.595	1379.031	3328.878
-54.232	181.599	2614.718	3827.046
-53.217	122.426	2251.419	2798.906
-52.203	49.123	1699.867	1588.601
-51.188	41.144	1430.868	1285.893
-50.173	37.846	1387.019	1225.745
-49.159	57.123	1425.576	1382.722
-48.144	61.633	1444.269	1429.444
-47.130	41.731	1405.876	1266.955
-46.115	37.957	1389.203	1228.181
-45.100	37.803	1384.431	1222.941
-44.086	37.677	1381.693	1219.686
-43.071	37.569	1379.613	1217.130
-42.057	37.616	1377.083	1215.144
-41.042	37.730	1375.199	1214.138
-40.027	37.645	1374.763	1213.177
-39.013	37.793	1371.833	1211.465
-37.998	37.677	1370.495	1209.514
-36.984	37.759	1368.812	1208.491
-35.969	37.866	1366.793	1207.324
-34.954	38.017	1364.515	1206.197
-33.940	37.866	1363.684	1204.482
-32.925	37.924	1361.832	1203.154
-31.911	37.959	1360.214	1201.893
-30.896	37.955	1358.690	1200.475
-29.881	37.916	1357.561	1199.191
-28.867	37.904	1356.376	1198.023
-27.852	37.909	1354.663	1196.490
-26.838	38.025	1353.142	1195.814
-25.823	37.932	1351.937	1194.130
-24.809	38.054	1350.353	1193.427
-23.794	38.014	1349.385	1192.284
-22.779	38.039	1347.583	1190.794
-21.765	37.992	1346.375	1189.394
-20.750	37.930	1345.366	1188.080
-19.736	37.878	1343.294	1185.884
-18.721	37.954	1341.913	1185.081
-17.706	37.765	1341.508	1183.526
-16.692	37.827	1339.788	1182.336
-15.677	37.876	1338.778	1181.697
-14.663	37.787	1338.080	1180.492
-13.648	37.734	1336.751	1178.956
-12.633	37.697	1335.808	1177.852
-11.619	37.792	1334.961	1177.632
-10.604	37.787	1333.854	1176.578
-9.590	37.887	1332.413	1175.864
-8.575	37.688	1331.895	1174.162
-7.560	37.795	1330.810	1173.807
-6.546	37.749	1329.818	1172.607
-5.531	37.716	1329.175	1171.795
-4.517	37.806	1328.148	1171.380
-3.502	37.796	1326.739	1170.031
-2.487	37.727	1326.411	1169.284
-1.473	37.796	1322.583	1166.274
-0.458	37.003	1307.668	1148.380
0.556	32.287	1289.661	1112.064
1.571	28.835	1294.401	1095.513
2.586	27.779	1310.027	1102.266
3.600	26.068	1298.258	1082.017
4.615	17.980	1217.121	968.630
5.629	5.802	1130.615	835.191
6.644	0.523	1107.376	790.364
7.659	0.072	1104.723	786.044
8.673	0.047	1102.962	784.590
9.688	0.038	1101.215	783.231
10.702	0.388	1100.606	784.549
11.717	7.757	1112.624	831.699
12.731	18.474	1127.429	899.212
13.746	22.152	1132.268	922.331
14.761	22.156	1132.069	922.107
15.775	22.152	1131.239	921.329
16.790	21.934	1130.309	919.351
17.804	21.942	1129.502	918.655
18.819	21.945	1129.421	918.519
19.834	21.999	1129.089	918.452
20.848	21.912	1128.758	917.647
21.863	22.051	1127.711	917.443
22.877	21.896	1127.328	916.239
23.892	21.905	1126.288	915.361
24.907	22.042	1125.260	915.158
25.921	21.946	1124.637	914.070
26.936	21.933	1122.871	912.486
27.950	21.874	1121.349	910.859
28.965	21.696	1119.595	908.433
29.980	21.734	1117.906	907.177
30.994	21.992	1117.068	907.756
32.009	21.998	1116.022	906.854
33.023	21.861	1114.326	904.690
34.038	21.805	1113.764	903.863
35.053	21.957	1113.042	903.981
36.067	21.961	1112.449	903.439
37.082	21.987	1111.532	902.749
38.096	22.170	1111.094	903.255
39.111	22.257	1109.753	902.533
40.126	22.065	1108.576	900.509
41.140	21.726	1106.300	896.849
42.155	21.613	1104.833	894.998
43.169	21.520	1104.623	894.275
44.184	21.716	1103.352	894.168
45.199	21.607	1102.420	892.777
46.213	21.585	1101.416	891.771
47.228	21.717	1100.801	891.870
48.242	21.783	1099.780	891.300
49.257	21.668	1099.424	890.346
50.271	21.930	1098.248	890.643
51.286	22.078	1097.426	890.652
52.301	22.108	1096.248	889.765
53.315	21.950	1095.286	888.107
54.330	21.897	1094.020	886.736
55.344	21.930	1093.261	886.208
56.359	21.873	1092.642	885.339
57.374	21.646	1091.475	883.174
58.388	21.656	1091.030	882.786
59.403	21.728	1090.039	882.266
60.417	21.637	1088.850	880.768
61.432	21.684	1088.237	880.433
62.447	21.831	1087.855	880.782
63.461	21.865	1086.973	880.163
64.476	21.818	1085.807	878.904
65.490	21.715	1084.820	877.509
66.505	21.643	1084.389	876.724
67.520	21.752	1083.457	876.438
68.534	21.568	1082.291	874.501
69.549	21.246	1080.866	871.661
70.563	21.238	1080.198	871.008
71.578	21.259	1079.297	870.309
72.593	21.202	1077.986	868.892
73.607	21.263	1078.148	869.249
74.622	21.422	1077.941	869.796
75.636	21.513	1076.750	869.207
76.651	21.432	1075.878	868.024
77.666	21.317	1075.031	866.696
78.680	21.393	1074.420	866.501
79.695	21.460	1073.885	866.328
80.709	21.449	1073.318	865.740
81.724	21.494	1072.309	865.068
82.739	21.687	1070.666	864.622
83.753	21.928	1070.828	865.865
84.768	22.245	1070.304	866.926
85.782	22.283	1068.972	865.961
86.797	22.167	1068.019	864.541
87.812	21.950	1067.193	862.729
88.826	22.178	1065.959	862.771
89.841	22.280	1065.391	862.737
90.855	22.245	1063.957	861.329
91.870	22.178	1063.396	860.469
92.884	21.972	1062.375	858.563
93.899	21.985	1060.850	857.315
94.914	22.223	1060.202	857.876
95.928	21.952	1058.845	855.383
96.943	21.839	1057.917	854.008
97.957	21.554	1056.853	851.684
98.972	21.531	1055.084	850.073
99.987	21.779	1054.665	850.864
101.001	21.892	1053.948	850.758
102.016	21.999	1052.950	850.396
103.030	21.730	1052.491	848.651
104.045	21.695	1050.923	847.138
105.060	21.495	1050.188	845.506
106.074	21.676	1049.785	845.983
107.089	22.041	1049.053	847.078
108.103	21.935	1047.506	845.244
109.118	21.783	1046.392	843.539
110.133	21.597	1045.855	842.133
111.147	21.434	1044.536	840.214
112.162	21.572	1042.757	839.373
113.176	21.701	1042.664	839.843
114.191	21.642	1041.737	838.738
115.206	21.347	1040.799	836.498
116.220	21.228	1039.779	835.036
117.235	21.387	1038.479	834.676
118.249	21.409	1038.317	834.579
119.264	21.390	1037.034	833.379
120.279	21.384	1036.261	832.656
121.293	21.456	1035.250	832.112
122.308	21.428	1034.587	831.374
123.322	21.437	1033.100	830.147
124.337	21.353	1031.645	828.510
125.352	20.903	1029.892	824.897
126.366	20.815	1029.157	823.820
127.381	21.429	1029.723	827.103
128.395	21.843	1029.099	828.485
129.410	21.963	1028.112	828.187
130.424	21.810	1027.394	826.812
131.439	21.837	1026.067	825.796
132.454	21.941	1024.899	825.273
133.468	21.889	1024.159	824.361
134.483	22.029	1023.578	824.475
135.497	22.215	1022.720	824.584
136.512	22.291	1021.532	823.911
137.527	22.234	1020.931	823.085
138.541	22.225	1020.105	822.306
139.556	22.160	1019.602	821.521
140.570	22.341	1018.587	821.478
141.585	22.279	1017.427	820.178
142.600	22.329	1016.138	819.301
143.614	22.487	1015.618	819.546
144.629	22.621	1014.579	819.258
145.643	22.415	1013.053	816.996
146.658	22.195	1012.028	815.080
147.673	22.068	1010.985	813.578
148.687	22.013	1009.845	812.336
149.702	22.086	1008.866	811.813
150.716	21.989	1008.016	810.608
151.731	22.080	1007.519	810.557
152.746	22.279	1006.718	810.757
153.760	22.324	1006.399	810.638
154.775	22.372	1005.811	810.311
155.789	22.324	1004.995	809.362
156.804	22.434	1003.463	808.562
157.819	22.297	1002.899	807.405
158.833	22.417	1002.246	807.360
159.848	22.587	1000.899	806.983
160.862	22.315	999.623	804.640
161.877	22.370	998.547	803.951
162.892	22.470	997.827	803.757
163.906	22.323	996.679	802.090
164.921	22.420	995.384	801.419
165.935	22.356	994.826	800.607
166.950	22.388	993.952	799.980
167.964	22.259	992.998	798.555
168.979	22.326	991.739	797.774
169.994	22.165	990.586	796.051
171.008	22.352	990.103	796.435
172.023	22.481	989.375	796.365
173.037	22.135	988.519	794.043
174.052	22.066	987.340	792.713
175.067	21.999	986.939	792.018
176.081	22.248	986.183	792.463
177.096	22.121	985.325	791.133
178.110	21.808	984.379	788.894
179.125	21.643	983.555	787.422
180.140	21.705	983.037	787.217
181.154	21.937	982.862	788.047
182.169	22.234	982.810	789.271
183.183	22.350	982.164	789.202
184.198	22.352	981.249	788.407
185.213	22.366	980.193	787.551
186.227	22.334	979.650	786.904
187.242	22.202	979.183	785.866
188.256	22.299	978.267	785.499
189.271	22.522	977.173	785.542
190.286	22.015	976.471	782.650
191.300	21.556	974.993	779.350
192.315	20.742	973.445	774.427
193.329	20.639	973.115	773.637
194.344	21.610	973.341	778.067
195.359	22.126	973.444	780.371
196.373	22.310	972.525	780.379
197.388	22.145	971.850	779.041
198.402	22.127	971.246	778.406
199.417	22.342	970.495	778.689
200.432	22.015	969.430	776.317
201.446	21.799	968.666	774.686
202.461	21.838	967.965	774.226
203.475	21.086	966.090	769.341
204.490	20.176	965.223	764.576
205.504	21.192	965.305	769.050
206.519	21.831	964.963	771.523
207.534	21.860	964.550	771.249
208.548	22.310	964.482	773.107
209.563	22.066	963.070	770.834
210.577	22.047	962.376	770.130
211.592	22.462	961.924	771.516
212.607	22.350	961.279	770.439
213.621	22.504	960.853	770.707
214.636	22.435	959.894	769.565
215.650	22.415	959.056	768.737
216.665	22.462	958.346	768.309
217.680	22.532	957.319	767.719
218.694	22.064	956.205	764.722
219.709	21.891	955.841	763.609
220.723	22.191	955.494	764.570
221.738	22.209	954.797	764.021
222.753	22.222	954.015	763.385
223.767	22.461	953.686	764.091
224.782	22.529	952.932	763.714
225.796	22.558	952.528	763.451
226.811	21.886	951.317	759.505
227.826	21.239	949.675	755.326
228.840	21.346	949.675	755.722
229.855	21.354	948.552	754.797
230.869	21.038	947.643	752.644
231.884	21.521	947.643	754.659
232.899	22.306	947.351	757.745
233.913	22.113	946.909	756.492
234.928	22.101	946.107	755.733
235.942	22.084	945.388	755.019
236.957	21.751	944.628	752.916
237.972	21.813	943.838	752.484
238.986	21.810	943.366	752.031
240.001	21.986	942.743	752.219
241.015	22.156	942.020	752.305
242.030	22.184	941.770	752.157
243.045	22.319	940.764	751.868
244.059	22.385	941.009	752.278
245.074	22.177	939.726	750.297
246.088	21.811	938.741	747.882
247.103	22.065	938.437	748.658
248.117	22.618	937.926	750.537
249.132	22.831	937.797	751.277
250.147	23.022	937.143	751.495
251.161	22.977	936.900	751.045
252.176	23.050	936.009	750.574
253.190	22.999	935.871	750.182
254.205	23.290	935.100	750.728
255.220	23.228	934.226	749.697
256.234	23.079	933.542	748.454
257.249	22.973	932.628	747.205
258.263	23.010	931.914	746.723
259.278	23.208	931.161	746.889
260.293	23.186	930.684	746.351
261.307	22.999	929.960	744.915
262.322	22.790	929.140	743.311
263.336	22.090	926.979	738.577
264.351	21.023	924.963	732.424
265.366	21.148	924.853	732.800
266.380	22.286	925.435	737.970
267.395	22.829	925.343	740.109
268.409	22.713	924.094	738.560
269.424	22.931	923.630	739.035
270.439	22.889	923.155	738.415
271.453	22.874	922.652	737.885
272.468	23.233	922.129	738.900
273.482	23.129	921.986	738.286
274.497	22.661	920.542	735.113
275.512	22.392	919.549	733.136
276.526	22.868	919.722	735.189
277.541	22.990	919.185	735.205
278.555	22.666	918.537	733.275
279.570	22.486	917.626	731.733
280.585	22.712	916.842	731.982
281.599	22.730	915.930	731.264
282.614	22.168	914.733	727.918
283.628	22.043	914.394	727.062
284.643	22.619	913.669	728.805
285.657	22.086	912.735	725.795
286.672	21.903	911.978	724.371
287.687	22.388	911.952	726.291
288.701	22.439	910.908	725.604
289.716	22.290	909.946	724.162
290.730	22.033	909.861	722.969
291.745	21.834	908.896	721.322
292.760	22.207	908.612	722.566
293.774	23.232	908.554	726.666
294.789	23.450	908.739	727.643
295.803	23.435	908.048	726.966
296.818	23.452	907.465	726.506
297.833	23.040	905.960	723.550
298.847	22.877	905.350	722.332
299.862	23.249	905.141	723.622
300.876	23.500	904.786	724.300
301.891	23.320	904.179	723.011
302.906	23.032	902.995	720.828
303.920	23.083	902.474	720.556
304.935	23.378	902.275	721.535
305.949	23.369	902.085	721.284
306.964	23.056	900.998	719.077
307.979	23.232	900.644	719.448
308.993	23.584	900.078	720.361
310.008	23.521	899.444	719.535
311.022	23.302	898.753	718.028
312.037	23.146	898.246	716.929
313.052	23.013	896.898	715.253
314.066	22.147	895.257	710.381
315.081	21.815	894.778	708.596
316.095	22.651	895.305	712.330
317.110	23.146	894.862	713.911
318.125	22.304	893.401	709.291
319.139	21.264	891.447	703.490
320.154	21.344	891.193	703.550
321.168	22.122	891.904	707.182
322.183	22.901	891.899	710.248
323.197	22.936	891.940	710.358
324.212	23.202	891.033	710.640
325.227	23.169	890.459	709.989
326.241	23.254	889.108	709.190
327.256	22.994	888.974	707.978
328.270	22.939	888.190	707.070
329.285	22.718	887.207	705.342
330.300	22.634	886.361	704.271
331.314	22.792	886.154	704.674
332.329	23.121	886.422	706.139
333.343	23.343	885.623	706.324
334.358	23.262	885.260	705.650
335.373	23.252	885.556	705.784
336.387	23.598	885.175	706.796
337.402	23.678	885.165	707.045
338.416	23.663	884.468	706.365
339.431	23.722	884.049	706.202
340.446	23.953	883.883	706.925
341.460	23.677	883.029	705.086
342.475	23.651	882.573	704.555
343.489	23.698	882.023	704.240
344.504	23.865	881.828	704.684
345.519	24.129	881.008	705.010
346.533	24.034	881.072	704.625
347.548	23.988	880.711	704.092
348.562	24.045	879.872	703.586
349.577	24.148	879.159	703.360
350.592	24.044	878.807	702.604
351.606	23.987	878.011	701.682
352.621	23.876	877.002	700.377
353.635	23.827	876.007	699.324
354.650	23.229	874.329	695.574
355.665	22.226	872.978	690.503
356.679	22.495	873.326	691.774
357.694	23.163	872.278	693.502
358.708	22.957	871.760	692.222
359.723	23.393	871.656	693.785
360.738	23.773	871.199	694.846
361.752	23.778	871.202	694.807
362.767	24.235	870.258	695.776
363.781	24.297	870.181	695.894
364.796	24.368	869.743	695.762
365.810	24.334	869.554	695.415
366.825	24.491	868.797	695.359
367.840	24.082	867.933	693.013
368.854	23.723	867.192	690.966
369.869	23.835	866.445	690.742
370.883	23.823	865.856	690.168
371.898	23.664	865.577	689.266
372.913	23.944	865.281	690.058
373.927	23.990	864.736	689.741
374.942	24.118	864.230	689.771
375.956	24.208	863.881	689.779
376.971	24.245	863.758	689.761
377.986	24.400	863.383	690.001
379.000	24.316	862.855	689.195
380.015	24.119	862.192	687.844
381.029	24.267	861.190	687.554
382.044	24.525	860.412	687.863
383.059	24.370	860.220	687.052
384.073	24.396	859.714	686.689
385.088	24.334	859.213	685.988
386.102	24.199	858.566	684.893
387.117	24.109	857.828	683.900
388.132	23.777	856.424	681.446
389.146	23.281	855.460	678.716
390.161	23.724	855.595	680.461
391.175	24.147	855.293	681.782
392.190	23.892	853.949	679.677
393.205	22.632	851.915	673.187
394.219	21.107	849.901	665.725
395.234	20.951	850.100	665.224
396.248	22.494	851.691	672.306
397.263	24.123	852.410	679.030
398.278	24.012	852.099	678.299
399.292	23.803	850.999	676.570
400.307	23.787	850.718	676.224
401.321	23.866	850.083	675.959
402.336	24.063	850.357	676.868
403.350	24.561	849.877	678.317
404.365	24.852	849.708	679.226
405.380	25.174	849.427	680.164
406.394	25.132	849.215	679.772
407.409	25.079	848.455	678.906
408.423	24.962	847.825	677.899
409.438	25.159	847.702	678.483
410.453	25.193	847.057	678.038
411.467	24.997	846.799	677.030
412.482	25.045	846.420	676.847
413.496	25.106	845.930	676.627
414.511	25.210	845.179	676.357
415.526	25.137	844.467	675.456
416.540	24.990	844.181	674.614
417.555	24.839	843.472	673.418
418.569	24.714	842.985	672.499
419.584	24.747	842.492	672.170
420.599	24.528	841.766	670.709
421.613	148.730	1367.216	1779.404
422.628	130.096	1443.794	1779.502
