DTS Sentinel unit serial number:	SN413079Multiplexer serial number:	ORYXHardware model number:	OX4-SRSoftware version number:	ORYX F/W v4.00 Oryx Data Collector v3.7.2.0data status	okinstallation	princeton_trtdifferential loss correction	single-endedforward channel	channel 1reverse channel	N/Adate	2019/09/11time	02:28:11forward acquisition time	60.00reverse acquisition time	0.00gamma	496.2192k internal	0.2332k external	0.2332temperature offset calibration	0.9929default loss term (dB/km)	0.3790temperature slope calibration	1.0000multiplexer offset coefficient	1.0000multiplexer slope coefficient	1.0000fibre end	0.00T internal ref (°C)	29.25T ext. ref 1 (°C)	-0.30T ext. ref 2 (°C)	23.44length (m)	temperature (°C)	Stokes	anti-Stokes-747.200	-1.786	-0.031	0.022
-746.185	-122.926	0.354	0.057
-745.171	488.303	0.061	0.140
-744.156	108.136	-0.209	0.251
-743.142	-182.997	0.185	-0.003
-742.127	800.000	0.117	0.378
-741.112	-81.820	-0.224	0.074
-740.098	23.747	-0.161	-0.134
-739.083	52.695	0.032	-0.031
-738.069	-45.667	0.233	-0.116
-737.054	800.000	-0.077	-0.250
-736.039	-198.326	-0.621	0.004
-735.025	271.085	0.227	0.401
-734.010	-47.708	-0.171	-0.083
-732.996	-87.181	-0.180	0.055
-731.981	-200.000	-0.030	-0.389
-730.966	19.676	-0.110	0.089
-729.952	709.112	0.096	-0.256
-728.937	-200.000	-0.029	-0.443
-727.923	-82.957	0.099	-0.032
-726.908	223.252	-0.108	0.175
-725.894	94.526	-0.324	-0.370
-724.879	18.271	-0.265	-0.212
-723.864	-200.000	0.002	-0.172
-722.850	-200.000	-0.007	-0.147
-721.835	73.156	0.115	-0.121
-720.821	800.000	0.033	0.093
-719.806	-66.359	0.019	0.008
-718.791	119.318	-0.058	0.072
-717.777	2.829	0.102	-0.075
-716.762	69.573	0.071	-0.073
-715.748	-92.833	0.202	-0.057
-714.733	38.820	-0.216	-0.193
-713.718	800.000	-0.032	0.125
-712.704	-105.788	-0.155	-0.035
-711.689	-52.125	-0.397	0.185
-710.675	-200.000	0.006	0.150
-709.660	-200.000	0.001	-0.202
-708.645	153.367	-0.165	0.227
-707.631	800.000	0.083	0.310
-706.616	-130.864	0.235	0.032
-705.602	-200.000	0.026	0.181
-704.587	733.837	-0.051	0.136
-703.572	-101.702	0.099	0.024
-702.558	92.351	-0.164	-0.186
-701.543	-200.000	0.005	-0.288
-700.529	-114.275	0.140	-0.027
-699.514	145.150	0.100	-0.135
-698.499	800.000	0.074	-0.254
-697.485	181.783	0.128	-0.189
-696.470	-35.090	0.006	-0.003
-695.456	-200.000	-0.027	-0.190
-694.441	323.708	0.159	-0.304
-693.426	220.189	0.057	-0.092
-692.412	225.977	0.137	-0.223
-691.397	-72.803	-0.235	0.087
-690.383	-33.498	-0.200	-0.111
-689.368	-200.000	0.012	0.322
-688.354	-200.000	0.025	-0.118
-687.339	800.000	0.062	0.218
-686.324	160.054	-0.192	-0.268
-685.310	-81.199	-0.180	-0.060
-684.295	71.360	-0.093	-0.097
-683.281	511.733	-0.097	0.226
-682.266	-133.985	0.221	0.027
-681.251	255.997	-0.064	-0.110
-680.237	-200.000	-0.007	-0.135
-679.222	-187.244	-0.357	-0.005
-678.208	593.974	-0.070	0.174
-677.193	-25.743	-0.431	-0.255
-676.178	-200.000	0.033	-0.305
-675.164	9.444	0.068	0.052
-674.149	-200.000	-0.004	-0.227
-673.135	-31.123	0.232	-0.131
-672.120	23.203	0.349	-0.288
-671.105	274.868	-0.123	-0.218
-670.091	211.478	0.218	-0.344
-669.076	6.875	0.370	-0.277
-668.062	96.370	0.151	-0.173
-667.047	-149.772	-0.031	0.002
-666.032	75.545	-0.099	-0.104
-665.018	-185.806	-0.186	-0.003
-664.003	263.459	0.019	0.033
-662.989	-200.000	0.060	0.603
-661.974	75.266	-0.031	-0.033
-660.959	-200.000	0.031	0.262
-659.945	-200.000	0.015	-0.133
-658.930	-133.458	0.181	0.023
-657.916	30.522	-0.188	-0.161
-656.901	-104.508	-0.374	0.087
-655.886	-136.664	-0.278	0.032
-654.872	800.000	0.115	0.345
-653.857	-90.648	0.280	0.081
-652.843	-2.922	-0.216	-0.151
-651.828	636.660	-0.033	-0.084
-650.814	472.565	0.123	0.277
-649.799	195.850	0.123	-0.187
-648.784	-88.828	0.183	0.054
-647.770	433.614	-0.147	0.320
-646.755	800.000	0.072	-0.203
-645.741	22.301	0.108	-0.088
-644.726	-200.000	0.008	-0.085
-643.711	-200.000	0.018	-0.304
-642.697	35.597	0.196	-0.173
-641.682	-58.951	-0.048	-0.021
-640.668	55.788	0.176	0.171
-639.653	-142.302	0.094	0.009
-638.638	40.521	-0.231	0.208
-637.624	-87.862	-0.212	-0.064
-636.609	-154.715	0.026	-0.002
-635.595	4.327	-0.117	-0.086
-634.580	-114.922	-0.440	0.084
-633.565	-200.000	-0.016	0.183
-632.551	662.485	0.122	-0.314
-631.536	153.293	0.185	-0.254
-630.522	-163.394	0.055	-0.003
-629.507	-23.983	0.149	-0.090
-628.492	-100.520	0.277	0.069
-627.478	-200.000	-0.009	0.242
-626.463	232.492	0.165	0.271
-625.449	-131.694	0.269	0.035
-624.434	-200.000	0.062	-0.385
-623.419	-200.000	0.009	0.106
-622.405	-167.945	0.175	0.007
-621.390	-88.875	-0.102	-0.030
-620.376	6.711	0.124	-0.092
-619.361	-100.552	-0.114	-0.028
-618.346	-187.671	0.098	-0.001
-617.332	-86.786	-0.068	0.021
-616.317	-132.071	-0.117	0.015
-615.303	-200.000	-0.017	-0.082
-614.288	800.000	0.026	-0.086
-613.273	-130.896	0.267	0.036
-612.259	91.072	-0.112	0.126
-611.244	800.000	-0.105	0.428
-610.230	-47.573	-0.187	-0.091
-609.215	-58.081	-0.094	-0.041
-608.201	800.000	-0.096	-0.330
-607.186	-200.000	0.038	-0.360
-606.171	-95.395	-0.511	-0.137
-605.157	-200.000	0.020	0.158
-604.142	-200.000	-0.011	-0.158
-603.128	352.162	-0.144	0.285
-602.113	-125.038	0.023	-0.004
-601.098	-94.952	0.253	0.068
-600.084	53.791	-0.199	0.191
-599.069	-162.344	0.074	0.004
-598.055	-47.479	-0.114	0.055
-597.040	800.000	-0.100	-0.402
-596.025	-163.752	-0.064	0.003
-595.011	800.000	0.059	0.180
-593.996	276.622	0.121	-0.214
-592.982	136.655	-0.241	-0.314
-591.967	-128.547	0.313	-0.044
-590.952	285.193	-0.008	-0.015
-589.938	-107.492	0.284	0.062
-588.923	-200.000	0.022	-0.340
-587.909	-2.995	0.203	-0.142
-586.894	-136.867	0.060	-0.007
-585.879	-200.000	-0.062	0.326
-584.865	42.474	-0.211	-0.192
-583.850	371.241	0.096	-0.194
-582.836	317.754	0.174	-0.329
-581.821	-99.900	-0.107	0.027
-580.806	-66.195	0.264	-0.105
-579.792	-36.740	0.206	0.111
-578.777	-72.091	0.166	0.062
-577.763	68.288	0.084	-0.086
-576.748	164.584	0.043	-0.061
-575.733	800.000	0.044	-0.152
-574.719	180.108	-0.009	-0.013
-573.704	-200.000	-0.055	-0.242
-572.690	552.439	0.075	-0.179
-571.675	800.000	-0.079	-0.270
-570.661	-61.294	0.122	0.052
-569.646	800.000	0.103	0.431
-568.631	-148.228	-0.412	-0.034
-567.617	800.000	-0.050	-0.160
-566.602	-25.016	-0.123	-0.073
-565.588	155.579	0.059	-0.082
-564.573	107.456	-0.186	0.221
-563.558	593.213	0.127	0.314
-562.544	206.928	-0.094	-0.146
-561.529	-200.000	-0.002	-0.028
-560.515	277.768	0.163	-0.291
-559.500	-39.341	0.105	-0.055
-558.485	-135.273	0.300	-0.036
-557.471	-20.763	-0.191	0.117
-556.456	93.228	0.048	0.054
-555.442	660.409	-0.094	-0.243
-554.427	-105.285	-0.308	-0.070
-553.412	800.000	-0.042	0.158
-552.398	219.292	0.084	-0.134
-551.383	723.306	0.029	0.077
-550.369	-11.110	-0.161	0.106
-549.354	13.174	-0.187	-0.145
-548.339	19.474	0.096	0.077
-547.325	-94.124	-0.060	0.017
-546.310	22.035	-0.122	0.100
-545.296	-73.495	0.195	-0.071
-544.281	800.000	-0.123	-0.463
-543.266	3.119	0.309	-0.224
-542.252	-77.409	-0.095	0.033
-541.237	162.216	-0.125	0.175
-540.223	-200.000	0.009	-0.090
-539.208	136.444	-0.134	-0.174
-538.193	-200.000	-0.020	0.123
-537.179	29.037	-0.139	0.117
-536.164	800.000	-0.044	0.163
-535.150	-71.374	-0.145	-0.054
-534.135	-88.345	0.025	0.008
-533.121	192.153	-0.157	-0.237
-532.106	-142.026	0.237	0.024
-531.091	420.175	0.081	0.173
-530.077	-42.584	-0.060	-0.030
-529.062	-172.554	-0.456	-0.014
-528.048	20.000	0.055	-0.044
-527.033	105.163	-0.103	-0.121
-526.018	93.471	0.053	-0.059
-525.004	-110.274	-0.379	-0.079
-523.989	-7.541	-0.102	-0.069
-522.975	141.489	-0.162	0.214
-521.960	-122.349	0.265	-0.043
-520.945	24.059	0.055	-0.045
-519.931	-1.444	0.045	-0.032
-518.916	375.499	-0.147	0.299
-517.902	-200.000	-0.044	0.384
-516.887	800.000	0.067	0.191
-515.872	172.538	-0.083	-0.120
-514.858	368.410	0.246	-0.497
-513.843	640.064	-0.069	-0.175
-512.829	-120.615	-0.034	0.006
-511.814	481.031	-0.040	-0.090
-510.799	71.894	-0.202	-0.209
-509.785	-47.461	-0.031	-0.015
-508.770	141.713	-0.074	0.098
-507.756	-200.000	0.002	-0.071
-506.741	-12.152	0.232	0.151
-505.726	179.922	-0.188	0.274
-504.712	-200.000	-0.003	-0.117
-503.697	352.211	0.125	-0.246
-502.683	110.896	-0.047	0.056
-501.668	800.000	-0.090	0.298
-500.653	400.686	-0.115	0.239
-499.639	-18.958	0.262	0.162
-498.624	-200.000	0.015	0.140
-497.610	65.605	0.375	-0.378
-496.595	462.003	0.077	-0.172
-495.581	-3.739	-0.126	0.087
-494.566	41.463	-0.157	-0.142
-493.551	800.000	0.050	-0.201
-492.537	47.163	-0.131	-0.121
-491.522	-7.092	0.311	-0.210
-490.508	-200.000	0.013	0.279
-489.493	-61.309	0.099	0.042
-488.478	162.582	0.042	0.059
-487.464	139.498	0.134	0.175
-486.449	471.113	0.141	-0.316
-485.435	-104.737	0.111	-0.025
-484.420	99.073	0.218	-0.250
-483.405	-200.000	0.017	-0.119
-482.391	98.612	-0.093	-0.107
-481.376	-200.000	-0.022	-0.153
-480.362	-200.000	0.023	0.130
-479.347	-106.015	0.182	0.041
-478.332	-6.144	-0.047	-0.032
-477.318	-200.000	0.006	-0.069
-476.303	-82.531	0.201	-0.065
-475.289	188.592	0.275	0.409
-474.274	-144.242	-0.044	0.004
-473.259	382.886	-0.163	-0.335
-472.245	-24.810	0.173	-0.102
-471.230	-51.233	-0.265	0.124
-470.216	-200.000	0.002	-0.229
-469.201	189.263	-0.072	0.108
-468.186	242.971	-0.056	-0.094
-467.172	-125.103	-0.207	0.032
-466.157	-185.562	-0.233	-0.004
-465.143	-140.439	-0.432	-0.045
-464.128	-109.832	0.151	-0.032
-463.113	27.030	-0.123	-0.103
-462.099	-74.911	-0.385	0.137
-461.084	54.990	-0.261	0.251
-460.070	-200.000	-0.054	-0.308
-459.055	-77.270	0.388	0.134
-458.040	-200.000	0.025	-0.154
-457.026	102.722	0.028	-0.032
-456.011	-182.037	-0.358	0.007
-454.997	-27.871	0.147	0.085
-453.982	-200.000	-0.044	0.328
-452.968	-158.850	0.269	0.015
-451.953	-139.709	-0.038	-0.004
-450.938	-88.912	0.149	0.044
-449.924	507.041	0.118	-0.272
-448.909	-74.131	0.160	0.057
-447.895	-108.672	-0.170	-0.036
-446.880	127.996	-0.107	0.135
-445.865	-115.452	-0.198	0.037
-444.851	-200.000	-0.032	-0.253
-443.836	59.929	0.182	0.179
-442.822	-200.000	-0.043	-0.362
-441.807	-200.000	-0.009	-0.047
-440.792	127.665	-0.154	-0.195
-439.778	22.187	0.128	0.104
-438.763	-200.000	-0.004	0.104
-437.749	-76.747	-0.288	0.100
-436.734	-88.412	-0.358	-0.106
-435.719	-15.868	-0.008	-0.005
-434.705	-46.759	-0.055	0.027
-433.690	243.773	-0.139	0.232
-432.676	-59.446	0.222	-0.095
-431.661	-142.221	-0.226	-0.022
-430.646	-139.538	0.097	0.010
-429.632	800.000	0.051	0.148
-428.617	-30.520	-0.048	-0.027
-427.603	-39.643	0.187	-0.097
-426.588	388.918	-0.160	-0.329
-425.573	187.505	-0.092	-0.137
-424.559	34.201	-0.242	0.209
-423.544	44.972	0.201	0.184
-422.530	616.639	-0.115	0.287
-421.515	-84.781	0.264	0.082
-420.500	-65.326	-0.189	-0.075
-419.486	6.473	-0.149	-0.110
-418.471	-93.012	0.174	-0.048
-417.457	89.110	-0.120	-0.133
-416.442	-200.000	0.032	0.362
-415.428	-144.170	0.338	0.031
-414.413	-200.000	0.029	-0.127
-413.398	68.362	0.223	-0.227
-412.384	-111.644	-0.092	-0.019
-411.369	-135.413	0.149	-0.018
-410.355	106.842	-0.392	0.462
-409.340	-200.000	0.043	-0.346
-408.325	-200.000	-0.020	-0.256
-407.311	-18.607	-0.085	0.053
-406.296	173.470	-0.166	0.238
-405.282	-200.000	0.020	0.368
-404.267	346.128	0.081	-0.157
-403.252	-156.631	0.081	-0.005
-402.238	334.121	-0.139	0.268
-401.223	-200.000	0.038	-0.217
-400.209	106.784	-0.151	0.178
-399.194	800.000	0.096	-0.282
-398.179	-55.200	0.262	0.117
-397.165	800.000	0.061	-0.239
-396.150	-171.751	0.153	0.005
-395.136	-102.103	0.194	-0.046
-394.121	-117.675	0.300	0.054
-393.106	-45.872	0.417	-0.204
-392.092	16.855	-0.033	-0.026
-391.077	572.268	-0.047	-0.113
-390.063	-176.799	-0.346	0.009
-389.048	53.522	0.168	-0.160
-388.033	-143.440	-0.118	-0.011
-387.019	800.000	0.102	0.286
-386.004	-83.607	-0.193	0.061
-384.990	-200.000	-0.007	-0.052
-383.975	-81.527	-0.093	0.030
-382.960	-200.000	0.019	-0.085
-381.946	-200.000	0.007	-0.148
-380.931	-140.762	-0.203	-0.021
-379.917	311.383	0.102	0.190
-378.902	800.000	0.039	0.127
-377.888	185.016	0.069	0.102
-376.873	552.369	0.078	0.186
-375.858	-156.968	0.065	-0.004
-374.844	-200.000	-0.008	-0.201
-373.829	800.000	0.045	0.189
-372.815	787.378	0.124	0.339
-371.800	-200.000	-0.005	0.098
-370.785	256.820	0.118	-0.200
-369.771	527.982	-0.091	0.214
-368.756	-146.537	-0.466	-0.040
-367.742	-200.000	-0.039	0.275
-366.727	-128.758	0.186	0.026
-365.712	-200.000	0.013	-0.064
-364.698	-108.448	-0.081	0.017
-363.683	800.000	-0.052	0.226
-362.669	-77.603	-0.095	0.033
-361.654	361.763	0.132	-0.262
-360.639	-86.302	-0.101	-0.031
-359.625	197.376	0.131	0.198
-358.610	21.382	-0.170	-0.137
-357.596	-19.984	0.149	-0.091
-356.581	30.229	-0.085	0.072
-355.566	-145.419	-0.148	0.013
-354.552	-159.601	0.198	0.011
-353.537	-77.868	-0.174	0.060
-352.523	-200.000	-0.003	0.236
-351.508	-11.796	-0.355	0.231
-350.493	-28.088	-0.190	0.109
-349.479	71.650	0.167	0.172
-348.464	6.176	0.106	-0.078
-347.450	-25.510	-0.080	-0.047
-346.435	295.423	0.161	0.292
-345.420	-165.450	0.142	-0.006
-344.406	-200.000	-0.015	0.078
-343.391	-13.374	-0.130	0.084
-342.377	800.000	0.091	-0.321
-341.362	3.197	0.227	-0.163
-340.348	-116.711	0.261	0.047
-339.333	-145.868	-0.256	-0.022
-338.318	-45.227	0.508	0.250
-337.304	321.646	0.152	-0.287
-336.289	-200.000	-0.014	0.118
-335.275	656.661	-0.064	0.163
-334.260	288.004	-0.186	-0.333
-333.245	133.150	0.015	-0.020
-332.231	-200.000	0.031	-0.358
-331.216	-106.335	-0.178	0.039
-330.202	800.000	-0.014	-0.044
-329.187	-25.323	0.286	-0.167
-328.172	-148.300	0.499	-0.041
-327.158	-10.461	0.098	0.065
-326.143	800.000	-0.117	-0.332
-325.129	83.337	0.211	0.228
-324.114	9.815	0.252	0.189
-323.099	500.484	0.067	0.154
-322.085	-27.226	-0.149	0.086
-321.070	800.000	0.003	-0.011
-320.056	-96.767	-0.538	-0.140
-319.041	-200.000	0.046	-0.304
-318.026	107.491	0.237	0.279
-317.012	27.155	0.234	-0.194
-315.997	-14.081	-0.222	0.142
-314.983	-104.724	-0.195	0.044
-313.968	-75.213	0.171	-0.060
-312.953	-200.000	0.060	0.407
-311.939	289.621	-0.114	0.205
-310.924	25.007	-0.143	-0.117
-309.910	211.344	0.088	0.137
-308.895	-73.029	-0.146	0.053
-307.880	-5.842	-0.288	0.195
-306.866	-137.753	-0.197	-0.022
-305.851	101.618	-0.218	0.252
-304.837	-200.000	-0.013	0.266
-303.822	-11.403	-0.354	0.230
-302.807	-200.000	0.043	-0.190
-301.793	-200.000	-0.004	0.145
-300.778	-15.526	-0.058	0.037
-299.764	-91.371	0.248	-0.070
-298.749	-121.063	-0.226	0.038
-297.735	-65.608	-0.213	-0.084
-296.720	-51.745	0.098	-0.045
-295.705	-29.097	0.102	0.058
-294.691	800.000	-0.077	-0.227
-293.676	455.962	0.078	-0.171
-292.662	-28.786	0.173	0.098
-291.647	541.607	0.128	0.301
-290.632	-97.769	-0.119	-0.030
-289.618	190.004	-0.092	-0.136
-288.603	-174.045	0.346	-0.010
-287.589	800.000	0.040	0.147
-286.574	-110.381	0.041	0.008
-285.559	-200.000	0.002	0.104
-284.545	409.956	0.037	0.077
-283.530	-200.000	-0.036	0.356
-282.516	800.000	0.037	-0.120
-281.501	-13.083	0.342	-0.220
-280.486	-200.000	0.010	-0.349
-279.472	-43.363	-0.306	-0.153
-278.457	-93.201	0.297	0.082
-277.443	-164.113	0.388	0.018
-276.428	324.521	0.092	0.173
-275.413	-200.000	0.028	0.275
-274.399	800.000	0.086	-0.240
-273.384	-121.495	0.330	0.054
-272.370	-200.000	-0.058	-0.282
-271.355	297.968	-0.163	0.296
-270.340	-43.040	0.142	0.071
-269.326	-140.231	0.196	-0.020
-268.311	-136.414	0.149	-0.017
-267.297	-15.605	-0.128	0.081
-266.282	-47.390	-0.130	-0.063
-265.267	72.508	-0.342	-0.352
-264.253	78.194	-0.269	0.284
-263.238	592.036	0.081	-0.198
-262.224	282.437	0.061	0.109
-261.209	-200.000	0.013	0.232
-260.195	94.942	-0.219	-0.246
-259.180	-68.887	-0.197	0.075
-258.165	-117.272	-0.096	-0.017
-257.151	163.400	-0.025	-0.035
-256.136	78.778	-0.115	-0.121
-255.122	-28.218	0.202	-0.115
-254.107	131.868	-0.089	-0.113
-253.092	-200.000	-0.014	0.139
-252.078	96.122	0.110	0.124
-251.063	146.523	-0.079	-0.105
-250.049	751.699	0.039	0.104
-249.034	266.905	0.110	0.189
-248.019	-11.800	-0.115	-0.074
-247.005	-51.262	-0.349	0.161
-245.990	800.000	0.040	0.127
-244.976	-119.842	0.244	0.041
-243.961	-200.000	0.027	-0.147
-242.946	-195.425	-0.230	0.002
-241.932	800.000	-0.077	-0.244
-240.917	800.000	-0.056	0.230
-239.903	-200.000	0.037	0.184
-238.888	-118.267	0.166	-0.029
-237.873	-127.541	-0.221	-0.032
-236.859	55.849	-0.211	-0.201
-235.844	-79.833	-0.288	-0.095
-234.830	678.766	-0.065	0.166
-233.815	-200.000	0.027	-0.153
-232.800	-119.015	0.385	0.066
-231.786	-42.234	-0.282	-0.142
-230.771	-200.000	0.053	-0.465
-229.757	15.175	-0.091	-0.070
-228.742	-109.012	0.352	0.074
-227.727	-200.000	-0.000	0.031
-226.713	74.509	0.269	0.278
-225.698	1.793	0.143	-0.102
-224.684	-52.979	0.113	-0.051
-223.669	800.000	-0.092	0.356
-222.655	275.069	0.124	-0.216
-221.640	132.405	0.067	-0.085
-220.625	-200.000	0.013	-0.075
-219.611	-75.337	0.249	0.087
-218.596	449.645	0.054	0.117
-217.582	-76.742	0.293	0.101
-216.567	-2.964	-0.394	-0.271
-215.552	-154.512	-0.120	-0.008
-214.538	-80.491	0.287	0.094
-213.523	95.077	-0.119	0.133
-212.509	86.287	-0.189	-0.206
-211.494	231.685	-0.138	0.223
-210.479	-60.491	-0.128	0.054
-209.465	143.263	0.178	0.234
-208.450	288.924	0.071	-0.127
-207.436	39.064	0.125	-0.110
-206.421	-10.165	0.204	0.133
-205.406	-200.000	0.020	0.173
-204.392	20.350	-0.186	-0.148
-203.377	279.835	0.022	0.038
-202.363	136.122	-0.078	-0.100
-201.348	610.209	-0.195	0.479
-200.333	27.438	0.313	0.259
-199.319	199.614	-0.193	0.291
-198.304	556.331	-0.141	0.335
-197.290	72.629	-0.192	0.198
-196.275	-17.902	0.076	-0.047
-195.260	-65.021	0.219	-0.087
-194.246	-109.906	0.310	0.064
-193.231	215.391	0.168	-0.262
-192.217	1.659	-0.276	0.196
-191.202	204.484	0.069	-0.106
-190.187	-200.000	-0.014	-0.281
-189.173	278.465	-0.107	-0.187
-188.158	-40.547	0.069	-0.035
-187.144	800.000	-0.053	-0.145
-186.129	-171.252	-0.158	0.005
-185.114	64.549	-0.145	0.144
-184.100	42.317	0.176	0.158
-183.085	195.898	0.101	0.152
-182.071	-45.709	0.204	-0.099
-181.056	-53.726	-0.022	0.010
-180.042	-147.911	-0.179	-0.015
-179.027	-163.384	-0.093	-0.004
-178.012	800.000	0.016	-0.046
-176.998	-74.365	0.308	0.109
-175.983	186.404	-0.226	0.331
-174.969	-191.531	0.100	0.001
-173.954	-17.663	-0.152	-0.094
-172.939	103.229	-0.139	-0.160
-171.925	96.383	0.180	0.203
-170.910	-1.501	0.232	-0.161
-169.896	-65.781	0.211	0.083
-168.881	-133.131	0.115	0.014
-167.866	40.785	-0.281	0.249
-166.852	-116.894	0.219	0.039
-165.837	36.010	-0.149	-0.129
-164.823	21.256	0.186	-0.148
-163.808	-179.617	-0.436	-0.009
-162.793	133.857	0.189	0.241
-161.779	419.957	0.150	0.316
-160.764	-0.874	0.176	-0.123
-159.750	91.764	-0.095	0.105
-158.735	-109.490	-0.291	-0.060
-157.720	-84.923	-0.217	-0.067
-156.706	641.958	0.081	-0.202
-155.691	-200.000	-0.020	0.260
-154.677	376.384	-0.025	0.049
-153.662	-1.841	-0.152	0.105
-152.647	-4.145	-0.182	0.124
-151.633	-70.233	-0.163	-0.061
-150.618	-200.000	-0.012	0.141
-149.604	800.000	-0.064	0.270
-148.589	-200.000	-0.009	-0.059
-147.574	289.450	-0.070	0.124
-146.560	-200.000	0.073	-0.327
-145.545	8.105	0.258	0.190
-144.531	-200.000	-0.033	0.363
-143.516	800.000	0.074	-0.289
-142.502	-200.000	-0.064	-0.382
-141.487	-200.000	-0.070	0.487
-140.472	-2.517	-0.232	-0.160
-139.458	103.703	0.214	0.246
-138.443	-200.000	-0.092	0.442
-137.429	296.891	-0.075	-0.135
-136.414	427.644	-0.101	0.215
-135.399	335.097	0.063	-0.120
-134.385	520.593	0.261	-0.602
-133.370	-2.932	-0.245	-0.168
-132.356	-200.000	0.044	-0.198
-131.341	800.000	-0.062	0.222
-130.326	-19.049	0.166	0.102
-129.312	594.986	0.131	-0.319
-128.297	-168.467	0.203	-0.008
-127.283	-200.000	-0.018	-0.169
-126.268	-200.000	-0.007	-0.218
-125.253	-171.365	0.361	-0.012
-124.239	46.789	-0.083	-0.076
-123.224	-200.000	-0.056	-0.347
-122.210	435.929	0.064	0.137
-121.195	-156.264	0.119	0.007
-120.180	-186.777	0.209	-0.003
-119.166	-165.918	-0.229	-0.010
-118.151	-200.000	-0.043	-0.356
-117.137	38.705	-0.126	0.111
-116.122	-145.187	0.253	-0.022
-115.107	-200.000	-0.032	0.339
-114.093	-7.297	0.205	-0.136
-113.078	-123.272	-0.482	0.076
-112.064	-160.822	-0.124	-0.006
-111.049	95.816	-0.244	-0.274
-110.034	94.054	-0.140	0.155
-109.020	-11.880	-0.215	-0.138
-108.005	76.128	-0.175	0.182
-106.991	-72.875	0.359	0.129
-105.976	-200.000	-0.010	0.160
-104.962	-105.664	-0.239	-0.053
-103.947	-61.253	0.292	-0.121
-102.932	-200.000	-0.004	-0.088
-101.918	-152.413	-0.237	-0.017
-100.903	295.175	-0.055	0.099
-99.889	16.242	-0.343	-0.266
-98.874	9.549	0.173	0.128
-97.859	155.955	0.269	-0.363
-96.845	-43.201	0.241	-0.120
-95.830	122.973	-0.120	0.147
-94.816	611.245	-0.135	-0.331
-93.801	63.161	-0.168	0.165
-92.786	-31.155	-0.167	-0.092
-91.772	-26.374	0.069	0.039
-90.757	-18.170	0.127	0.078
-89.743	522.393	-0.166	-0.382
-88.728	7.338	0.286	-0.209
-87.713	800.000	-0.052	-0.223
-86.699	39.161	-0.035	-0.031
-85.684	644.944	0.054	0.136
-84.670	-200.000	0.034	-0.163
-83.655	318.012	-0.183	-0.340
-82.640	482.905	0.087	-0.193
-81.626	665.161	0.048	-0.122
-80.611	-32.101	0.139	-0.076
-79.597	800.000	0.102	0.309
-78.582	66.757	0.180	0.180
-77.567	-76.887	0.294	-0.101
-76.553	800.000	0.079	0.320
-75.538	84.359	0.163	-0.175
-74.524	134.881	0.157	0.200
-73.509	-1.456	-0.248	0.172
-72.494	145.901	0.189	0.249
-71.480	324.368	0.240	0.449
-70.465	-71.591	-0.467	0.171
-69.451	-200.000	0.023	-0.104
-68.436	-29.714	0.088	0.049
-67.422	150.080	-0.072	0.096
-66.407	130.892	0.076	-0.096
-65.392	41.376	0.235	-0.209
-64.378	159.671	0.186	-0.254
-63.363	90.424	0.349	0.382
-62.349	120.497	-0.022	0.026
-61.334	40.154	-1.167	-1.028
-60.319	104.577	0.630	0.727
-59.305	800.000	-0.320	-0.947
-58.290	454.482	0.576	1.249
-57.276	800.000	0.353	1.493
-56.261	-200.000	106.799	621.730
-55.246	515.488	1512.789	3459.774
-54.232	176.141	2704.181	3844.976
-53.217	111.492	2163.916	2555.421
-52.203	41.306	1600.450	1417.082
-51.188	32.746	1336.272	1132.017
-50.173	29.698	1295.007	1079.250
-49.159	54.248	1349.647	1271.778
-48.144	54.441	1364.723	1287.085
-47.130	32.876	1319.300	1118.235
-46.115	29.377	1302.196	1083.184
-45.100	29.219	1296.621	1077.580
-44.086	29.243	1294.100	1075.582
-43.071	29.159	1291.459	1072.854
-42.057	29.013	1289.920	1070.687
-41.042	29.150	1287.816	1069.694
-40.027	29.113	1286.616	1068.440
-39.013	29.095	1284.938	1066.897
-37.998	29.146	1283.009	1065.550
-36.984	29.217	1281.239	1064.447
-35.969	29.288	1279.029	1062.978
-34.954	29.246	1277.736	1061.619
-33.940	29.431	1275.617	1060.879
-32.925	29.364	1274.743	1059.726
-31.911	29.339	1273.364	1058.393
-30.896	29.344	1271.984	1057.234
-29.881	29.414	1270.530	1056.385
-28.867	29.383	1269.095	1054.974
-27.852	29.385	1267.930	1053.972
-26.838	29.328	1266.485	1052.406
-25.823	29.389	1265.084	1051.547
-24.809	29.268	1263.882	1049.815
-23.794	29.268	1262.871	1048.937
-22.779	29.412	1261.185	1048.312
-21.765	29.394	1260.078	1047.247
-20.750	29.327	1258.795	1045.763
-19.736	29.237	1257.343	1044.004
-18.721	29.127	1256.035	1042.252
-17.706	29.307	1254.604	1042.042
-16.692	29.225	1254.389	1041.355
-15.677	29.261	1252.640	1040.069
-14.663	29.054	1252.226	1038.515
-13.648	29.061	1250.952	1037.459
-12.633	29.111	1249.970	1036.885
-11.619	29.208	1248.951	1036.540
-10.604	29.278	1247.860	1035.988
-9.590	29.237	1247.137	1035.119
-8.575	29.064	1246.771	1033.800
-7.560	29.251	1245.148	1033.460
-6.546	29.181	1244.772	1032.716
-5.531	29.095	1243.903	1031.471
-4.517	29.270	1243.154	1031.792
-3.502	29.252	1242.111	1030.787
-2.487	29.205	1241.161	1029.690
-1.473	29.141	1237.597	1026.338
-0.458	27.937	1221.916	1006.664
0.556	22.200	1205.611	970.271
1.571	18.843	1211.245	956.070
2.586	18.121	1225.678	963.312
3.600	17.903	1215.365	953.902
4.615	13.102	1143.626	872.221
5.629	4.194	1068.895	771.004
6.644	0.028	1049.407	736.510
7.659	-0.379	1047.095	732.833
8.673	-0.465	1046.196	731.718
9.688	-0.383	1044.089	730.578
10.702	-0.074	1042.901	731.189
11.717	5.609	1050.968	764.584
12.731	14.837	1063.422	818.985
13.746	19.355	1069.935	846.148
14.761	20.328	1070.734	851.484
15.775	20.428	1069.806	851.159
16.790	20.151	1069.192	849.240
17.804	20.063	1068.740	848.371
18.819	20.283	1068.131	848.890
19.834	20.413	1067.893	849.264
20.848	20.338	1067.494	848.505
21.863	20.350	1067.104	848.177
22.877	20.228	1066.006	846.632
23.892	20.213	1065.423	846.023
24.907	20.310	1064.476	845.668
25.921	20.191	1063.705	844.402
26.936	20.237	1062.549	843.635
27.950	20.197	1060.774	841.953
28.965	20.132	1058.582	839.827
29.980	20.285	1056.946	839.196
30.994	20.339	1056.349	838.905
32.009	20.407	1054.576	837.750
33.023	20.046	1053.674	835.220
34.038	20.175	1053.503	835.634
35.053	20.286	1052.907	835.620
36.067	20.423	1051.546	835.125
37.082	20.356	1050.864	834.187
38.096	20.510	1050.436	834.517
39.111	20.718	1048.964	834.267
40.126	20.474	1047.759	832.069
41.140	20.180	1046.094	829.266
42.155	19.887	1044.677	826.669
43.169	20.061	1043.564	826.547
44.184	20.085	1042.917	826.077
45.199	19.933	1041.584	824.222
46.213	19.915	1040.454	823.171
47.228	20.160	1039.810	823.751
48.242	20.232	1038.848	823.258
49.257	20.255	1038.138	822.735
50.271	20.262	1037.346	822.064
51.286	20.295	1036.846	821.753
52.301	20.387	1035.461	821.018
53.315	20.226	1034.605	819.507
54.330	20.316	1033.386	818.894
55.344	20.334	1033.036	818.629
56.359	20.349	1031.570	817.461
57.374	19.994	1031.134	815.377
58.388	20.284	1029.831	815.633
59.403	20.142	1029.306	814.481
60.417	19.949	1028.527	812.887
61.432	20.124	1028.020	813.233
62.447	20.159	1027.436	812.865
63.461	20.152	1026.637	812.128
64.476	20.076	1025.842	811.073
65.490	20.026	1024.280	809.532
66.505	20.044	1023.661	809.054
67.520	20.060	1023.132	808.640
68.534	19.818	1022.304	806.783
69.549	19.633	1021.154	804.941
70.563	19.669	1020.310	804.372
71.578	19.822	1019.129	804.084
72.593	19.603	1018.599	802.577
73.607	19.771	1017.444	802.374
74.622	19.950	1017.364	803.070
75.636	20.031	1016.822	802.949
76.651	19.929	1015.633	801.467
77.666	19.766	1014.892	800.057
78.680	19.799	1014.640	799.938
79.695	19.912	1013.594	799.567
80.709	20.044	1012.766	799.453
81.724	19.999	1012.281	798.791
82.739	20.072	1011.280	798.264
83.753	20.386	1010.623	799.121
84.768	20.513	1009.776	798.968
85.782	20.582	1009.132	798.705
86.797	20.475	1007.952	797.205
87.812	20.396	1007.108	796.107
88.826	20.468	1006.392	795.799
89.841	20.585	1005.123	795.263
90.855	20.636	1004.263	794.744
91.870	20.585	1003.471	793.814
92.884	20.414	1002.258	792.006
93.899	20.347	1001.280	790.856
94.914	20.564	1000.479	791.140
95.928	20.285	999.642	789.142
96.943	20.241	998.038	787.602
97.957	19.938	996.769	785.159
98.972	19.832	995.850	783.886
99.987	20.047	995.200	784.277
101.001	20.218	994.487	784.419
102.016	20.227	993.953	783.972
103.030	20.191	992.194	782.353
104.045	20.029	991.273	780.827
105.060	19.931	990.541	779.740
106.074	20.052	990.037	779.818
107.089	20.410	989.145	780.653
108.103	20.267	988.400	779.358
109.118	20.132	986.888	777.489
110.133	20.128	985.885	776.613
111.147	19.965	984.802	774.964
112.162	19.820	983.458	773.186
113.176	20.137	983.156	774.299
114.191	20.011	982.058	772.803
115.206	19.536	981.058	769.831
116.220	19.721	980.343	770.022
117.235	19.726	979.386	769.227
118.249	19.763	978.574	768.684
119.264	19.727	977.715	767.782
120.279	19.912	976.761	767.787
121.293	19.943	976.029	767.282
122.308	19.767	975.166	765.757
123.322	19.858	974.075	765.235
124.337	19.683	973.201	763.707
125.352	19.198	970.868	759.667
126.366	19.136	970.496	759.035
127.381	19.929	970.039	762.105
128.395	20.279	969.680	763.295
129.410	20.410	968.687	763.021
130.424	20.373	967.260	761.670
131.439	20.206	966.815	760.517
132.454	20.266	965.774	759.897
133.468	20.187	964.808	758.723
134.483	20.285	964.295	758.677
135.497	20.383	963.760	758.618
136.512	20.521	962.497	758.162
137.527	20.397	961.828	757.026
138.541	20.537	960.784	756.748
139.556	20.523	960.047	756.037
140.570	20.576	959.265	755.586
141.585	20.544	958.159	754.509
142.600	20.580	957.139	753.798
143.614	20.619	956.886	753.700
144.629	20.819	955.952	753.763
145.643	20.649	954.158	751.546
146.658	20.429	953.177	749.759
147.673	20.536	952.023	749.244
148.687	20.446	950.962	747.957
149.702	20.209	950.203	746.272
150.716	20.254	949.352	745.731
151.731	20.351	948.624	745.509
152.746	20.736	947.993	746.601
153.760	20.725	947.305	745.947
154.775	20.775	946.856	745.742
155.789	20.671	946.450	744.909
156.804	20.749	944.716	743.814
157.819	20.679	944.409	743.204
158.833	20.792	943.708	743.070
159.848	20.802	942.696	742.251
160.862	20.621	941.680	740.616
161.877	20.676	940.842	740.125
162.892	20.793	939.878	739.798
163.906	20.746	938.742	738.640
164.921	20.710	937.793	737.671
165.935	20.783	937.064	737.345
166.950	20.746	935.988	736.274
167.964	20.698	935.322	735.485
168.979	20.588	934.343	734.185
169.994	20.493	933.071	732.719
171.008	20.888	932.465	733.844
172.023	20.765	931.707	732.666
173.037	20.520	930.613	730.711
174.052	20.492	929.530	729.676
175.067	20.493	929.020	729.215
176.081	20.586	928.527	729.155
177.096	20.577	927.885	728.549
178.110	20.225	927.055	726.356
179.125	20.006	926.251	724.747
180.140	20.005	925.935	724.432
181.154	20.202	926.182	725.384
182.169	20.569	925.546	726.356
183.183	20.705	925.009	726.438
184.198	20.704	923.794	725.416
185.213	20.553	923.208	724.261
186.227	20.645	922.545	724.060
187.242	20.677	921.858	723.590
188.256	20.754	920.854	723.057
189.271	20.948	920.025	723.147
190.286	20.521	919.129	720.609
191.300	19.927	917.799	717.043
192.315	19.185	916.232	712.687
193.329	19.294	915.913	712.825
194.344	20.104	916.184	716.326
195.359	20.609	916.174	718.338
196.373	20.673	915.733	718.193
197.388	20.513	915.415	717.220
198.402	20.500	914.543	716.422
199.417	20.490	913.687	715.645
200.432	20.090	912.990	713.389
201.446	20.145	911.853	712.665
202.461	20.156	911.368	712.268
203.475	19.300	909.213	707.012
204.490	18.694	908.020	703.535
205.504	19.615	908.625	707.719
206.519	20.204	908.514	709.981
207.534	20.286	907.786	709.684
208.548	20.630	907.802	711.041
209.563	20.481	906.738	709.538
210.577	20.508	906.045	709.044
211.592	20.966	905.316	710.276
212.607	20.700	904.815	708.738
213.621	20.670	904.158	708.038
214.636	20.855	903.463	708.182
215.650	20.750	902.690	707.089
216.665	20.754	902.297	706.732
217.680	20.864	901.098	706.178
218.694	20.339	899.750	702.935
219.709	20.287	899.155	702.197
220.723	20.424	899.145	702.680
221.738	20.665	898.300	702.931
222.753	20.514	897.888	701.937
223.767	20.569	897.617	701.883
224.782	20.840	896.548	702.080
225.796	20.882	896.146	701.870
226.811	20.075	894.558	697.320
227.826	19.638	893.446	694.635
228.840	19.717	893.155	694.663
229.855	20.028	892.030	694.977
230.869	19.529	891.112	692.198
231.884	19.949	891.453	694.086
232.899	20.789	891.278	697.254
233.913	20.600	890.761	696.032
234.928	20.557	890.466	695.568
235.942	20.638	889.432	695.023
236.957	20.261	888.147	692.454
237.972	20.299	887.960	692.398
238.986	20.276	887.598	691.961
240.001	20.281	887.191	691.601
241.015	20.379	886.533	691.417
242.030	20.450	885.779	691.051
243.045	20.608	885.372	691.300
244.059	20.836	884.650	691.583
245.074	20.677	883.494	689.987
246.088	20.158	882.697	687.248
247.103	20.505	882.253	688.213
248.117	21.110	882.460	690.709
249.132	21.236	881.837	690.660
250.147	21.276	881.644	690.605
251.161	21.346	880.693	690.076
252.176	21.389	879.949	689.603
253.190	21.504	879.310	689.493
254.205	21.600	879.160	689.694
255.220	21.526	878.371	688.723
256.234	21.405	877.306	687.351
257.249	21.215	876.803	686.147
258.263	21.352	876.092	686.071
259.278	21.418	875.456	685.768
260.293	21.407	874.897	685.228
261.307	21.302	874.366	684.338
262.322	21.143	873.583	683.045
263.336	20.343	871.251	678.036
264.351	19.396	869.119	672.628
265.366	19.546	869.380	673.356
266.380	20.753	869.809	678.332
267.395	21.137	869.326	679.391
268.409	21.086	868.607	678.569
269.424	21.273	868.047	678.800
270.439	21.211	867.759	678.273
271.453	21.326	867.159	678.192
272.468	21.586	866.880	678.921
273.482	21.603	866.229	678.419
274.497	21.071	864.903	675.261
275.512	20.729	863.946	673.132
276.526	21.216	863.964	674.967
277.541	21.280	863.662	674.922
278.555	21.180	862.677	673.706
279.570	21.006	861.638	672.162
280.585	21.231	861.097	672.549
281.599	21.039	860.516	671.295
282.614	20.510	859.117	668.114
283.628	20.506	859.034	667.973
284.643	21.075	858.116	669.385
285.657	20.530	857.273	666.579
286.672	20.370	856.251	665.109
287.687	20.834	856.488	667.015
288.701	20.963	855.658	666.803
289.716	20.534	854.912	664.523
290.730	20.555	854.283	664.053
291.745	20.156	853.183	661.618
292.760	20.590	853.159	663.198
293.774	21.567	853.285	666.960
294.789	21.650	853.424	667.325
295.803	21.776	852.687	667.172
296.818	21.914	851.830	666.967
297.833	21.596	850.632	664.760
298.847	21.241	850.261	663.065
299.862	21.602	850.129	664.273
300.876	21.801	849.841	664.743
301.891	21.577	848.955	663.143
302.906	21.326	847.769	661.209
303.920	21.580	847.287	661.737
304.935	21.866	847.062	662.581
305.949	21.677	846.812	661.612
306.964	21.553	845.932	660.401
307.979	21.624	845.526	660.292
308.993	21.918	845.208	661.093
310.008	21.855	844.580	660.306
311.022	21.706	843.872	659.132
312.037	21.481	843.327	657.802
313.052	21.403	842.349	656.690
314.066	20.460	840.623	651.750
315.081	20.216	840.274	650.507
316.095	20.892	840.708	653.320
317.110	21.315	840.743	654.878
318.125	20.672	838.705	650.825
319.139	19.786	837.094	646.209
320.154	19.724	837.022	645.866
321.168	20.545	837.249	649.052
322.183	21.148	837.431	651.385
323.197	21.410	836.855	651.856
324.212	21.515	836.561	651.961
325.227	21.599	836.063	651.826
326.241	21.564	835.133	650.916
327.256	21.501	834.573	650.185
328.270	21.325	834.147	649.142
329.285	21.107	833.376	647.675
330.300	21.044	832.452	646.667
331.314	21.175	832.232	646.924
332.329	21.521	832.143	648.079
333.343	21.701	831.690	648.334
334.358	21.644	831.035	647.556
335.373	21.856	830.383	647.777
336.387	22.129	830.700	648.974
337.402	22.062	830.520	648.528
338.416	22.000	829.914	647.770
339.431	22.119	829.250	647.632
340.446	22.120	829.542	647.806
341.460	21.973	828.924	646.724
342.475	21.908	828.125	645.807
343.489	22.073	827.464	645.838
344.504	22.237	827.562	646.463
345.519	22.452	827.062	646.803
346.533	22.466	826.941	646.703
347.548	22.506	826.313	646.302
348.562	22.454	825.560	645.464
349.577	22.283	825.279	644.560
350.592	22.353	824.535	644.181
351.606	22.487	823.443	643.759
352.621	22.262	823.036	642.563
353.635	22.290	821.804	641.644
354.650	21.567	820.396	637.857
355.665	20.653	819.203	633.545
356.679	21.083	819.002	634.900
357.694	21.549	818.495	636.145
358.708	21.374	817.804	634.914
359.723	21.685	818.079	636.203
360.738	22.163	817.505	637.433
361.752	22.145	817.248	637.110
362.767	22.514	816.615	637.897
363.781	22.667	816.424	638.246
364.796	22.608	815.918	637.579
365.810	22.704	815.621	637.637
366.825	22.625	815.488	637.191
367.840	22.294	814.261	634.984
368.854	22.095	813.513	633.625
369.869	22.141	812.875	633.239
370.883	22.153	812.548	632.971
371.898	22.069	811.980	632.172
372.913	22.087	811.912	632.127
373.927	22.242	811.283	632.138
374.942	22.302	811.379	632.372
375.956	22.532	810.837	632.721
376.971	22.650	810.009	632.441
377.986	22.894	809.472	632.841
379.000	22.703	809.144	631.844
380.015	22.528	808.601	630.736
381.029	22.534	808.520	630.638
382.044	22.717	807.558	630.489
383.059	22.646	806.964	629.714
384.073	22.718	806.754	629.751
385.088	22.643	806.071	628.895
386.102	22.616	805.109	627.993
387.117	22.569	804.467	627.268
388.132	22.172	803.655	625.168
389.146	21.702	802.495	622.541
390.161	22.083	802.410	623.773
391.175	22.432	802.267	624.848
392.190	22.126	801.639	623.217
393.205	20.922	799.282	617.070
394.219	19.584	797.766	611.111
395.234	19.533	797.802	610.904
396.248	21.158	798.926	617.467
397.263	22.571	799.647	622.966
398.278	22.332	799.501	621.954
399.292	22.146	798.723	620.638
400.307	21.916	798.504	619.599
401.321	22.132	798.213	620.081
402.336	22.568	797.733	621.191
403.350	22.888	797.510	622.090
404.365	23.258	797.212	623.105
405.380	23.302	797.244	623.229
406.394	23.588	796.271	623.417
407.409	23.469	795.933	622.682
408.423	23.257	795.793	621.771
409.438	23.484	795.252	622.090
410.453	23.519	794.474	621.548
411.467	23.330	794.173	620.595
412.482	23.373	793.990	620.548
413.496	23.357	793.582	620.118
414.511	23.460	793.228	620.147
415.526	23.474	792.534	619.598
416.540	23.304	791.700	618.300
417.555	23.014	791.066	616.738
418.569	23.224	790.836	617.236
419.584	23.078	790.429	616.356
420.599	22.968	789.657	615.314
421.613	158.327	1364.701	1798.734
422.628	137.130	1448.466	1798.850
