DTS Sentinel unit serial number:	SN413079Multiplexer serial number:	ORYXHardware model number:	OX4-SRSoftware version number:	ORYX F/W v4.00 Oryx Data Collector v3.7.2.0data status	okinstallation	princeton_trtdifferential loss correction	single-endedforward channel	channel 1reverse channel	N/Adate	2019/09/15time	18:58:35forward acquisition time	60.00reverse acquisition time	0.00gamma	496.2192k internal	0.2291k external	0.2291temperature offset calibration	0.9945default loss term (dB/km)	0.3790temperature slope calibration	1.0000multiplexer offset coefficient	1.0000multiplexer slope coefficient	1.0000fibre end	0.00T internal ref (°C)	42.31T ext. ref 1 (°C)	7.01T ext. ref 2 (°C)	32.10length (m)	temperature (°C)	Stokes	anti-Stokes-747.200	-106.916	0.249	0.056
-746.185	353.830	-0.124	0.251
-745.171	127.630	0.113	0.147
-744.156	65.717	-0.180	0.187
-743.142	-54.499	0.340	0.158
-742.127	-200.000	0.005	0.293
-741.112	528.918	0.122	-0.294
-740.098	60.756	0.203	-0.206
-739.083	153.056	0.119	0.167
-738.069	-44.879	-0.215	0.110
-737.054	-54.478	0.120	0.056
-736.039	-63.817	0.071	-0.030
-735.025	800.000	0.040	0.149
-734.010	800.000	-0.121	0.357
-732.996	514.027	-0.081	-0.193
-731.981	-11.765	-0.082	-0.055
-730.966	-93.299	-0.213	0.060
-729.952	-16.146	-0.345	-0.224
-728.937	25.303	-0.074	-0.063
-727.923	-134.818	-0.392	0.049
-726.908	332.344	0.159	-0.315
-725.894	-136.318	-0.324	-0.039
-724.879	800.000	0.039	0.157
-723.864	77.319	0.166	0.181
-722.850	800.000	0.016	-0.047
-721.835	-101.416	-0.355	-0.088
-720.821	-126.045	0.278	0.043
-719.806	-77.829	-0.268	-0.095
-718.791	-160.725	-0.356	0.019
-717.777	-9.315	-0.310	-0.212
-716.762	2.230	0.048	0.036
-715.748	-64.794	-0.259	0.107
-714.733	94.326	-0.071	-0.083
-713.718	57.549	-0.178	-0.178
-712.704	116.593	0.137	-0.172
-711.689	7.934	0.237	-0.182
-710.675	-70.100	0.087	-0.034
-709.660	-110.904	-0.362	-0.076
-708.645	48.527	0.278	-0.266
-707.631	9.722	-0.226	-0.175
-706.616	-63.658	0.054	-0.023
-705.602	203.892	-0.105	0.166
-704.587	-53.958	-0.038	0.018
-703.572	-152.638	0.271	0.020
-702.558	251.362	0.058	0.101
-701.543	-169.576	0.368	0.014
-700.529	800.000	-0.056	-0.210
-699.514	-177.533	-0.036	0.001
-698.499	394.325	-0.068	0.144
-697.485	-177.570	0.286	-0.007
-696.470	116.749	-0.039	0.049
-695.456	-85.426	0.276	-0.088
-694.441	-121.499	-0.279	-0.047
-693.426	-46.456	-0.187	-0.094
-692.412	-200.000	0.026	-0.136
-691.397	800.000	-0.069	0.257
-690.383	-200.000	-0.011	0.278
-689.368	-200.000	-0.004	0.104
-688.354	800.000	-0.075	-0.224
-687.339	272.976	0.156	0.281
-686.324	406.389	-0.065	-0.141
-685.310	148.319	0.097	-0.134
-684.295	-75.252	-0.261	0.095
-683.281	-32.944	-0.256	-0.145
-682.266	150.087	-0.258	-0.357
-681.251	-200.000	0.043	0.223
-680.237	48.544	-0.275	-0.263
-679.222	-200.000	-0.031	-0.181
-678.208	-110.087	0.134	-0.029
-677.193	-13.867	0.134	0.088
-676.178	-200.000	-0.084	0.543
-675.164	800.000	-0.045	-0.150
-674.149	-88.201	-0.140	0.043
-673.135	115.512	0.210	0.262
-672.120	328.341	0.091	-0.178
-671.105	-113.084	-0.307	0.062
-670.091	-145.023	0.176	-0.016
-669.076	-40.488	-0.189	0.100
-668.062	-200.000	0.012	-0.204
-667.047	-141.997	-0.168	-0.017
-666.032	-166.635	0.343	0.015
-665.018	-4.540	0.139	-0.098
-664.003	-200.000	0.011	0.110
-662.989	-125.296	0.245	0.038
-661.974	7.241	0.175	-0.133
-660.959	-40.980	0.222	-0.117
-659.945	46.896	0.158	0.150
-658.930	-89.445	0.132	0.040
-657.916	-89.052	0.349	-0.105
-656.901	-58.337	0.562	-0.249
-655.886	-132.884	0.163	0.021
-654.872	-200.000	0.020	-0.099
-653.857	-59.861	-0.122	-0.053
-652.843	207.613	0.080	-0.127
-651.828	676.784	0.077	0.203
-650.814	-70.239	-0.189	-0.073
-649.799	-30.399	-0.240	0.139
-648.784	-200.000	-0.034	0.226
-647.770	-69.064	-0.207	0.081
-646.755	338.642	0.029	0.059
-645.741	-34.851	0.148	-0.082
-644.726	-200.000	0.018	0.104
-643.711	-4.530	0.313	-0.221
-642.697	-200.000	0.053	0.266
-641.682	-84.677	-0.144	-0.046
-640.668	-200.000	-0.002	-0.247
-639.653	314.335	-0.102	0.196
-638.638	361.093	0.151	-0.308
-637.624	438.785	-0.052	0.116
-636.609	49.275	0.243	-0.233
-635.595	-200.000	0.035	-0.179
-634.580	392.894	0.051	0.108
-633.565	142.721	-0.139	-0.189
-632.551	-83.891	-0.334	-0.108
-631.536	16.814	-0.125	0.101
-630.522	14.750	-0.286	-0.228
-629.507	-55.242	-0.086	-0.039
-628.492	40.458	0.187	-0.172
-627.478	-200.000	-0.116	-0.000
-626.463	-200.000	-0.014	-0.184
-625.449	48.553	0.230	-0.220
-624.434	-30.419	0.144	-0.083
-623.419	166.013	-0.125	0.180
-622.405	563.256	0.064	-0.158
-621.390	-24.655	0.123	-0.074
-620.376	323.257	0.109	0.212
-619.361	-200.000	0.046	-0.348
-618.346	-80.327	-0.121	0.041
-617.332	59.927	-0.060	-0.060
-616.317	256.717	-0.141	0.247
-615.303	73.523	-0.097	-0.103
-614.288	-108.137	0.197	-0.044
-613.273	-109.306	-0.283	0.061
-612.259	800.000	0.095	-0.276
-611.244	-176.530	0.181	0.005
-610.230	-79.465	-0.176	-0.061
-609.215	-118.468	-0.417	0.075
-608.201	800.000	-0.058	-0.236
-607.186	-9.875	-0.206	0.140
-606.171	-155.330	-0.139	0.009
-605.157	-188.360	-0.186	-0.002
-604.142	196.605	0.138	-0.213
-603.128	552.031	0.075	0.183
-602.113	800.000	0.052	-0.174
-601.098	800.000	-0.065	-0.275
-600.084	120.317	-0.110	-0.139
-599.069	46.660	-0.176	0.166
-598.055	800.000	0.032	-0.101
-597.040	-124.928	-0.595	0.093
-596.025	-8.336	-0.378	0.259
-595.011	-200.000	0.033	0.221
-593.996	70.748	0.024	-0.025
-592.982	-200.000	-0.045	0.363
-591.967	21.299	-0.060	0.049
-590.952	-200.000	-0.012	-0.173
-589.938	84.127	-0.222	0.247
-588.923	-200.000	-0.005	-0.287
-587.909	800.000	-0.060	0.228
-586.894	-52.781	-0.119	-0.056
-585.879	131.833	0.138	0.181
-584.865	-200.000	-0.021	-0.129
-583.850	-12.189	0.131	-0.087
-582.836	-22.149	-0.234	-0.145
-581.821	154.472	-0.068	0.095
-580.806	-113.137	-0.227	-0.046
-579.792	77.665	-0.079	-0.085
-578.777	-200.000	0.029	-0.258
-577.763	-101.423	-0.309	-0.077
-576.748	340.914	-0.100	-0.199
-575.733	-200.000	0.089	-0.403
-574.719	119.090	0.015	0.019
-573.704	-182.060	0.334	0.006
-572.690	800.000	-0.070	-0.199
-571.675	273.663	-0.018	0.032
-570.661	494.878	0.093	0.217
-569.646	80.395	0.050	0.054
-568.631	1.561	0.180	-0.132
-567.617	-122.477	0.303	0.050
-566.602	156.245	0.133	0.187
-565.588	800.000	0.127	-0.395
-564.573	-104.778	0.326	0.076
-563.558	83.822	0.244	0.270
-562.544	-60.267	-0.089	-0.039
-561.529	182.557	0.008	0.011
-560.515	-60.542	-0.046	-0.020
-559.500	-200.000	0.024	0.178
-558.485	-200.000	0.013	0.178
-557.471	-200.000	0.221	0.001
-556.456	48.966	-0.064	0.061
-555.442	364.942	0.094	0.192
-554.427	737.335	-0.132	0.361
-553.412	-60.612	-0.005	-0.002
-552.398	8.592	0.136	-0.104
-551.383	-66.110	0.229	-0.093
-550.369	319.686	0.085	-0.163
-549.354	-104.803	-0.426	-0.100
-548.339	800.000	0.054	0.182
-547.325	-200.000	-0.010	-0.154
-546.310	-147.314	-0.188	-0.016
-545.296	-89.860	-0.143	-0.042
-544.281	-177.059	0.234	-0.006
-543.266	-200.000	0.005	0.086
-542.252	-143.764	0.315	0.030
-541.237	-200.000	-0.045	0.217
-540.223	-105.083	-0.169	-0.039
-539.208	360.744	-0.085	0.174
-538.193	-200.000	0.039	0.287
-537.179	-200.000	0.011	-0.118
-536.164	-200.000	-0.018	0.285
-535.150	292.230	-0.104	0.193
-534.135	-89.110	0.057	-0.017
-533.121	87.854	0.211	0.238
-532.106	144.009	-0.184	-0.250
-531.091	103.041	-0.021	0.025
-530.077	-47.556	-0.071	0.035
-529.062	-149.145	-0.205	0.017
-528.048	19.446	-0.068	0.056
-527.033	-200.000	-0.022	-0.169
-526.018	69.650	0.166	-0.174
-525.004	405.199	0.114	0.245
-523.989	74.081	0.051	-0.054
-522.975	800.000	0.101	0.333
-521.960	800.000	0.038	-0.127
-520.945	95.423	0.149	-0.172
-519.931	-53.242	-0.127	-0.059
-518.916	800.000	-0.114	-0.437
-517.902	-101.426	-0.265	0.066
-516.887	-200.000	0.009	-0.160
-515.872	800.000	-0.003	0.010
-514.858	-131.369	-0.248	0.033
-513.843	209.134	-0.160	0.254
-512.829	-200.000	-0.042	-0.339
-511.814	-2.310	0.122	0.087
-510.799	-200.000	0.018	-0.194
-509.785	527.555	0.102	0.244
-508.770	-200.000	-0.041	-0.298
-507.756	349.128	0.055	-0.110
-506.741	-200.000	-0.052	-0.234
-505.726	195.796	-0.109	-0.167
-504.712	-200.000	0.012	0.151
-503.697	68.017	-0.143	0.148
-502.683	-200.000	-0.012	0.086
-501.668	105.116	0.080	-0.095
-500.653	84.703	0.122	0.135
-499.639	-200.000	0.000	-0.268
-498.624	-179.790	0.245	0.005
-497.610	-67.734	0.292	-0.116
-496.595	-175.283	0.112	0.003
-495.581	-24.014	-0.148	0.090
-494.566	191.864	0.046	-0.070
-493.551	199.058	0.139	0.217
-492.537	-200.000	-0.055	0.261
-491.522	376.603	-0.083	0.171
-490.508	114.378	0.139	0.172
-489.493	-29.211	0.145	-0.084
-488.478	239.738	0.195	-0.330
-487.464	126.759	-0.212	0.273
-486.449	120.327	-0.045	0.057
-485.435	-26.828	-0.313	0.185
-484.420	-60.234	-0.178	-0.077
-483.405	800.000	0.042	-0.178
-482.391	306.381	-0.097	-0.183
-481.376	70.129	0.159	-0.166
-480.362	16.595	-0.056	0.045
-479.347	-92.890	0.059	0.017
-478.332	-86.274	0.159	0.049
-477.318	282.299	-0.085	0.155
-476.303	-2.948	-0.046	0.033
-475.289	38.641	0.275	-0.248
-474.274	-200.000	0.017	-0.188
-473.259	345.535	0.097	0.194
-472.245	47.234	0.266	0.251
-471.230	800.000	-0.062	-0.225
-470.216	62.838	-0.049	0.050
-469.201	680.333	0.040	0.106
-468.186	-71.027	0.716	-0.273
-467.172	484.002	0.027	0.063
-466.157	86.175	0.125	-0.140
-465.143	5.307	0.201	0.150
-464.128	800.000	-0.072	-0.211
-463.113	40.939	-0.371	0.340
-462.099	23.080	0.393	-0.326
-461.084	392.069	-0.105	-0.222
-460.070	-200.000	-0.006	0.205
-459.055	42.125	-0.093	-0.086
-458.040	-122.701	0.026	-0.004
-457.026	-71.906	-0.217	-0.082
-456.011	-200.000	-0.045	-0.363
-454.997	-106.703	-0.174	0.039
-453.982	506.050	-0.051	-0.119
-452.968	95.539	0.062	0.071
-451.953	501.332	0.086	-0.202
-450.938	-120.805	-0.368	-0.063
-449.924	-145.090	0.216	0.020
-448.909	93.681	0.200	-0.229
-447.895	271.304	-0.148	0.263
-446.880	800.000	0.087	0.250
-445.865	-146.464	-0.242	-0.021
-444.851	129.554	0.099	-0.128
-443.836	127.685	-0.035	0.044
-442.822	124.605	0.116	-0.148
-441.807	-200.000	-0.012	0.060
-440.792	-74.897	-0.294	-0.107
-439.778	124.117	0.124	0.157
-438.763	-141.368	-0.363	0.037
-437.749	514.680	0.060	-0.141
-436.734	358.709	0.041	0.083
-435.719	-62.671	-0.124	-0.052
-434.705	668.009	0.017	-0.044
-433.690	-23.988	0.031	0.019
-432.676	-99.419	-0.230	-0.059
-431.661	549.808	-0.093	0.226
-430.646	707.561	-0.064	0.171
-429.632	-89.086	-0.105	-0.031
-428.617	97.557	-0.132	0.154
-427.603	127.878	0.212	0.273
-426.588	-200.000	-0.094	0.441
-425.573	-137.992	-0.185	0.021
-424.559	16.887	-0.081	0.065
-423.544	595.711	0.020	-0.050
-422.530	100.505	-0.056	-0.066
-421.515	40.614	-0.071	-0.065
-420.500	800.000	0.098	-0.313
-419.486	-200.000	-0.032	0.262
-418.471	-63.582	0.228	-0.095
-417.457	134.816	-0.234	-0.307
-416.442	-67.098	0.121	-0.048
-415.428	60.553	0.079	0.079
-414.413	209.187	0.146	0.231
-413.398	602.520	0.129	-0.325
-412.384	417.462	-0.130	0.281
-411.369	508.516	-0.069	-0.162
-410.355	203.813	-0.267	0.418
-409.340	800.000	0.069	-0.218
-408.325	-17.791	0.219	-0.139
-407.311	-154.152	0.033	0.002
-406.296	-200.000	0.029	0.289
-405.282	800.000	0.017	-0.057
-404.267	15.488	-0.126	-0.100
-403.252	-200.000	0.008	-0.296
-402.238	-141.724	-0.102	0.010
-401.223	-200.000	0.049	0.264
-400.209	221.364	-0.071	-0.114
-399.194	-184.777	0.230	-0.004
-398.179	-142.221	0.111	0.011
-397.165	-42.490	0.186	-0.096
-396.150	-133.951	-0.193	-0.024
-395.136	-200.000	-0.010	0.050
-394.121	-115.628	0.389	0.074
-393.106	-172.299	0.290	0.009
-392.092	42.810	-0.280	-0.258
-391.077	79.227	0.189	0.205
-390.063	-200.000	0.043	0.206
-389.048	-46.819	0.177	0.087
-388.033	-197.913	-0.122	0.001
-387.019	279.848	-0.074	-0.134
-386.004	239.848	0.258	-0.434
-384.990	-129.245	-0.247	-0.035
-383.975	-5.102	-0.136	-0.095
-382.960	-200.000	-0.024	0.150
-381.946	-60.900	-0.139	-0.059
-380.931	-99.163	0.030	-0.008
-379.917	184.103	0.059	-0.088
-378.902	107.452	0.104	-0.125
-377.888	-60.101	0.175	-0.075
-376.873	-47.504	-0.068	-0.034
-375.858	800.000	-0.079	-0.347
-374.844	50.525	0.146	-0.139
-373.829	-200.000	-0.021	0.176
-372.815	800.000	-0.122	0.397
-371.800	62.222	0.116	0.117
-370.785	159.575	-0.086	-0.120
-369.771	-31.007	-0.242	-0.138
-368.756	355.297	-0.138	0.277
-367.742	415.546	0.114	-0.246
-366.727	-200.000	0.031	0.340
-365.712	-200.000	0.003	0.218
-364.698	233.657	-0.018	-0.030
-363.683	-62.843	0.267	0.111
-362.669	20.439	0.073	-0.059
-361.654	-200.000	0.042	-0.219
-360.639	-89.808	-0.450	0.133
-359.625	306.797	-0.017	-0.032
-358.610	-200.000	0.281	0.001
-357.596	368.162	0.085	-0.173
-356.581	87.139	-0.104	-0.116
-355.566	800.000	-0.122	-0.370
-354.552	800.000	0.040	0.130
-353.537	-200.000	0.028	0.182
-352.523	-104.514	0.224	-0.052
-351.508	-130.440	0.142	-0.019
-350.493	323.723	-0.043	0.083
-349.479	-62.693	-0.249	-0.104
-348.464	162.869	0.060	0.085
-347.450	14.185	-0.115	0.091
-346.435	800.000	-0.034	0.128
-345.420	-200.000	0.089	0.467
-344.406	800.000	-0.035	0.102
-343.391	-91.334	-0.340	-0.098
-342.377	-111.939	-0.218	0.044
-341.362	-200.000	0.002	-0.246
-340.348	-82.977	-0.133	0.043
-339.333	22.923	-0.196	-0.162
-338.318	-200.000	-0.022	-0.101
-337.304	-200.000	-0.042	0.316
-336.289	139.936	0.192	0.255
-335.275	360.132	0.079	-0.159
-334.260	-200.000	-0.041	0.390
-333.245	-86.605	0.450	0.139
-332.231	25.983	-0.215	0.180
-331.216	104.611	-0.182	0.217
-330.202	73.323	-0.075	-0.079
-329.187	53.846	0.225	0.218
-328.172	-200.000	0.045	-0.211
-327.158	-40.465	-0.197	-0.103
-326.143	-174.015	0.036	0.001
-325.129	-34.159	-0.155	0.086
-324.114	-14.043	-0.206	-0.134
-323.099	-42.983	0.138	-0.070
-322.085	11.592	0.131	-0.101
-321.070	-200.000	-0.004	-0.091
-320.056	111.408	0.087	0.106
-319.041	172.964	0.107	0.155
-318.026	-150.053	-0.083	-0.007
-317.012	-163.283	0.133	-0.006
-315.997	21.535	-0.222	0.182
-314.983	-107.658	0.271	0.060
-313.968	-152.544	-0.268	-0.019
-312.953	2.812	-0.239	0.174
-311.939	-132.544	0.120	0.015
-310.924	-109.142	0.217	-0.046
-309.910	-200.000	0.026	-0.178
-308.895	372.752	0.158	-0.324
-307.880	-121.144	0.235	0.040
-306.866	-90.226	-0.248	-0.073
-305.851	-52.509	-0.396	-0.184
-304.837	-200.000	-0.019	-0.393
-303.822	795.543	-0.161	0.448
-302.807	-200.000	-0.004	0.141
-301.793	211.763	0.106	0.168
-300.778	-133.618	0.165	-0.021
-299.764	800.000	0.093	-0.333
-298.749	323.506	-0.092	0.177
-297.735	800.000	-0.046	0.156
-296.720	-200.000	0.003	0.123
-295.705	91.152	-0.202	0.228
-294.691	-88.736	0.044	0.013
-293.676	-103.819	0.280	0.066
-292.662	-10.270	-0.065	-0.044
-291.647	-165.154	-0.283	-0.013
-290.632	-93.687	0.264	0.073
-289.618	380.729	-0.121	0.250
-288.603	800.000	0.089	0.380
-287.589	-200.000	0.018	0.309
-286.574	-18.716	0.162	0.101
-285.559	-53.817	-0.292	-0.134
-284.545	-70.199	-0.280	0.107
-283.530	362.243	-0.180	0.363
-282.516	138.156	0.247	0.326
-281.501	27.910	0.092	0.078
-280.486	47.189	0.062	-0.058
-279.472	101.753	-0.140	-0.164
-278.457	-70.742	0.041	0.016
-277.443	-151.141	-0.418	0.032
-276.428	-50.989	-0.041	0.019
-275.413	500.488	0.051	-0.118
-274.399	518.300	0.078	-0.184
-273.384	800.000	-0.024	-0.107
-272.370	-200.000	0.011	-0.139
-271.355	-106.685	-0.116	-0.026
-270.340	-50.970	0.083	-0.039
-269.326	-159.647	0.147	0.008
-268.311	-105.399	0.309	-0.071
-267.297	-200.000	-0.001	0.120
-266.282	-72.052	0.340	-0.127
-265.267	55.708	0.105	-0.102
-264.253	-135.844	0.179	-0.021
-263.238	-200.000	-0.017	-0.216
-262.224	148.145	-0.202	0.274
-261.209	215.246	0.063	0.101
-260.195	-200.000	-0.010	0.226
-259.180	465.049	0.108	0.242
-258.165	-200.000	-0.062	0.332
-257.151	-15.630	0.080	0.051
-256.136	526.451	-0.041	-0.098
-255.122	-90.581	-0.150	-0.044
-254.107	-121.996	-0.135	-0.022
-253.092	44.744	0.087	-0.080
-252.078	11.283	-0.220	0.169
-251.063	-40.032	-0.249	0.130
-250.049	800.000	-0.017	-0.067
-249.034	-199.107	-0.195	0.001
-248.019	76.467	-0.209	-0.222
-247.005	-18.464	0.065	-0.041
-245.990	-114.575	0.117	-0.022
-244.976	465.639	0.166	-0.374
-243.961	1.095	0.177	-0.127
-242.946	-104.366	-0.139	-0.032
-241.932	-85.407	-0.250	0.078
-240.917	-19.171	-0.412	0.257
-239.903	800.000	-0.116	0.333
-238.888	-149.111	-0.144	-0.012
-237.873	39.402	-0.276	-0.248
-236.859	-115.583	-0.337	-0.064
-235.844	-4.764	0.156	-0.108
-234.830	-200.000	-0.033	-0.219
-233.815	-200.000	0.047	-0.308
-232.800	520.640	-0.029	0.069
-231.786	1.519	0.052	0.037
-230.771	309.675	0.082	0.154
-229.757	-200.000	0.037	0.278
-228.742	-200.000	-0.024	0.238
-227.727	62.778	-0.022	-0.022
-226.713	-119.665	-0.169	-0.029
-225.698	-49.567	-0.042	0.020
-224.684	-71.796	-0.074	0.028
-223.669	-108.181	0.155	-0.034
-222.655	-200.000	0.019	0.106
-221.640	-140.587	-0.070	0.007
-220.625	-26.438	-0.089	-0.052
-219.611	800.000	-0.057	0.185
-218.596	-200.000	-0.010	0.055
-217.582	-200.000	0.042	0.256
-216.567	-103.259	0.090	-0.021
-215.552	120.620	-0.057	0.071
-214.538	90.899	0.193	0.217
-213.523	-200.000	0.002	0.138
-212.509	558.783	-0.113	0.275
-211.494	-200.000	0.022	-0.244
-210.479	38.752	0.042	-0.037
-209.465	8.883	0.131	-0.099
-208.450	609.611	-0.138	0.346
-207.436	-200.000	0.075	0.380
-206.421	146.854	-0.189	0.254
-205.406	260.681	0.046	0.081
-204.392	68.592	-0.034	0.035
-203.377	800.000	0.083	0.257
-202.363	114.132	-0.256	-0.312
-201.348	-114.684	0.312	-0.060
-200.333	-200.000	-0.010	-0.212
-199.319	-200.000	-0.010	-0.327
-198.304	800.000	0.009	-0.025
-197.290	456.906	-0.014	-0.031
-196.275	-200.000	0.014	-0.293
-195.260	354.846	0.143	-0.285
-194.246	-200.000	-0.033	-0.289
-193.231	-200.000	-0.000	-0.180
-192.217	-33.958	0.063	0.035
-191.202	800.000	-0.090	-0.326
-190.187	-172.084	0.129	0.004
-189.173	-200.000	0.022	-0.154
-188.158	-200.000	-0.008	-0.275
-187.144	-178.542	0.270	-0.006
-186.129	-61.073	0.203	-0.086
-185.114	-152.617	0.515	0.037
-184.100	-126.074	0.292	0.044
-183.085	52.989	0.278	-0.266
-182.071	38.492	0.108	-0.096
-181.056	-99.189	0.061	0.015
-180.042	66.680	0.012	-0.012
-179.027	335.835	0.081	-0.157
-178.012	2.280	-0.253	0.183
-176.998	241.936	0.065	-0.109
-175.983	-200.000	0.020	0.123
-174.969	800.000	0.169	-0.507
-173.954	181.532	-0.075	-0.110
-172.939	800.000	0.054	-0.196
-171.925	39.453	0.272	0.244
-170.910	800.000	-0.043	0.124
-169.896	0.640	0.147	0.106
-168.881	-132.469	0.198	-0.026
-167.866	67.119	0.070	0.072
-166.852	-200.000	0.009	0.324
-165.837	187.738	-0.082	-0.122
-164.823	404.605	0.020	0.043
-163.808	280.981	-0.075	0.134
-162.793	718.412	-0.056	-0.149
-161.779	55.819	0.133	-0.129
-160.764	88.758	0.255	0.284
-159.750	-121.135	0.261	-0.044
-158.735	540.738	0.038	-0.091
-157.720	-45.715	0.075	0.037
-156.706	281.500	-0.079	0.141
-155.691	-0.306	0.099	-0.070
-154.677	19.369	0.176	-0.142
-153.662	45.931	0.073	0.067
-152.647	-122.680	0.208	0.034
-151.633	-9.464	0.188	-0.126
-150.618	-82.875	-0.151	-0.049
-149.604	-84.840	-0.152	0.048
-148.589	668.878	-0.024	0.062
-147.574	800.000	0.071	0.281
-146.560	-200.000	-0.004	-0.297
-145.545	-115.594	0.426	0.080
-144.531	-200.000	0.078	0.352
-143.516	123.751	-0.054	-0.067
-142.502	-115.332	0.154	0.029
-141.487	281.741	0.060	0.107
-140.472	643.835	0.102	-0.259
-139.458	80.972	-0.241	0.260
-138.443	-108.366	0.226	0.049
-137.429	800.000	0.101	0.352
-136.414	-37.179	-0.413	-0.221
-135.399	-25.998	0.178	0.105
-134.385	108.696	0.228	-0.272
-133.370	267.105	-0.118	0.206
-132.356	123.315	0.030	-0.038
-131.341	-200.000	0.020	-0.113
-130.326	-200.000	0.019	0.207
-129.312	-200.000	0.042	0.338
-128.297	-200.000	-0.024	0.147
-127.283	-60.599	0.226	0.096
-126.268	66.780	-0.082	-0.083
-125.253	-200.000	0.070	0.340
-124.239	576.563	0.065	0.159
-123.224	800.000	0.027	0.103
-122.210	-35.441	-0.160	-0.087
-121.195	-48.802	-0.126	-0.060
-120.180	17.233	0.145	-0.115
-119.166	-41.674	-0.340	0.175
-118.151	299.793	-0.165	-0.304
-117.137	-138.395	0.194	-0.021
-116.122	-107.796	0.217	-0.047
-115.107	800.000	-0.066	-0.209
-114.093	-200.000	0.010	0.100
-113.078	67.012	0.063	-0.064
-112.064	56.236	0.289	0.280
-111.049	106.317	-0.141	0.167
-110.034	-73.128	-0.138	-0.051
-109.020	289.883	0.083	-0.150
-108.005	21.497	-0.082	0.067
-106.991	118.947	-0.084	-0.104
-105.976	169.049	0.097	0.139
-104.962	-200.000	-0.006	0.134
-103.947	-105.888	0.064	0.014
-102.932	800.000	0.029	-0.121
-101.918	-123.823	0.256	0.040
-100.903	-71.911	0.209	-0.078
-99.889	-56.063	0.324	-0.144
-98.874	-200.000	0.024	0.156
-97.859	800.000	0.051	-0.196
-96.845	800.000	-0.087	0.273
-95.830	-56.237	-0.063	-0.028
-94.816	-200.000	0.004	-0.296
-93.801	57.457	-0.330	-0.322
-92.786	225.755	0.182	-0.294
-91.772	800.000	-0.006	-0.019
-90.757	-39.337	-0.032	-0.017
-89.743	-76.759	0.127	-0.044
-88.728	-105.075	-0.093	0.021
-87.713	-200.000	0.016	-0.295
-86.699	-58.423	-0.045	-0.019
-85.684	774.132	-0.038	0.104
-84.670	-154.709	-0.164	-0.011
-83.655	-166.505	0.107	-0.004
-82.640	-141.344	-0.398	0.040
-81.626	91.788	0.032	-0.036
-80.611	41.449	-0.153	-0.138
-79.597	-180.468	0.194	-0.004
-78.582	-123.249	0.206	0.033
-77.567	-200.000	-0.002	-0.090
-76.553	144.107	-0.051	-0.068
-75.538	-135.028	0.182	0.022
-74.524	-59.531	0.202	-0.086
-73.509	86.980	0.068	-0.075
-72.494	-7.199	0.094	0.063
-71.480	145.423	0.159	-0.213
-70.465	367.287	-0.097	0.195
-69.451	16.791	0.160	-0.126
-68.436	-98.179	0.305	0.078
-67.422	208.499	-0.124	0.194
-66.407	800.000	0.091	-0.391
-65.392	-9.519	0.301	-0.200
-64.378	437.257	-0.075	-0.164
-63.363	449.002	0.012	0.026
-62.349	92.415	-0.129	0.145
-61.334	98.854	-0.545	-0.628
-60.319	205.341	0.196	0.303
-59.305	-200.000	0.194	-1.043
-58.290	146.513	0.554	0.742
-57.276	800.000	0.607	1.845
-56.261	-200.000	76.130	534.819
-55.246	559.588	1298.060	3124.140
-54.232	150.653	2512.144	3402.129
-53.217	120.975	2213.787	2744.953
-52.203	54.545	1665.792	1600.133
-51.188	46.328	1390.660	1284.767
-50.173	42.604	1345.273	1220.226
-49.159	61.376	1380.497	1367.563
-48.144	68.499	1398.792	1429.153
-47.130	46.625	1361.440	1259.389
-46.115	42.484	1345.321	1219.349
-45.100	42.334	1340.694	1214.197
-44.086	42.121	1338.659	1211.022
-43.071	42.197	1336.207	1209.214
-42.057	42.040	1334.195	1206.400
-41.042	42.069	1332.679	1205.157
-40.027	42.175	1331.345	1204.539
-39.013	42.265	1328.991	1202.898
-37.998	42.117	1327.441	1200.561
-36.984	42.328	1324.984	1199.553
-35.969	42.336	1323.706	1198.398
-34.954	42.290	1322.134	1196.654
-33.940	42.373	1320.622	1195.732
-32.925	42.447	1318.769	1194.449
-31.911	42.491	1317.832	1193.812
-30.896	42.413	1316.178	1191.805
-29.881	42.440	1314.875	1190.738
-28.867	42.384	1313.235	1188.870
-27.852	42.335	1311.906	1187.333
-26.838	42.378	1310.340	1186.121
-25.823	42.533	1308.618	1185.432
-24.809	42.303	1307.536	1183.045
-23.794	42.443	1305.992	1182.431
-22.779	42.445	1304.775	1181.288
-21.765	42.465	1303.260	1179.987
-20.750	42.466	1301.908	1178.726
-19.736	42.304	1301.032	1176.936
-18.721	42.210	1300.089	1175.483
-17.706	42.297	1298.765	1174.748
-16.692	42.327	1297.302	1173.553
-15.677	42.329	1296.022	1172.361
-14.663	42.288	1295.338	1171.455
-13.648	42.217	1294.141	1169.913
-12.633	42.157	1293.202	1168.670
-11.619	42.241	1292.392	1168.381
-10.604	42.317	1290.694	1167.239
-9.590	42.328	1290.096	1166.715
-8.575	42.138	1289.516	1165.042
-7.560	42.193	1288.468	1164.369
-6.546	42.171	1287.662	1163.468
-5.531	42.102	1286.754	1162.197
-4.517	42.207	1285.945	1162.034
-3.502	42.301	1285.047	1161.716
-2.487	42.199	1284.263	1160.373
-1.473	42.094	1279.896	1155.777
-0.458	39.743	1262.457	1126.578
0.556	31.557	1238.428	1066.468
1.571	25.491	1238.905	1032.075
2.586	23.677	1252.178	1032.506
3.600	22.138	1242.020	1015.152
4.615	17.785	1171.761	933.867
5.629	10.792	1096.264	837.681
6.644	7.297	1074.551	803.331
7.659	7.026	1071.507	799.611
8.673	6.854	1070.093	797.621
9.688	6.864	1068.978	796.768
10.702	7.127	1067.385	796.835
11.717	11.045	1072.440	820.316
12.731	16.349	1080.515	853.285
13.746	18.061	1081.480	862.619
14.761	17.333	1080.006	857.699
15.775	16.198	1077.970	850.289
16.790	15.131	1075.839	843.164
17.804	14.370	1074.124	837.921
18.819	13.961	1073.010	834.919
19.834	13.747	1071.694	832.749
20.848	13.587	1070.752	831.141
21.863	13.328	1069.977	829.166
22.877	13.158	1069.325	827.734
23.892	13.080	1068.937	826.969
24.907	13.082	1067.892	826.099
25.921	13.119	1066.960	825.491
26.936	13.104	1066.155	824.721
27.950	13.315	1064.020	824.047
28.965	13.258	1062.836	822.772
29.980	13.358	1061.137	821.881
30.994	13.405	1060.078	821.225
32.009	13.520	1058.681	820.640
33.023	13.461	1057.808	819.598
34.038	13.392	1056.748	818.364
35.053	13.212	1056.266	817.027
36.067	13.275	1055.476	816.653
37.082	13.322	1054.599	816.134
38.096	13.369	1053.465	815.417
39.111	13.218	1053.281	814.458
40.126	13.249	1052.195	813.698
41.140	13.067	1050.842	811.685
42.155	13.037	1049.861	810.709
43.169	12.982	1048.590	809.388
44.184	12.978	1047.494	808.449
45.199	13.020	1046.433	807.764
46.213	13.170	1045.258	807.519
47.228	13.139	1044.182	806.466
48.242	13.292	1042.809	806.079
49.257	13.213	1041.896	804.917
50.271	13.215	1041.372	804.450
51.286	13.258	1040.551	803.956
52.301	13.207	1039.449	802.786
53.315	13.082	1038.852	801.647
54.330	13.044	1037.350	800.230
55.344	13.205	1036.192	800.048
56.359	13.222	1035.352	799.411
57.374	13.065	1034.753	798.117
58.388	13.056	1033.625	797.134
59.403	13.104	1032.571	796.483
60.417	13.061	1032.217	795.929
61.432	12.966	1031.934	795.185
62.447	13.004	1030.550	794.231
63.461	12.926	1029.829	793.229
64.476	12.871	1028.969	792.234
65.490	12.953	1028.143	791.920
66.505	13.037	1026.897	791.294
67.520	12.947	1026.645	790.595
68.534	13.054	1026.005	790.546
69.549	13.019	1025.504	789.926
70.563	12.986	1024.409	788.851
71.578	12.916	1023.650	787.863
72.593	12.814	1022.941	786.760
73.607	12.872	1021.881	786.152
74.622	12.777	1021.930	785.668
75.636	12.921	1020.795	785.412
76.651	13.004	1020.017	785.139
77.666	12.999	1019.357	784.538
78.680	12.958	1018.756	783.812
79.695	12.854	1018.319	782.913
80.709	12.983	1017.283	782.657
81.724	12.944	1016.782	782.016
82.739	13.173	1015.825	782.296
83.753	13.319	1015.130	782.381
84.768	13.313	1014.362	781.692
85.782	13.299	1013.334	780.769
86.797	13.320	1012.104	779.851
87.812	13.183	1011.449	778.631
88.826	13.186	1010.394	777.763
89.841	13.284	1009.479	777.450
90.855	13.368	1008.653	777.141
91.870	13.435	1007.781	776.712
92.884	13.280	1007.345	775.582
93.899	13.367	1006.225	775.057
94.914	13.392	1005.397	774.467
95.928	13.367	1004.692	773.742
96.943	13.351	1004.085	773.132
97.957	13.238	1003.534	772.108
98.972	13.370	1002.011	771.483
99.987	13.360	1001.330	770.845
101.001	13.367	999.950	769.750
102.016	13.298	999.375	768.915
103.030	13.310	998.808	768.467
104.045	13.297	998.401	768.028
105.060	13.257	997.467	767.053
106.074	13.128	996.598	765.721
107.089	13.205	995.327	765.033
108.103	13.175	994.322	764.052
109.118	13.173	993.296	763.190
110.133	13.025	992.835	762.084
111.147	13.109	991.635	761.484
112.162	13.107	990.899	760.840
113.176	13.205	990.279	760.747
114.191	13.176	989.613	760.035
115.206	13.219	988.563	759.360
116.220	13.116	988.061	758.433
117.235	13.104	987.288	757.717
118.249	13.222	985.911	757.137
119.264	13.041	985.793	756.146
120.279	13.101	984.392	755.280
121.293	13.048	983.454	754.252
122.308	13.066	982.577	753.598
123.322	13.214	981.369	753.275
124.337	13.137	980.676	752.326
125.352	13.088	979.411	751.067
126.366	13.068	978.777	750.423
127.381	13.066	978.034	749.781
128.395	13.133	977.082	749.289
129.410	13.102	975.676	748.004
130.424	13.193	974.737	747.626
131.439	13.224	974.097	747.211
132.454	13.347	973.574	747.300
133.468	13.341	972.602	746.461
134.483	13.319	972.198	745.984
135.497	13.302	971.162	745.047
136.512	13.316	970.218	744.320
137.527	13.370	969.389	743.859
138.541	13.405	968.609	743.353
139.556	13.309	968.233	742.570
140.570	13.300	967.857	742.175
141.585	13.434	966.502	741.672
142.600	13.572	965.551	741.494
143.614	13.579	964.774	740.862
144.629	13.475	964.213	739.900
145.643	13.387	963.200	738.665
146.658	13.498	961.862	738.067
147.673	13.374	961.004	736.791
148.687	13.302	960.045	735.673
149.702	13.278	959.388	734.998
150.716	13.293	958.810	734.555
151.731	13.352	958.109	734.214
152.746	13.324	957.596	733.634
153.760	13.362	956.401	732.821
154.775	13.449	955.598	732.525
155.789	13.515	954.944	732.252
156.804	13.485	954.466	731.689
157.819	13.514	954.066	731.445
158.833	13.583	953.153	730.984
159.848	13.573	952.353	730.262
160.862	13.558	951.062	729.141
161.877	13.532	950.131	728.250
162.892	13.464	949.267	727.221
163.906	13.398	948.720	726.449
164.921	13.374	947.682	725.486
165.935	13.488	946.773	725.227
166.950	13.368	945.822	723.907
167.964	13.415	945.100	723.496
168.979	13.403	944.179	722.677
169.994	13.488	943.241	722.263
171.008	13.518	942.632	721.862
172.023	13.625	941.853	721.671
173.037	13.582	940.965	720.739
174.052	13.578	940.498	720.302
175.067	13.460	939.926	719.284
176.081	13.423	939.288	718.570
177.096	13.483	938.784	718.386
178.110	13.457	938.103	717.687
179.125	13.519	937.342	717.309
180.140	13.600	936.955	717.301
181.154	13.668	936.343	717.062
182.169	13.597	936.154	716.548
183.183	13.772	935.340	716.616
184.198	13.824	934.413	716.068
185.213	13.686	934.051	715.131
186.227	13.879	932.838	714.971
187.242	13.796	932.679	714.428
188.256	14.011	931.892	714.689
189.271	13.809	931.047	713.108
190.286	13.747	930.488	712.349
191.300	13.608	929.587	710.999
192.315	13.418	929.275	709.885
193.329	13.557	928.186	709.584
194.344	13.662	927.763	709.648
195.359	13.602	927.311	708.982
196.373	13.729	926.697	708.995
197.388	13.772	926.364	708.858
198.402	13.939	925.882	709.140
199.417	14.081	924.846	708.892
200.432	13.925	924.433	707.846
201.446	14.044	924.011	707.969
202.461	14.136	923.715	708.072
203.475	14.071	922.914	707.117
204.490	13.945	922.154	705.937
205.504	13.925	921.503	705.290
206.519	13.969	920.334	704.521
207.534	14.089	919.655	704.447
208.548	13.913	919.197	703.290
209.563	14.001	918.712	703.226
210.577	14.031	918.151	702.862
211.592	14.049	917.436	702.328
212.607	14.147	916.360	701.855
213.621	14.097	915.841	701.188
214.636	14.173	915.201	700.956
215.650	14.157	914.363	700.182
216.665	14.312	913.562	700.160
217.680	14.247	912.984	699.383
218.694	14.383	912.368	699.418
219.709	14.309	911.863	698.661
220.723	14.236	911.302	697.862
221.738	14.287	910.096	697.092
222.753	14.096	910.274	696.366
223.767	14.205	909.623	696.261
224.782	14.336	909.067	696.321
225.796	14.447	908.366	696.185
226.811	14.366	907.357	695.015
227.826	14.302	906.991	694.407
228.840	14.278	905.929	693.430
229.855	14.307	905.080	692.839
230.869	14.110	904.718	691.683
231.884	14.279	903.929	691.719
232.899	14.248	903.192	690.966
233.913	14.288	902.059	690.206
234.928	14.345	901.737	690.132
235.942	14.191	901.383	689.166
236.957	14.259	900.795	688.936
237.972	14.352	899.822	688.515
238.986	14.242	899.214	687.533
240.001	14.412	898.748	687.818
241.015	14.266	897.868	686.482
242.030	14.413	897.545	686.778
243.045	14.351	897.335	686.305
244.059	14.424	896.493	685.899
245.074	14.478	895.529	685.324
246.088	14.436	895.425	685.011
247.103	14.451	894.199	684.073
248.117	14.600	893.960	684.439
249.132	14.716	893.414	684.439
250.147	14.864	892.475	684.262
251.161	14.745	892.193	683.499
252.176	14.792	891.593	683.171
253.190	14.881	890.726	682.810
254.205	14.882	890.246	682.386
255.220	14.900	889.435	681.778
256.234	14.821	888.932	681.012
257.249	14.848	888.251	680.536
258.263	14.822	887.451	679.758
259.278	14.959	886.841	679.789
260.293	15.005	886.358	679.545
261.307	14.852	886.008	678.596
262.322	14.927	885.303	678.301
263.336	15.119	884.332	678.272
264.351	15.024	883.604	677.270
265.366	15.136	882.641	676.926
266.380	15.117	882.319	676.540
267.395	15.088	881.630	675.834
268.409	15.124	880.514	675.066
269.424	14.943	880.273	674.091
270.439	15.018	879.471	673.720
271.453	15.035	878.960	673.336
272.468	14.989	878.497	672.740
273.482	15.090	877.958	672.674
274.497	15.030	877.273	671.847
275.512	15.089	876.482	671.419
276.526	15.171	875.924	671.261
277.541	15.095	875.565	670.623
278.555	15.155	875.089	670.437
279.570	15.276	874.299	670.254
280.585	15.167	873.863	669.429
281.599	15.168	872.695	668.478
282.614	15.207	872.024	668.057
283.628	15.246	871.509	667.760
284.643	15.309	870.818	667.423
285.657	14.974	870.588	665.854
286.672	15.262	869.258	665.922
287.687	15.269	869.001	665.696
288.701	15.399	868.301	665.614
289.716	15.137	867.993	664.282
290.730	15.254	867.363	664.204
291.745	15.498	866.286	664.287
292.760	15.515	865.796	663.919
293.774	15.373	865.703	663.229
294.789	15.547	864.734	663.113
295.803	15.448	864.054	662.143
296.818	15.413	863.293	661.364
297.833	15.369	863.020	660.924
298.847	15.401	862.124	660.302
299.862	15.461	861.605	660.083
300.876	15.615	860.971	660.143
301.891	15.455	860.811	659.335
302.906	15.654	860.188	659.580
303.920	15.775	859.243	659.270
304.935	15.730	858.836	658.727
305.949	15.657	858.306	657.975
306.964	15.685	857.657	657.529
307.979	15.750	857.102	657.297
308.993	15.634	856.869	656.609
310.008	15.763	856.045	656.421
311.022	15.673	855.367	655.495
312.037	15.649	854.976	655.044
313.052	15.588	854.286	654.217
314.066	15.581	853.618	653.621
315.081	15.662	853.175	653.538
316.095	15.540	852.443	652.446
317.110	15.557	852.131	652.216
318.125	15.486	851.774	651.610
319.139	15.630	851.077	651.579
320.154	15.683	850.665	651.409
321.168	15.621	850.325	650.852
322.183	15.749	849.436	650.607
323.197	15.846	848.767	650.413
324.212	15.745	848.444	649.719
325.227	15.740	847.835	649.176
326.241	15.765	847.244	648.761
327.256	15.787	846.821	648.466
328.270	15.769	846.006	647.715
329.285	15.663	845.349	646.745
330.300	15.747	844.415	646.297
331.314	15.834	844.070	646.311
332.329	15.931	843.500	646.188
333.343	15.811	843.721	645.842
334.358	15.833	843.734	645.876
335.373	15.946	842.807	645.543
336.387	15.906	842.549	645.136
337.402	15.987	842.469	645.326
338.416	15.894	842.068	644.606
339.431	15.953	841.729	644.516
340.446	15.995	841.182	644.201
341.460	16.202	840.667	644.540
342.475	16.156	840.328	644.048
343.489	16.244	839.695	643.841
344.504	16.240	839.017	643.248
345.519	16.270	838.837	643.169
346.533	16.192	838.368	642.455
347.548	16.121	837.977	641.830
348.562	16.212	836.784	641.205
349.577	16.077	836.355	640.305
350.592	16.195	835.676	640.178
351.606	16.085	835.375	639.474
352.621	16.234	834.521	639.325
353.635	16.091	834.053	638.371
354.650	16.070	833.326	637.678
355.665	16.181	832.708	637.570
356.679	16.217	832.043	637.140
357.694	16.228	831.448	636.667
358.708	16.350	830.556	636.390
359.723	16.332	829.954	635.802
360.738	16.353	829.590	635.547
361.752	16.290	829.045	634.836
362.767	16.452	828.328	634.840
363.781	16.398	828.308	634.564
364.796	16.485	827.751	634.408
365.810	16.608	827.204	634.394
366.825	16.616	826.809	634.066
367.840	16.556	826.155	633.285
368.854	16.555	825.671	632.853
369.869	16.609	825.445	632.824
370.883	16.777	824.472	632.650
371.898	16.676	824.671	632.369
372.913	16.619	824.347	631.852
373.927	16.577	823.923	631.317
374.942	16.580	823.424	630.888
375.956	16.690	822.634	630.638
376.971	16.662	822.461	630.343
377.986	16.765	821.904	630.243
379.000	16.779	821.277	629.762
380.015	16.782	820.717	629.288
381.029	16.748	820.337	628.815
382.044	16.816	819.748	628.559
383.059	16.908	818.975	628.251
384.073	16.860	818.329	627.524
385.088	16.897	817.698	627.119
386.102	16.834	817.079	626.357
387.117	16.752	816.790	625.778
388.132	16.904	815.946	625.636
389.146	16.689	815.828	624.696
390.161	16.856	815.500	625.005
391.175	16.906	814.989	624.744
392.190	16.766	814.552	623.836
393.205	16.735	814.136	623.351
394.219	16.709	813.703	622.866
395.234	16.838	812.976	622.730
396.248	16.751	812.737	622.172
397.263	16.696	812.223	621.523
398.278	16.811	811.630	621.436
399.292	16.768	811.511	621.132
400.307	16.811	810.853	620.728
401.321	16.749	810.521	620.192
402.336	16.933	810.184	620.554
403.350	16.958	809.364	619.962
404.365	17.025	809.197	620.025
405.380	17.042	808.533	619.522
406.394	17.009	808.202	619.093
407.409	17.166	807.706	619.232
408.423	17.313	807.171	619.302
409.438	17.212	807.135	618.852
410.453	17.199	806.819	618.507
411.467	17.270	805.991	618.077
412.482	17.299	805.837	618.007
413.496	17.406	805.281	617.918
414.511	17.215	805.611	617.420
415.526	17.318	804.834	617.144
416.540	17.262	804.250	616.438
417.555	17.392	803.731	616.459
418.569	17.537	803.222	616.539
419.584	17.349	802.968	615.607
420.599	17.488	802.503	615.701
421.613	88.839	1260.631	1354.022
422.628	75.753	1327.397	1354.162
