DTS Sentinel unit serial number:	SN413079Multiplexer serial number:	ORYXHardware model number:	OX4-SRSoftware version number:	ORYX F/W v4.00 Oryx Data Collector v3.7.2.0data status	okinstallation	princeton_trtdifferential loss correction	single-endedforward channel	channel 1reverse channel	N/Adate	2019/09/14time	14:14:35forward acquisition time	60.00reverse acquisition time	0.00gamma	496.2192k internal	0.2293k external	0.2293temperature offset calibration	1.0082default loss term (dB/km)	0.3790temperature slope calibration	1.0000multiplexer offset coefficient	1.0000multiplexer slope coefficient	1.0000fibre end	0.00T internal ref (°C)	38.62T ext. ref 1 (°C)	5.09T ext. ref 2 (°C)	36.79length (m)	temperature (°C)	Stokes	anti-Stokes-747.200	-165.522	-0.116	-0.005
-746.185	-92.811	0.101	0.029
-745.171	224.229	-0.166	-0.274
-744.156	199.429	-0.154	0.241
-743.142	-146.982	-0.206	0.018
-742.127	-19.805	0.202	0.128
-741.112	-117.048	0.170	-0.032
-740.098	25.017	-0.092	0.078
-739.083	-200.000	0.011	0.077
-738.069	-123.234	-0.162	0.027
-737.054	-142.437	-0.351	-0.035
-736.039	-200.000	-0.025	-0.245
-735.025	800.000	-0.094	0.357
-734.010	-75.920	0.040	-0.014
-732.996	52.243	0.105	-0.103
-731.981	284.648	0.154	0.283
-730.966	-160.144	-0.249	0.014
-729.952	-200.000	-0.017	0.083
-728.937	-67.754	-0.349	0.140
-727.923	800.000	-0.059	-0.197
-726.908	125.481	0.148	0.192
-725.894	-2.827	-0.170	-0.122
-724.879	-20.409	-0.324	-0.204
-723.864	-200.000	-0.004	0.097
-722.850	-130.160	0.397	-0.055
-721.835	-51.146	-0.260	-0.125
-720.821	9.516	0.225	-0.174
-719.806	-13.097	-0.223	0.148
-718.791	-139.829	-0.371	-0.040
-717.777	-72.926	0.243	-0.091
-716.762	50.771	-0.165	0.159
-715.748	-91.092	-0.058	0.017
-714.733	-81.736	-0.120	-0.040
-713.718	16.119	-0.280	0.225
-712.704	478.112	-0.021	0.049
-711.689	-29.171	-0.178	0.104
-710.675	-69.911	0.224	-0.087
-709.660	-66.324	-0.213	0.087
-708.645	-34.378	0.149	-0.084
-707.631	144.406	0.033	-0.045
-706.616	96.419	0.067	0.079
-705.602	-200.000	-0.024	-0.302
-704.587	-171.838	-0.155	-0.005
-703.572	-89.531	0.265	-0.080
-702.558	-200.000	-0.026	0.152
-701.543	-200.000	-0.030	-0.194
-700.529	262.310	-0.159	-0.281
-699.514	55.279	0.069	-0.068
-698.499	277.687	0.124	-0.225
-697.485	-124.553	0.141	-0.022
-696.470	751.039	-0.122	-0.336
-695.456	716.705	0.039	-0.106
-694.441	-200.000	0.044	0.239
-693.426	-134.597	-0.343	0.043
-692.412	800.000	0.040	-0.146
-691.397	489.769	-0.119	-0.277
-690.383	-95.362	-0.244	-0.067
-689.368	293.635	-0.035	-0.066
-688.354	425.376	-0.154	-0.338
-687.339	88.706	0.197	0.224
-686.324	410.027	-0.099	-0.214
-685.310	-109.060	0.152	0.033
-684.295	-72.595	0.207	0.078
-683.281	-200.000	0.022	0.175
-682.266	-35.500	-0.140	0.078
-681.251	-163.678	0.200	-0.010
-680.237	-159.785	-0.190	-0.011
-679.222	-200.000	0.040	-0.207
-678.208	-63.366	-0.258	-0.108
-677.193	88.915	-0.239	0.271
-676.178	-11.596	-0.085	-0.057
-675.164	-200.000	-0.016	-0.333
-674.149	-137.681	-0.075	-0.009
-673.135	-36.493	0.189	-0.104
-672.120	716.662	-0.045	-0.122
-671.105	-42.176	-0.270	0.141
-670.091	-15.762	-0.395	-0.257
-669.076	207.732	0.125	0.200
-668.062	-200.000	0.004	0.341
-667.047	-10.469	-0.103	-0.070
-666.032	-12.322	-0.408	0.272
-665.018	10.842	-0.277	0.216
-664.003	-200.000	0.010	-0.129
-662.989	-84.940	-0.257	-0.082
-661.974	-200.000	-0.029	-0.316
-660.959	-11.069	-0.258	-0.174
-659.945	-200.000	0.002	0.403
-658.930	-181.797	-0.204	-0.004
-657.916	800.000	-0.024	0.074
-656.901	-200.000	-0.070	0.000
-655.886	87.602	0.062	0.069
-654.872	1.740	0.221	0.162
-653.857	334.157	0.050	-0.099
-652.843	-103.974	0.115	0.027
-651.828	-200.000	0.009	-0.060
-650.814	-74.118	-0.147	-0.054
-649.799	-106.884	-0.265	-0.060
-648.784	-162.194	-0.314	-0.016
-647.770	125.761	0.078	-0.100
-646.755	-87.724	0.294	0.090
-645.741	-104.967	-0.208	0.049
-644.726	-145.038	-0.099	0.009
-643.711	-32.482	0.461	-0.262
-642.697	9.099	-0.026	-0.020
-641.682	259.467	0.126	0.222
-640.668	337.218	-0.063	-0.125
-639.653	-200.000	0.012	0.099
-638.638	-47.239	0.353	-0.175
-637.624	-71.152	0.083	0.032
-636.609	7.860	0.299	-0.228
-635.595	142.021	-0.078	0.105
-634.580	-200.000	0.070	-0.321
-633.565	-23.502	0.073	0.045
-632.551	315.988	0.050	-0.096
-631.536	-200.000	0.001	-0.180
-630.522	403.338	0.099	-0.213
-629.507	800.000	-0.103	-0.396
-628.492	-94.227	-0.411	-0.115
-627.478	171.721	-0.041	-0.060
-626.463	44.400	0.148	-0.139
-625.449	157.634	-0.138	0.195
-624.434	-200.000	0.009	-0.183
-623.419	800.000	-0.089	-0.286
-622.405	-52.190	-0.368	0.174
-621.390	-110.079	-0.147	0.031
-620.376	160.021	-0.073	-0.104
-619.361	245.345	-0.134	-0.229
-618.346	-200.000	-0.009	0.131
-617.332	-200.000	0.020	0.312
-616.317	-200.000	0.031	0.254
-615.303	-200.000	-0.002	0.326
-614.288	-200.000	0.014	0.206
-613.273	129.488	-0.135	-0.176
-612.259	9.440	-0.139	0.107
-611.244	800.000	0.077	-0.300
-610.230	800.000	-0.053	-0.198
-609.215	-2.997	0.306	-0.218
-608.201	22.634	-0.109	-0.091
-607.186	800.000	0.048	0.169
-606.171	-200.000	0.026	-0.116
-605.157	-0.956	-0.317	-0.228
-604.142	60.864	0.371	-0.374
-603.128	800.000	0.108	-0.445
-602.113	-200.000	0.033	0.179
-601.098	-149.049	0.276	-0.023
-600.084	101.647	-0.159	0.189
-599.069	21.908	0.205	0.170
-598.055	-200.000	-0.002	0.057
-597.040	-56.091	-0.367	-0.166
-596.025	215.151	-0.089	0.143
-595.011	373.551	-0.053	0.110
-593.996	162.162	-0.122	-0.174
-592.982	184.205	-0.260	0.392
-591.967	-48.078	0.211	0.104
-590.952	-200.000	-0.026	-0.221
-589.938	-115.161	-0.349	-0.067
-588.923	-52.496	-0.051	0.024
-587.909	-16.314	0.302	0.195
-586.894	800.000	-0.092	-0.281
-585.879	-91.484	-0.095	0.028
-584.865	49.447	-0.295	-0.282
-583.850	-112.428	0.086	0.017
-582.836	84.689	0.082	0.091
-581.821	-20.107	0.146	0.092
-580.806	-171.223	-0.121	-0.004
-579.792	-200.000	0.036	-0.320
-578.777	-200.000	0.034	-0.259
-577.763	-200.000	-0.004	0.297
-576.748	-200.000	-0.011	-0.104
-575.733	-151.182	-0.382	-0.029
-574.719	800.000	0.045	0.158
-573.704	-0.459	0.230	0.166
-572.690	-199.777	-0.115	-0.001
-571.675	-63.126	0.141	0.059
-570.661	506.383	0.120	-0.283
-569.646	-88.998	0.218	-0.066
-568.631	-87.523	0.443	0.136
-567.617	-155.554	-0.281	0.018
-566.602	800.000	0.020	0.055
-565.588	-2.610	-0.041	-0.030
-564.573	109.977	-0.136	0.165
-563.558	800.000	0.087	-0.260
-562.544	138.558	0.212	0.283
-561.529	-124.093	-0.202	-0.032
-560.515	-54.931	-0.380	0.174
-559.500	73.918	0.116	-0.124
-558.485	-200.000	0.050	0.234
-557.471	-200.000	-0.004	-0.145
-556.456	-81.820	-0.288	-0.096
-555.442	524.350	0.035	-0.084
-554.427	52.871	0.272	-0.264
-553.412	37.380	-0.173	0.156
-552.398	-47.382	-0.384	0.190
-551.383	800.000	0.075	0.238
-550.369	-200.000	-0.001	-0.089
-549.354	-150.350	-0.275	0.022
-548.339	164.764	0.026	-0.037
-547.325	18.885	0.265	-0.216
-546.310	-170.635	-0.435	0.015
-545.296	-97.148	-0.177	0.047
-544.281	191.793	-0.147	0.224
-543.266	180.753	0.081	0.121
-542.252	-23.171	0.143	-0.088
-541.237	-118.678	0.352	0.063
-540.223	-23.160	0.151	-0.092
-539.208	800.000	0.068	-0.262
-538.193	583.556	0.155	-0.387
-537.179	-200.000	0.012	-0.175
-536.164	-125.748	0.192	-0.030
-535.150	-200.000	0.021	0.317
-534.135	118.059	-0.295	-0.369
-533.121	83.496	0.101	-0.112
-532.106	-119.948	0.115	0.020
-531.091	800.000	0.118	0.395
-530.077	-200.000	0.071	0.327
-529.062	800.000	0.068	0.222
-528.048	322.782	0.136	0.263
-527.033	-36.545	-0.236	-0.129
-526.018	131.621	0.053	0.070
-525.004	350.928	0.068	0.136
-523.989	-200.000	0.032	0.148
-522.975	800.000	0.015	-0.057
-521.960	118.056	-0.071	-0.089
-520.945	-92.485	0.242	-0.069
-519.931	800.000	0.044	0.138
-518.916	219.730	-0.078	-0.126
-517.902	-200.000	0.001	0.022
-516.887	-154.062	-0.062	-0.004
-515.872	446.911	0.091	0.204
-514.858	-200.000	-0.020	0.172
-513.843	-62.154	0.333	-0.141
-512.829	-200.000	-0.003	0.044
-511.814	464.200	-0.134	0.303
-510.799	-153.414	-0.120	0.008
-509.785	123.242	-0.032	0.040
-508.770	54.430	0.027	0.027
-507.756	-88.056	-0.067	0.020
-506.741	497.819	0.041	-0.095
-505.726	-200.000	-0.001	0.147
-504.712	-138.634	-0.468	-0.052
-503.697	-200.000	-0.023	-0.250
-502.683	-166.909	-0.140	0.006
-501.668	800.000	-0.047	0.190
-500.653	-200.000	0.014	-0.305
-499.639	-78.733	0.041	-0.014
-498.624	102.114	0.403	0.477
-497.610	-26.626	-0.171	-0.101
-496.595	30.843	0.173	-0.150
-495.581	-170.084	0.218	-0.008
-494.566	89.061	-0.059	0.066
-493.551	-39.369	0.048	0.026
-492.537	800.000	-0.072	-0.224
-491.522	408.695	-0.112	0.240
-490.508	-111.410	-0.140	-0.029
-489.493	800.000	0.067	0.189
-488.478	-73.067	-0.267	0.099
-487.464	426.764	0.056	-0.123
-486.449	-151.462	-0.176	0.013
-485.435	348.767	-0.106	-0.213
-484.420	-200.000	0.030	0.231
-483.405	-36.558	-0.449	-0.244
-482.391	139.967	-0.173	-0.231
-481.376	-126.823	-0.170	0.025
-480.362	94.204	0.036	-0.042
-479.347	-74.418	-0.186	-0.068
-478.332	-11.493	-0.124	-0.083
-477.318	-200.000	-0.031	-0.389
-476.303	55.228	-0.104	-0.102
-475.289	-200.000	-0.067	0.350
-474.274	-33.768	0.077	-0.043
-473.259	-52.498	-0.462	0.216
-472.245	98.902	-0.247	0.288
-471.230	16.120	0.057	0.045
-470.216	89.783	0.094	-0.106
-469.201	-174.465	0.051	0.001
-468.186	-200.000	0.031	0.402
-467.172	50.941	-0.068	-0.065
-466.157	-129.320	0.160	-0.023
-465.143	-141.293	-0.114	-0.012
-464.128	-200.000	0.010	0.106
-463.113	146.959	-0.161	0.218
-462.099	49.790	-0.218	-0.208
-461.084	-128.934	-0.093	0.013
-460.070	295.495	-0.199	0.368
-459.055	-110.856	0.150	0.031
-458.040	-200.000	-0.061	-0.465
-457.026	-72.599	0.355	-0.133
-456.011	8.415	-0.097	-0.074
-454.997	-22.661	0.206	0.126
-453.982	174.866	-0.093	0.136
-452.968	-200.000	-0.014	-0.137
-451.953	-140.917	-0.093	-0.010
-450.938	-145.553	-0.664	0.060
-449.924	-37.105	0.154	-0.083
-448.909	240.380	-0.142	-0.239
-447.895	16.425	0.241	-0.192
-446.880	219.795	-0.105	0.169
-445.865	705.923	0.168	-0.449
-444.851	524.234	-0.122	-0.291
-443.836	-193.016	0.379	0.003
-442.822	81.511	0.201	0.219
-441.807	23.176	-0.153	-0.127
-440.792	-73.150	0.083	-0.031
-439.778	549.362	0.098	0.237
-438.763	360.400	-0.110	0.222
-437.749	340.218	0.146	0.287
-436.734	-102.309	0.259	0.063
-435.719	51.368	-0.362	0.348
-434.705	-200.000	-0.004	-0.084
-433.690	-133.350	0.209	0.027
-432.676	196.123	0.119	0.183
-431.661	293.917	0.116	0.213
-430.646	153.820	0.143	0.198
-429.632	484.371	-0.037	0.084
-428.617	-62.978	0.290	0.121
-427.603	-200.000	-0.026	0.140
-426.588	45.579	-0.139	-0.130
-425.573	503.893	0.117	-0.274
-424.559	-160.087	0.248	-0.014
-423.544	-39.663	-0.093	-0.049
-422.530	-9.084	0.401	0.271
-421.515	212.261	0.232	0.369
-420.500	800.000	-0.151	0.465
-419.486	-122.981	0.286	0.046
-418.471	0.951	0.352	0.255
-417.457	-51.905	0.224	-0.105
-416.442	-200.000	-0.009	-0.368
-415.428	-5.771	-0.175	-0.121
-414.413	482.208	-0.167	-0.384
-413.398	223.079	0.091	-0.148
-412.384	162.190	-0.046	0.065
-411.369	-200.000	0.022	-0.220
-410.355	-200.000	-0.100	0.000
-409.340	12.695	0.099	0.077
-408.325	30.039	-0.051	-0.044
-407.311	-37.295	-0.155	0.083
-406.296	800.000	0.044	0.140
-405.282	-200.000	-0.004	-0.264
-404.267	399.763	-0.191	-0.405
-403.252	-80.134	0.239	-0.081
-402.238	76.484	0.299	-0.320
-401.223	-164.274	-0.236	-0.011
-400.209	800.000	0.013	0.042
-399.194	17.887	-0.116	-0.094
-398.179	-99.647	0.409	0.104
-397.165	-167.742	-0.137	-0.005
-396.150	-5.818	-0.147	-0.102
-395.136	360.883	-0.027	0.055
-394.121	-200.000	0.017	-0.123
-393.106	14.524	0.173	0.136
-392.092	-200.000	-0.072	-0.406
-391.077	-38.696	-0.218	-0.116
-390.063	33.920	-0.109	-0.096
-389.048	-93.972	0.140	-0.039
-388.033	800.000	0.045	-0.159
-387.019	-71.198	-0.106	-0.040
-386.004	-140.013	0.064	0.007
-384.990	-200.000	0.038	-0.267
-383.975	12.064	-0.046	-0.036
-382.960	154.174	0.164	-0.227
-381.946	-157.902	-0.092	0.005
-380.931	-143.171	-0.116	-0.011
-379.917	800.000	0.073	-0.290
-378.902	-200.000	-0.020	-0.192
-377.888	409.877	0.102	0.217
-376.873	800.000	-0.076	0.276
-375.858	454.001	-0.085	-0.190
-374.844	155.118	-0.044	0.061
-373.829	800.000	-0.080	-0.283
-372.815	149.634	0.148	-0.202
-371.800	103.828	-0.203	0.240
-370.785	-77.640	-0.375	-0.131
-369.771	-22.219	0.199	0.122
-368.756	14.733	-0.308	-0.243
-367.742	146.123	-0.066	-0.089
-366.727	-132.191	0.195	-0.026
-365.712	151.709	0.071	0.097
-364.698	800.000	0.022	-0.075
-363.683	-147.902	-0.422	-0.035
-362.669	181.659	0.081	0.121
-361.654	800.000	0.042	0.177
-360.639	-18.038	0.202	-0.127
-359.625	123.947	0.359	0.455
-358.610	-81.206	0.110	-0.036
-357.596	-46.175	0.258	-0.128
-356.581	-117.872	-0.174	0.031
-355.566	154.477	0.143	0.198
-354.552	-81.102	-0.235	0.078
-353.537	194.364	-0.192	0.293
-352.523	-126.757	-0.194	-0.029
-351.508	75.823	0.154	0.164
-350.493	-106.123	-0.191	-0.043
-349.479	800.000	0.117	-0.477
-348.464	-27.853	0.104	-0.061
-347.450	-148.246	0.168	0.014
-346.435	-155.478	-0.175	-0.011
-345.420	800.000	-0.025	-0.078
-344.406	282.160	-0.077	0.138
-343.391	-61.108	-0.193	-0.082
-342.377	238.454	0.205	0.343
-341.362	-200.000	-0.003	0.108
-340.348	130.255	0.123	0.159
-339.333	-200.000	0.032	-0.315
-338.318	-200.000	0.007	0.069
-337.304	118.732	-0.162	-0.202
-336.289	-200.000	0.056	0.401
-335.275	-72.182	-0.236	0.088
-334.260	-158.342	0.139	-0.008
-333.245	29.862	0.175	0.150
-332.231	800.000	0.047	0.147
-331.216	-114.480	-0.150	-0.029
-330.202	-200.000	-0.018	0.083
-329.187	800.000	-0.015	0.043
-328.172	52.132	0.171	-0.164
-327.158	71.093	-0.250	0.261
-326.143	-200.000	0.004	0.198
-325.129	800.000	-0.043	0.146
-324.114	192.129	0.185	-0.282
-323.099	-21.159	0.221	-0.136
-322.085	-120.573	-0.053	-0.009
-321.070	273.666	-0.059	-0.106
-320.056	130.735	0.164	-0.212
-319.041	-200.000	-0.013	0.088
-318.026	-194.087	-0.283	-0.002
-317.012	-12.494	0.087	-0.057
-315.997	-45.986	0.139	0.069
-314.983	-66.448	-0.202	0.081
-313.968	772.921	0.030	0.081
-312.953	150.132	0.164	0.223
-311.939	232.769	0.101	-0.168
-310.924	52.034	0.077	-0.073
-309.910	-200.000	0.039	0.189
-308.895	-166.101	0.111	0.005
-307.880	-91.859	0.076	-0.022
-306.866	-200.000	-0.003	0.264
-305.851	194.331	0.066	0.101
-304.837	-25.933	-0.051	0.030
-303.822	183.154	-0.204	-0.303
-302.807	800.000	0.089	-0.252
-301.793	153.711	0.077	0.106
-300.778	451.429	-0.200	0.443
-299.764	800.000	-0.081	-0.274
-298.749	-200.000	-0.045	-0.214
-297.735	465.152	-0.067	0.150
-296.720	-106.513	0.211	0.047
-295.705	-83.104	-0.148	-0.048
-294.691	800.000	-0.040	0.165
-293.676	-139.499	0.138	-0.015
-292.662	-200.000	0.311	0.000
-291.647	-79.046	-0.306	-0.105
-290.632	-39.218	0.327	-0.172
-289.618	550.566	0.061	0.147
-288.603	137.415	0.201	0.265
-287.589	79.731	0.120	-0.130
-286.574	-200.000	-0.017	0.369
-285.559	800.000	-0.059	-0.240
-284.545	-200.000	-0.035	0.243
-283.530	-70.917	0.248	0.094
-282.516	-109.999	0.312	-0.066
-281.501	-54.581	0.230	0.105
-280.486	-140.791	-0.299	0.031
-279.472	177.227	-0.159	0.232
-278.457	-94.182	0.142	-0.039
-277.443	-121.616	0.500	-0.083
-276.428	61.337	-0.267	-0.267
-275.413	-51.405	0.083	0.039
-274.399	13.110	0.267	0.208
-273.384	-1.110	-0.250	-0.177
-272.370	352.392	-0.051	0.101
-271.355	81.416	-0.196	0.213
-270.340	-127.921	0.250	0.036
-269.326	618.408	-0.117	0.295
-268.311	301.426	-0.262	-0.486
-267.297	32.320	0.130	0.113
-266.282	800.000	0.041	-0.142
-265.267	-200.000	-0.056	-0.339
-264.253	-128.856	-0.098	0.014
-263.238	-17.053	0.154	0.098
-262.224	800.000	-0.026	-0.076
-261.209	84.197	0.108	0.118
-260.195	648.961	-0.137	-0.351
-259.180	800.000	0.045	0.145
-258.165	-130.338	0.200	0.027
-257.151	-110.352	0.090	0.019
-256.136	481.221	0.035	-0.079
-255.122	-50.719	-0.194	-0.092
-254.107	391.425	0.058	-0.121
-253.092	114.859	0.021	-0.026
-252.078	-200.000	-0.055	-0.273
-251.063	-87.643	-0.119	-0.036
-250.049	800.000	0.048	0.179
-249.034	-200.000	-0.006	0.254
-248.019	-38.728	0.135	0.071
-247.005	800.000	0.052	0.180
-245.990	624.088	-0.070	0.177
-244.976	-64.118	0.217	0.089
-243.961	267.622	0.103	-0.181
-242.946	-166.684	-0.193	0.008
-241.932	-136.599	0.084	0.010
-240.917	108.270	0.047	0.056
-239.903	350.449	0.173	-0.342
-238.888	-109.415	0.183	0.039
-237.873	329.886	0.149	0.288
-236.859	582.771	-0.045	0.112
-235.844	-96.879	-0.680	-0.179
-234.830	-200.000	0.056	0.274
-233.815	680.987	0.014	0.035
-232.800	74.186	0.083	0.087
-231.786	-139.397	-0.156	0.017
-230.771	24.583	0.321	-0.266
-229.757	-28.043	-0.191	-0.111
-228.742	637.564	-0.045	0.116
-227.727	34.767	0.189	0.165
-226.713	92.139	-0.217	0.246
-225.698	-200.000	0.053	0.234
-224.684	299.816	0.116	0.214
-223.669	42.123	-0.123	0.112
-222.655	313.369	0.109	-0.205
-221.640	79.167	0.237	0.255
-220.625	-107.027	-0.185	-0.041
-219.611	388.957	0.121	0.252
-218.596	-31.879	0.138	0.078
-217.582	800.000	-0.049	0.148
-216.567	-200.000	-0.018	-0.085
-215.552	-58.207	-0.123	-0.054
-214.538	199.696	-0.134	-0.206
-213.523	-200.000	-0.006	-0.189
-212.509	341.146	0.071	-0.138
-211.494	74.209	-0.157	-0.165
-210.479	186.615	-0.143	-0.213
-209.465	-28.289	-0.261	0.151
-208.450	85.129	-0.248	-0.272
-207.436	-143.683	0.155	-0.015
-206.421	-200.000	0.031	-0.262
-205.406	-200.000	-0.010	0.090
-204.392	-55.684	0.289	-0.130
-203.377	358.210	0.015	-0.030
-202.363	-74.495	-0.139	0.050
-201.348	54.621	-0.124	-0.120
-200.333	160.531	-0.065	-0.091
-199.319	652.658	0.126	0.324
-198.304	-30.912	-0.222	-0.126
-197.290	-67.816	0.175	0.069
-196.275	183.298	0.200	-0.296
-195.260	-17.775	-0.225	0.142
-194.246	-192.810	-0.393	0.004
-193.231	800.000	-0.029	0.093
-192.217	-39.431	-0.294	-0.154
-191.202	800.000	-0.108	-0.314
-190.187	-200.000	-0.073	0.388
-189.173	-200.000	0.015	-0.101
-188.158	-92.311	-0.053	0.015
-187.144	-102.782	-0.349	0.083
-186.129	281.921	-0.043	0.076
-185.114	-63.431	0.199	-0.082
-184.100	-122.915	0.533	0.086
-183.085	-23.505	0.172	-0.103
-182.071	-200.000	0.017	0.112
-181.056	-97.979	0.346	-0.089
-180.042	104.104	-0.286	0.337
-179.027	800.000	0.063	0.227
-178.012	-200.000	0.025	-0.265
-176.998	800.000	0.088	-0.283
-175.983	-140.362	-0.363	-0.038
-174.969	-57.480	0.231	0.102
-173.954	-79.313	0.124	0.042
-172.939	24.676	0.183	0.152
-171.925	91.158	0.194	0.218
-170.910	-200.000	0.003	0.228
-169.896	-141.067	-0.174	0.018
-168.881	-200.000	0.011	-0.192
-167.866	143.249	0.081	-0.108
-166.852	-53.987	-0.408	-0.186
-165.837	-75.970	-0.125	0.044
-164.823	7.643	-0.071	0.053
-163.808	79.818	0.109	0.117
-162.793	-200.000	-0.037	-0.312
-161.779	-200.000	-0.006	0.213
-160.764	800.000	0.101	0.333
-159.750	-81.456	0.216	0.071
-158.735	-86.219	0.166	0.051
-157.720	-118.454	-0.160	0.028
-156.706	48.039	0.151	-0.141
-155.691	-77.995	0.215	0.074
-154.677	800.000	0.028	0.108
-153.662	137.914	-0.183	0.240
-152.647	-182.354	-0.144	-0.003
-151.633	313.774	0.062	-0.117
-150.618	-112.608	0.364	0.072
-149.604	-137.297	0.149	-0.017
-148.589	150.740	0.076	-0.104
-147.574	113.068	-0.156	-0.189
-146.560	358.915	-0.128	-0.256
-145.545	-85.488	-0.103	0.032
-144.531	-37.987	0.109	0.058
-143.516	-200.000	0.036	-0.181
-142.502	-37.612	-0.265	0.141
-141.487	409.011	-0.166	-0.352
-140.472	-200.000	0.017	0.173
-139.458	-81.598	-0.178	0.059
-138.443	800.000	0.056	0.230
-137.429	391.316	-0.060	0.124
-136.414	800.000	-0.085	-0.267
-135.399	-118.440	0.285	-0.050
-134.385	599.965	0.120	0.297
-133.370	249.472	0.093	-0.158
-132.356	800.000	-0.061	-0.214
-131.341	-103.943	0.288	-0.067
-130.326	377.526	-0.164	0.334
-129.312	385.410	0.044	-0.091
-128.297	-32.383	0.405	-0.226
-127.283	137.254	0.183	-0.240
-126.268	180.408	-0.046	-0.068
-125.253	-99.408	0.044	-0.011
-124.239	-6.583	0.161	-0.109
-123.224	-46.927	0.420	-0.205
-122.210	-200.000	-0.037	0.348
-121.195	-58.981	0.292	0.126
-120.180	122.948	-0.118	-0.148
-119.166	800.000	-0.048	-0.173
-118.151	-52.040	-0.227	0.105
-117.137	-147.654	-0.251	0.021
-116.122	800.000	-0.097	-0.278
-115.107	192.916	-0.050	0.075
-114.093	18.159	0.148	0.118
-113.078	233.742	-0.216	0.354
-112.064	800.000	0.054	0.193
-111.049	282.186	-0.277	0.495
-110.034	119.867	0.075	0.092
-109.020	-137.256	0.138	-0.016
-108.005	-200.000	0.008	-0.056
-106.991	-26.801	0.321	-0.187
-105.976	-76.830	0.301	0.105
-104.962	476.741	-0.086	-0.193
-103.947	-200.000	0.021	0.292
-102.932	-200.000	0.024	-0.217
-101.918	-200.000	0.054	-0.415
-100.903	-17.942	-0.164	-0.103
-99.889	151.500	0.083	-0.113
-98.874	-200.000	0.013	-0.231
-97.859	-9.970	-0.107	0.071
-96.845	-200.000	-0.030	-0.194
-95.830	-107.484	-0.250	-0.055
-94.816	160.122	-0.015	-0.021
-93.801	13.686	-0.148	-0.115
-92.786	-17.030	0.077	-0.048
-91.772	147.072	0.186	-0.250
-90.757	-86.173	0.056	0.017
-89.743	800.000	-0.041	0.148
-88.728	-137.406	0.027	-0.003
-87.713	-95.622	-0.359	-0.096
-86.699	3.676	0.249	0.181
-85.684	-92.502	0.100	-0.028
-84.670	581.193	0.069	0.169
-83.655	-69.828	0.329	-0.125
-82.640	-200.000	0.072	-0.417
-81.626	-82.656	-0.083	-0.027
-80.611	-166.383	-0.167	0.007
-79.597	61.574	0.268	0.266
-78.582	800.000	0.049	0.208
-77.567	-129.101	-0.352	-0.049
-76.553	-200.000	0.018	-0.113
-75.538	-29.456	0.094	-0.053
-74.524	-155.065	0.293	-0.019
-73.509	-66.435	-0.327	0.130
-72.494	422.251	0.062	-0.132
-71.480	-200.000	-0.164	0.000
-70.465	-172.223	0.254	-0.008
-69.451	326.839	-0.044	0.085
-68.436	13.186	-0.109	0.084
-67.422	-151.755	0.245	-0.018
-66.407	-143.694	-0.091	0.009
-65.392	-53.098	0.096	0.044
-64.378	54.499	0.047	-0.045
-63.363	-165.828	-0.190	0.008
-62.349	442.389	-0.032	0.069
-61.334	20.937	-0.764	-0.617
-60.319	97.656	0.229	0.262
-59.305	-200.000	-0.056	-0.821
-58.290	296.049	0.445	0.813
-57.276	800.000	0.368	1.562
-56.261	-200.000	81.200	492.652
-55.246	534.392	1374.427	3244.683
-54.232	181.537	2603.302	3814.697
-53.217	119.368	2245.176	2767.574
-52.203	49.477	1693.529	1587.403
-51.188	41.948	1424.313	1286.829
-50.173	38.744	1380.054	1226.786
-49.159	56.603	1418.540	1374.418
-48.144	61.698	1437.562	1425.053
-47.130	42.495	1398.538	1266.795
-46.115	38.743	1381.680	1228.030
-45.100	38.545	1376.841	1222.444
-44.086	38.423	1374.813	1219.836
-43.071	38.471	1372.132	1217.709
-42.057	38.476	1369.928	1215.734
-41.042	38.458	1368.288	1214.122
-40.027	38.482	1366.759	1212.860
-39.013	38.621	1364.694	1211.844
-37.998	38.538	1363.037	1209.811
-36.984	38.466	1361.305	1207.780
-35.969	38.587	1359.507	1206.884
-34.954	38.698	1357.523	1205.757
-33.940	38.712	1356.054	1204.490
-32.925	38.717	1354.814	1203.373
-31.911	38.705	1352.945	1201.592
-30.896	38.757	1351.529	1200.605
-29.881	38.720	1350.472	1199.392
-28.867	38.664	1349.370	1198.022
-27.852	38.605	1347.957	1196.359
-26.838	38.663	1345.892	1194.832
-25.823	38.656	1344.673	1193.659
-24.809	38.793	1342.881	1192.857
-23.794	38.847	1341.348	1191.775
-22.779	38.793	1340.037	1190.234
-21.765	38.715	1339.202	1188.972
-20.750	38.727	1337.405	1187.403
-19.736	38.591	1336.276	1185.529
-18.721	38.521	1335.264	1184.165
-17.706	38.666	1333.663	1183.574
-16.692	38.547	1332.863	1182.095
-15.677	38.561	1331.619	1181.033
-14.663	38.640	1330.821	1180.755
-13.648	38.452	1329.948	1178.796
-12.633	38.629	1328.357	1178.406
-11.619	38.589	1327.548	1177.402
-10.604	38.552	1326.904	1176.562
-9.590	38.545	1325.721	1175.425
-8.575	38.573	1324.745	1174.680
-7.560	38.478	1324.172	1173.557
-6.546	38.601	1322.841	1173.067
-5.531	38.572	1322.061	1172.152
-4.517	38.585	1321.286	1171.499
-3.502	38.565	1320.500	1170.636
-2.487	38.559	1319.082	1169.295
-1.473	38.773	1315.199	1167.079
-0.458	37.850	1301.257	1149.223
0.556	35.366	1281.330	1109.727
1.571	31.205	1285.555	1089.075
2.586	29.697	1299.298	1091.719
3.600	27.828	1286.931	1070.286
4.615	20.589	1209.473	965.731
5.629	10.287	1127.203	846.366
6.644	5.330	1103.312	802.938
7.659	4.878	1101.159	798.980
8.673	5.100	1099.626	798.937
9.688	5.073	1098.323	797.779
10.702	5.331	1097.142	798.171
11.717	11.056	1105.480	833.554
12.731	19.802	1118.386	888.331
13.746	21.887	1119.746	900.038
14.761	20.061	1116.796	888.236
15.775	18.904	1114.512	880.421
16.790	17.875	1112.397	873.410
17.804	17.167	1110.390	868.138
18.819	16.753	1109.454	865.213
19.834	16.504	1108.621	863.216
20.848	16.330	1107.910	861.699
21.863	16.204	1106.485	859.872
22.877	15.993	1105.810	858.199
23.892	15.872	1105.616	857.354
24.907	15.863	1105.012	856.765
25.921	15.927	1103.529	855.862
26.936	15.983	1102.438	855.226
27.950	16.029	1100.578	853.942
28.965	16.088	1099.475	853.311
29.980	16.109	1097.859	852.085
30.994	16.237	1096.478	851.581
32.009	16.341	1095.603	851.355
33.023	16.296	1094.465	850.168
34.038	16.121	1093.379	848.368
35.053	16.039	1092.884	847.494
36.067	16.127	1091.625	846.887
37.082	16.121	1090.635	846.014
38.096	16.201	1090.138	845.956
39.111	16.123	1089.472	844.974
40.126	16.004	1088.055	843.205
41.140	15.934	1086.410	841.502
42.155	15.795	1085.496	840.028
43.169	15.707	1084.213	838.521
44.184	15.695	1083.677	837.971
45.199	15.790	1082.262	837.275
46.213	15.936	1080.930	836.896
47.228	15.974	1080.225	836.466
48.242	16.062	1079.439	836.222
49.257	15.926	1078.239	834.545
50.271	16.051	1077.525	834.537
51.286	16.160	1076.337	834.080
52.301	15.991	1075.597	832.600
53.315	15.905	1074.179	831.003
54.330	15.878	1073.283	830.106
55.344	15.919	1072.298	829.471
56.359	15.941	1071.269	828.707
57.374	15.789	1070.482	827.279
58.388	15.781	1069.741	826.597
59.403	15.802	1068.475	825.647
60.417	15.776	1067.987	825.071
61.432	15.613	1067.502	823.821
62.447	15.701	1066.689	823.553
63.461	15.595	1065.845	822.308
64.476	15.673	1064.592	821.651
65.490	15.633	1063.781	820.757
66.505	15.701	1063.268	820.620
67.520	15.818	1062.064	820.187
68.534	15.769	1061.811	819.683
69.549	15.752	1060.818	818.761
70.563	15.671	1060.565	818.100
71.578	15.662	1059.401	817.084
72.593	15.627	1058.414	816.081
73.607	15.480	1057.991	814.971
74.622	15.640	1057.280	815.123
75.636	15.664	1056.423	814.507
76.651	15.716	1055.749	814.167
77.666	15.526	1055.365	812.883
78.680	15.632	1054.549	812.693
79.695	15.737	1053.661	812.443
80.709	15.817	1052.902	812.171
81.724	15.882	1052.407	812.033
82.739	15.837	1051.868	811.330
83.753	16.045	1051.066	811.641
84.768	16.112	1050.323	811.318
85.782	16.267	1049.229	811.145
86.797	16.181	1048.253	809.906
87.812	16.036	1047.484	808.543
88.826	16.152	1046.330	808.137
89.841	16.054	1045.287	806.790
90.855	16.226	1044.355	806.821
91.870	16.322	1043.534	806.577
92.884	16.256	1043.297	806.005
93.899	16.234	1042.276	805.041
94.914	16.327	1041.203	804.584
95.928	16.328	1040.659	804.100
96.943	16.309	1039.500	803.040
97.957	16.165	1038.614	801.602
98.972	16.152	1037.760	800.811
99.987	16.122	1036.952	799.971
101.001	16.158	1036.012	799.347
102.016	16.284	1034.912	799.026
103.030	16.271	1034.227	798.362
104.045	16.245	1033.899	797.917
105.060	16.105	1032.409	796.038
106.074	15.987	1031.546	794.745
107.089	15.862	1030.099	792.971
108.103	15.816	1029.550	792.259
109.118	15.851	1028.422	791.487
110.133	15.754	1027.494	790.247
111.147	15.844	1026.732	790.011
112.162	15.794	1025.840	789.019
113.176	16.002	1025.731	789.844
114.191	15.912	1024.278	788.233
115.206	15.976	1023.421	787.802
116.220	15.849	1022.972	786.795
117.235	15.916	1021.709	786.064
118.249	15.686	1021.120	784.469
119.264	15.815	1019.869	784.042
120.279	16.042	1018.915	784.295
121.293	15.889	1018.365	783.092
122.308	15.693	1017.747	781.635
123.322	15.731	1016.192	780.549
124.337	15.671	1015.501	779.670
125.352	15.761	1014.334	779.122
126.366	15.654	1013.582	777.979
127.381	15.649	1012.487	777.045
128.395	15.766	1011.792	776.985
129.410	15.890	1010.891	776.795
130.424	15.904	1010.011	776.117
131.439	15.991	1009.250	775.863
132.454	15.919	1008.329	774.754
133.468	15.975	1007.631	774.407
134.483	16.138	1006.186	773.980
135.497	15.977	1005.647	772.756
136.512	16.038	1005.033	772.497
137.527	16.077	1004.155	771.931
138.541	16.086	1003.087	771.085
139.556	16.072	1002.882	770.793
140.570	16.215	1001.870	770.598
141.585	16.269	1001.339	770.368
142.600	16.305	1000.372	769.722
143.614	16.323	999.488	769.057
144.629	16.540	998.269	769.038
145.643	16.327	997.680	767.546
146.658	16.135	996.621	765.793
147.673	16.033	995.715	764.568
148.687	16.190	994.602	764.356
149.702	15.980	993.688	762.634
150.716	16.004	992.982	762.135
151.731	16.032	992.616	761.911
152.746	16.155	991.497	761.541
153.760	16.114	991.317	761.150
154.775	16.203	990.591	760.928
155.789	16.259	989.817	760.519
156.804	16.301	989.325	760.262
157.819	16.286	988.518	759.507
158.833	16.379	987.693	759.224
159.848	16.485	986.647	758.827
160.862	16.352	986.152	757.784
161.877	16.201	984.907	756.083
162.892	16.140	983.400	754.587
163.906	16.222	982.372	754.097
164.921	16.217	981.585	753.405
165.935	16.004	981.313	752.180
166.950	16.162	980.093	751.881
167.964	16.277	979.040	751.517
168.979	16.234	978.192	750.610
169.994	16.042	977.714	749.323
171.008	16.239	976.673	749.335
172.023	16.371	976.326	749.588
173.037	16.375	975.526	748.925
174.052	16.433	974.267	748.149
175.067	16.094	973.831	746.246
176.081	16.172	973.160	746.010
177.096	16.139	972.558	745.337
178.110	16.109	972.150	744.829
179.125	16.192	971.386	744.543
180.140	16.413	970.479	744.757
181.154	16.434	970.347	744.679
182.169	16.461	969.577	744.141
183.183	16.441	969.065	743.594
184.198	16.481	968.323	743.136
185.213	16.383	967.790	742.232
186.227	16.482	966.885	741.905
187.242	16.523	966.335	741.598
188.256	16.651	965.739	741.637
189.271	16.635	964.551	740.589
190.286	16.460	963.886	739.246
191.300	16.105	962.809	736.803
192.315	16.217	962.292	736.833
193.329	16.111	961.965	736.053
194.344	16.173	961.508	735.911
195.359	16.370	960.238	735.729
196.373	16.486	959.954	735.952
197.388	16.583	959.619	736.051
198.402	16.771	959.186	736.473
199.417	16.860	958.272	736.091
200.432	16.940	957.556	735.825
201.446	16.852	957.335	735.208
202.461	16.986	956.581	735.146
203.475	16.926	955.849	734.259
204.490	16.718	955.193	732.789
205.504	16.632	954.552	731.861
206.519	16.705	953.800	731.532
207.534	16.688	953.001	730.782
208.548	16.729	952.154	730.245
209.563	16.695	951.547	729.568
210.577	16.878	950.901	729.797
211.592	16.883	950.568	729.500
212.607	16.891	949.693	728.799
213.621	16.840	948.874	727.883
214.636	16.894	948.259	727.581
215.650	16.970	947.048	726.914
216.665	17.000	946.282	726.390
217.680	17.063	945.836	726.251
218.694	17.113	945.408	726.071
219.709	16.956	944.779	724.855
220.723	16.887	944.166	724.025
221.738	16.938	943.282	723.503
222.753	16.943	942.530	722.880
223.767	17.116	942.141	723.257
224.782	17.231	941.454	723.156
225.796	17.249	940.587	722.500
226.811	17.119	940.499	721.817
227.826	17.026	939.446	720.549
228.840	17.113	938.370	720.029
229.855	17.123	937.600	719.417
230.869	16.998	937.009	718.369
231.884	16.912	936.661	717.676
232.899	16.935	936.081	717.268
233.913	16.886	935.290	716.389
234.928	16.944	934.157	715.702
235.942	16.962	933.496	715.208
236.957	16.982	933.228	715.026
237.972	16.987	932.624	714.520
238.986	16.863	932.050	713.496
240.001	17.052	931.421	713.745
241.015	17.007	930.729	712.964
242.030	17.052	929.712	712.311
243.045	17.085	929.513	712.233
244.059	17.229	928.655	712.115
245.074	17.319	927.891	711.844
246.088	17.253	927.542	711.236
247.103	17.308	926.734	710.784
248.117	17.214	926.774	710.358
249.132	17.534	926.172	711.173
250.147	17.717	924.992	710.966
251.161	17.614	924.682	710.234
252.176	17.677	923.633	709.630
253.190	17.818	922.999	709.665
254.205	17.771	922.805	709.258
255.220	17.712	922.185	708.472
256.234	17.647	921.279	707.447
257.249	17.758	920.458	707.214
258.263	17.674	919.821	706.313
259.278	17.641	919.137	705.588
260.293	17.730	918.561	705.451
261.307	17.767	918.203	705.266
262.322	17.984	916.987	705.167
263.336	17.894	916.591	704.430
264.351	17.857	915.361	703.270
265.366	18.014	915.122	703.670
266.380	17.835	914.731	702.571
267.395	17.790	914.066	701.812
268.409	17.885	912.998	701.319
269.424	17.913	912.084	700.671
270.439	17.843	911.736	700.053
271.453	17.767	910.762	698.933
272.468	17.672	910.528	698.301
273.482	17.734	909.568	697.756
274.497	17.762	909.412	697.690
275.512	17.669	908.574	696.608
276.526	17.748	908.434	696.759
277.541	17.912	907.605	696.731
278.555	17.907	907.138	696.292
279.570	18.139	906.312	696.542
280.585	17.972	905.553	695.218
281.599	17.919	904.431	694.078
282.614	17.895	903.876	693.494
283.628	18.050	903.055	693.429
284.643	17.897	902.880	692.616
285.657	18.151	901.596	692.597
286.672	18.054	901.001	691.686
287.687	18.000	900.624	691.116
288.701	17.954	900.242	690.576
289.716	17.931	899.617	689.942
290.730	18.024	898.937	689.734
291.745	18.134	898.120	689.493
292.760	18.047	897.626	688.699
293.774	18.278	896.957	689.058
294.789	18.232	896.203	688.233
295.803	18.155	895.546	687.355
296.818	18.198	894.665	686.792
297.833	18.182	894.084	686.222
298.847	18.172	893.465	685.644
299.862	18.033	893.584	685.118
300.876	18.127	892.649	684.718
301.891	18.347	892.047	685.077
302.906	18.366	891.508	684.678
303.920	18.478	891.004	684.679
304.935	18.459	890.512	684.160
305.949	18.507	889.574	683.572
306.964	18.344	889.125	682.517
307.979	18.402	888.467	682.184
308.993	18.534	887.970	682.265
310.008	18.587	887.255	681.866
311.022	18.354	886.944	680.642
312.037	18.314	886.215	679.864
313.052	18.184	886.097	679.195
314.066	18.238	884.716	678.293
315.081	18.259	884.092	677.835
316.095	18.264	883.454	677.308
317.110	18.362	883.111	677.373
318.125	18.314	882.482	676.638
319.139	18.334	882.149	676.403
320.154	18.365	881.700	676.122
321.168	18.342	881.367	675.718
322.183	18.354	880.361	674.933
323.197	18.422	879.783	674.696
324.212	18.458	879.227	674.353
325.227	18.373	878.761	673.602
326.241	18.494	877.872	673.337
327.256	18.433	877.509	672.756
328.270	18.413	876.981	672.216
329.285	18.251	876.408	671.082
330.300	18.337	875.514	670.673
331.314	18.402	874.823	670.342
332.329	18.593	874.744	670.969
333.343	18.508	874.282	670.221
334.358	18.539	873.883	669.977
335.373	18.589	873.284	669.656
336.387	18.700	872.821	669.672
337.402	18.637	872.987	669.497
338.416	18.680	872.778	669.443
339.431	18.728	872.268	669.178
340.446	18.915	871.776	669.473
341.460	18.938	871.260	669.106
342.475	18.877	870.970	668.588
343.489	18.915	870.535	668.340
344.504	18.922	869.999	667.900
345.519	19.171	869.142	668.146
346.533	19.125	868.565	667.467
347.548	18.750	868.465	665.875
348.562	18.822	867.500	665.355
349.577	18.756	867.000	664.658
350.592	18.861	866.376	664.529
351.606	18.848	865.506	663.750
352.621	18.770	865.030	663.024
353.635	18.907	864.269	662.914
354.650	18.979	863.325	662.408
355.665	18.819	863.374	661.769
356.679	18.897	862.558	661.385
357.694	18.928	861.877	660.923
358.708	19.061	861.177	660.839
359.723	18.999	860.694	660.173
360.738	19.033	859.862	659.608
361.752	18.978	859.519	659.075
362.767	19.050	858.825	658.761
363.781	19.213	858.316	658.934
364.796	19.309	857.989	658.992
365.810	19.414	857.436	658.912
366.825	19.492	857.194	658.966
367.840	19.315	856.765	657.899
368.854	19.300	856.126	657.293
369.869	19.351	855.433	656.897
370.883	19.169	855.291	656.040
371.898	19.265	855.097	656.196
372.913	19.446	854.755	656.565
373.927	19.331	853.878	655.394
374.942	19.417	853.366	655.271
375.956	19.596	852.664	655.355
376.971	19.408	852.607	654.538
377.986	19.535	852.128	654.597
379.000	19.702	851.406	654.614
380.015	19.489	851.361	653.714
381.029	19.645	850.158	653.323
382.044	19.567	849.741	652.652
383.059	19.524	849.371	652.146
384.073	19.584	848.542	651.678
385.088	19.448	847.960	650.661
386.102	19.522	847.115	650.234
387.117	19.513	846.257	649.485
388.132	19.449	845.942	648.944
389.146	19.500	845.495	648.734
390.161	19.704	845.194	649.215
391.175	19.718	844.600	648.754
392.190	19.613	843.872	647.742
393.205	19.670	843.252	647.422
394.219	19.543	843.002	646.696
395.234	19.403	842.991	646.109
396.248	19.388	842.238	645.417
397.263	19.279	841.880	644.677
398.278	19.358	841.354	644.512
399.292	19.498	840.660	644.447
400.307	19.398	840.376	643.798
401.321	19.513	840.070	643.936
402.336	19.487	839.468	643.324
403.350	19.638	838.857	643.359
404.365	19.522	838.903	642.905
405.380	19.770	838.027	643.099
406.394	19.739	837.809	642.760
407.409	19.878	837.235	642.778
408.423	20.027	836.914	643.029
409.438	19.837	836.839	642.210
410.453	20.048	836.265	642.495
411.467	20.016	835.825	641.981
412.482	20.220	834.779	641.877
413.496	20.163	834.742	641.579
414.511	20.076	834.718	641.184
415.526	20.058	834.160	640.630
416.540	20.105	833.565	640.292
417.555	20.122	833.310	640.101
418.569	20.136	832.588	639.540
419.584	20.167	831.928	639.091
420.599	20.075	831.717	638.535
421.613	150.814	1366.131	1767.261
422.628	131.684	1444.022	1767.354
