DTS Sentinel unit serial number:	SN413079Multiplexer serial number:	ORYXHardware model number:	OX4-SRSoftware version number:	ORYX F/W v4.00 Oryx Data Collector v3.7.2.0data status	okinstallation	princeton_trtdifferential loss correction	single-endedforward channel	channel 1reverse channel	N/Adate	2019/09/19time	13:54:35forward acquisition time	60.00reverse acquisition time	0.00gamma	496.2192k internal	0.2325k external	0.2325temperature offset calibration	1.0019default loss term (dB/km)	0.3790temperature slope calibration	1.0000multiplexer offset coefficient	1.0000multiplexer slope coefficient	1.0000fibre end	0.00T internal ref (°C)	30.92T ext. ref 1 (°C)	1.01T ext. ref 2 (°C)	28.22length (m)	temperature (°C)	Stokes	anti-Stokes-747.200	233.445	-0.070	0.117
-746.185	-200.000	-0.015	0.123
-745.171	176.701	0.191	-0.280
-744.156	-37.693	0.353	0.190
-743.142	92.901	0.117	0.133
-742.127	-200.000	0.048	0.231
-741.112	-164.006	-0.192	0.009
-740.098	72.070	-0.132	0.139
-739.083	42.046	0.178	0.163
-738.069	90.114	0.395	0.446
-737.054	363.372	-0.106	0.214
-736.039	228.790	-0.164	-0.270
-735.025	101.557	0.083	0.097
-734.010	-57.157	-0.144	-0.064
-732.996	-200.000	-0.034	0.184
-731.981	-200.000	0.004	-0.077
-730.966	469.143	-0.048	0.108
-729.952	45.555	-0.119	-0.111
-728.937	-200.000	0.099	-0.563
-727.923	800.000	0.061	-0.258
-726.908	141.675	-0.188	-0.251
-725.894	-32.968	-0.143	-0.080
-724.879	-6.270	-0.161	-0.111
-723.864	-200.000	-0.020	0.123
-722.850	-200.000	-0.027	-0.153
-721.835	-28.858	0.090	-0.052
-720.821	-47.445	-0.233	-0.114
-719.806	800.000	-0.099	0.325
-718.791	-200.000	-0.017	0.220
-717.777	-200.000	-0.019	-0.337
-716.762	-152.183	-0.210	-0.015
-715.748	156.163	-0.069	0.097
-714.733	220.880	-0.122	-0.198
-713.718	-76.877	0.307	-0.108
-712.704	-200.000	-0.058	-0.262
-711.689	-116.660	0.227	-0.042
-710.675	471.966	0.057	-0.130
-709.660	-112.355	0.138	0.028
-708.645	683.921	0.089	-0.234
-707.631	800.000	0.097	-0.410
-706.616	-200.000	0.008	0.063
-705.602	14.353	0.179	0.141
-704.587	-200.000	-0.032	-0.194
-703.572	-4.905	-0.087	0.060
-702.558	-108.536	0.284	-0.062
-701.543	107.440	-0.056	-0.067
-700.529	3.780	-0.087	-0.064
-699.514	24.528	-0.084	-0.070
-698.499	-59.811	0.254	0.109
-697.485	182.086	0.112	-0.166
-696.470	-200.000	-0.054	0.271
-695.456	-200.000	-0.023	-0.239
-694.441	46.419	-0.031	-0.029
-693.426	800.000	0.033	0.122
-692.412	45.429	-0.127	0.118
-691.397	-78.261	-0.221	-0.076
-690.383	800.000	0.012	-0.037
-689.368	62.402	0.140	-0.141
-688.354	43.062	0.256	-0.235
-687.339	-139.150	-0.109	-0.012
-686.324	135.590	-0.108	0.142
-685.310	-200.000	-0.009	-0.169
-684.295	94.837	-0.237	0.272
-683.281	-20.874	-0.096	0.059
-682.266	-88.552	-0.335	-0.100
-681.251	-92.034	-0.466	0.133
-680.237	-200.000	-0.062	-0.391
-679.222	4.968	-0.122	0.090
-678.208	-54.688	0.081	0.037
-677.193	-125.552	-0.166	0.025
-676.178	22.746	0.139	-0.115
-675.164	-45.857	-0.079	0.039
-674.149	-71.301	-0.218	0.082
-673.135	-35.649	-0.112	-0.061
-672.120	-69.867	0.143	0.055
-671.105	16.436	-0.361	-0.287
-670.091	183.065	0.103	-0.154
-669.076	166.409	-0.196	-0.280
-668.062	-200.000	-0.017	-0.334
-667.047	-55.128	-0.069	-0.031
-666.032	-13.935	0.192	-0.125
-665.018	-200.000	0.007	-0.126
-664.003	86.349	-0.176	0.195
-662.989	-116.530	0.182	0.034
-661.974	-200.000	0.080	-0.379
-660.959	-200.000	0.020	-0.168
-659.945	58.742	0.120	-0.118
-658.930	-86.502	0.349	-0.108
-657.916	-123.300	-0.198	-0.032
-656.901	-200.000	0.008	0.194
-655.886	-200.000	0.012	-0.324
-654.872	107.029	-0.024	0.029
-653.857	-200.000	-0.007	0.233
-652.843	-200.000	0.024	0.111
-651.828	-140.362	0.212	0.022
-650.814	-141.750	-0.119	-0.012
-649.799	325.924	0.110	-0.212
-648.784	-50.528	-0.282	-0.134
-647.770	330.603	0.080	-0.155
-646.755	-200.000	0.042	-0.306
-645.741	-180.764	0.491	0.010
-644.726	51.201	-0.358	0.341
-643.711	800.000	-0.120	-0.489
-642.697	204.694	0.223	-0.348
-641.682	-200.000	-0.038	0.429
-640.668	-161.870	-0.332	0.017
-639.653	-95.637	0.145	-0.039
-638.638	-123.197	-0.403	0.065
-637.624	16.106	0.243	0.192
-636.609	88.276	-0.091	-0.102
-635.595	-68.561	-0.172	0.067
-634.580	-143.104	0.187	0.018
-633.565	322.516	-0.039	0.075
-632.551	15.907	0.312	0.247
-631.536	800.000	-0.101	-0.435
-630.522	-109.104	0.314	0.067
-629.507	186.641	-0.169	0.252
-628.492	18.621	-0.323	-0.260
-627.478	171.555	-0.181	-0.261
-626.463	158.815	-0.093	0.130
-625.449	-11.731	0.022	0.015
-624.434	3.253	-0.178	-0.130
-623.419	-159.280	-0.327	-0.018
-622.405	-200.000	-0.057	-0.373
-621.390	-14.331	0.141	0.091
-620.376	147.332	-0.133	0.180
-619.361	-77.726	0.151	0.052
-618.346	118.556	0.136	0.168
-617.332	-117.410	-0.059	-0.011
-616.317	-200.000	0.006	0.063
-615.303	800.000	-0.105	-0.309
-614.288	-37.121	0.211	-0.113
-613.273	174.948	-0.093	0.135
-612.259	-33.981	-0.097	0.054
-611.244	19.420	0.167	0.134
-610.230	-40.707	0.100	0.052
-609.215	277.308	-0.121	-0.217
-608.201	-91.245	0.291	-0.084
-607.186	143.323	0.086	-0.115
-606.171	171.353	0.188	0.271
-605.157	800.000	-0.070	0.235
-604.142	-27.918	0.227	-0.132
-603.128	122.506	-0.241	-0.302
-602.113	-101.059	-0.240	-0.059
-601.098	-200.000	-0.019	-0.139
-600.084	-23.843	-0.140	-0.084
-599.069	23.827	-0.132	0.109
-598.055	-200.000	-0.011	0.201
-597.040	-200.000	-0.006	-0.036
-596.025	800.000	0.076	-0.298
-595.011	-42.327	-0.130	-0.066
-593.996	-47.524	0.151	-0.074
-592.982	73.870	-0.190	0.200
-591.967	-200.000	-0.047	0.497
-590.952	100.587	0.094	-0.109
-589.938	-129.099	-0.602	-0.084
-588.923	-58.812	0.352	-0.153
-587.909	-200.000	0.024	0.166
-586.894	-200.000	0.036	0.439
-585.879	-138.388	-0.307	0.034
-584.865	165.964	-0.055	-0.077
-583.850	-197.066	-0.297	0.002
-582.836	177.895	0.076	0.112
-581.821	-200.000	-0.023	0.298
-580.806	215.083	-0.113	0.179
-579.792	217.811	0.133	0.213
-578.777	34.122	-0.286	0.250
-577.763	-115.580	0.143	0.027
-576.748	-106.026	0.211	-0.048
-575.733	-90.090	-0.137	-0.040
-574.719	800.000	-0.006	-0.023
-573.704	-200.000	-0.027	0.204
-572.690	681.295	-0.070	0.183
-571.675	-200.000	-0.033	-0.339
-570.661	-200.000	0.059	0.398
-569.646	-200.000	-0.028	0.209
-568.631	-200.000	-0.023	-0.155
-567.617	124.205	0.177	0.223
-566.602	-179.404	-0.052	0.001
-565.588	58.088	-0.090	-0.088
-564.573	-108.745	0.436	0.094
-563.558	-68.682	0.296	-0.115
-562.544	-165.147	0.061	-0.003
-561.529	-200.000	0.012	-0.271
-560.515	-40.322	0.172	-0.090
-559.500	-200.000	0.043	-0.201
-558.485	-66.099	-0.246	0.098
-557.471	-159.041	-0.217	0.012
-556.456	0.997	-0.357	0.257
-555.442	186.919	-0.186	-0.278
-554.427	327.251	-0.150	-0.288
-553.412	159.314	-0.134	0.187
-552.398	800.000	-0.035	0.146
-551.383	78.200	-0.215	-0.230
-550.369	-200.000	-0.018	0.119
-549.354	116.704	0.134	-0.165
-548.339	-200.000	-0.037	0.235
-547.325	-87.844	0.051	0.015
-546.310	10.195	-0.244	-0.186
-545.296	-114.319	-0.264	-0.051
-544.281	315.768	0.177	-0.334
-543.266	99.216	-0.191	-0.222
-542.252	800.000	0.086	0.314
-541.237	-45.213	0.278	0.138
-540.223	-101.277	-0.115	0.028
-539.208	800.000	-0.021	0.078
-538.193	-133.779	-0.316	-0.039
-537.179	800.000	-0.050	-0.173
-536.164	198.803	0.119	0.182
-535.150	143.898	-0.049	0.066
-534.135	800.000	-0.092	-0.293
-533.121	-8.882	0.155	-0.104
-532.106	-61.466	0.288	-0.121
-531.091	-109.410	0.242	0.051
-530.077	-122.892	-0.364	0.059
-529.062	-200.000	-0.059	-0.439
-528.048	70.965	0.044	0.046
-527.033	-200.000	-0.060	-0.308
-526.018	192.548	0.008	-0.012
-525.004	-139.372	-0.083	-0.009
-523.989	183.390	0.079	-0.116
-522.975	-93.141	-0.026	-0.007
-521.960	-200.000	0.275	0.000
-520.945	-130.535	-0.030	-0.004
-519.931	234.062	-0.143	0.236
-518.916	800.000	-0.125	0.352
-517.902	-200.000	0.035	0.267
-516.887	20.405	-0.288	0.233
-515.872	133.805	-0.051	-0.067
-514.858	16.588	0.336	-0.266
-513.843	45.634	-0.084	-0.078
-512.829	398.595	0.085	0.178
-511.814	-68.513	0.166	0.064
-510.799	302.496	0.241	0.445
-509.785	154.280	-0.181	-0.248
-508.770	-200.000	-0.008	-0.297
-507.756	-200.000	-0.018	-0.471
-506.741	-200.000	0.021	-0.219
-505.726	-34.806	0.252	0.138
-504.712	800.000	0.146	0.458
-503.697	-200.000	0.022	-0.166
-502.683	748.805	0.197	-0.531
-501.668	255.312	-0.026	-0.045
-500.653	-24.350	-0.271	-0.162
-499.639	-177.487	-0.375	0.009
-498.624	-89.039	-0.243	-0.072
-497.610	-128.505	0.118	-0.017
-496.595	-200.000	0.035	-0.175
-495.581	87.007	-0.304	-0.335
-494.566	-111.146	0.183	0.038
-493.551	-200.000	0.011	0.064
-492.537	-2.317	-0.246	-0.172
-491.522	310.162	0.072	0.134
-490.508	642.184	0.076	0.193
-489.493	586.701	0.065	-0.159
-488.478	426.490	-0.083	0.178
-487.464	76.052	-0.164	-0.173
-486.449	-63.948	0.022	0.009
-485.435	262.143	-0.120	0.207
-484.420	25.597	0.092	0.077
-483.405	8.402	-0.299	-0.224
-482.391	362.853	0.086	0.172
-481.376	800.000	-0.084	0.300
-480.362	331.241	-0.041	0.078
-479.347	675.391	-0.117	-0.303
-478.332	-187.111	-0.120	-0.002
-477.318	-76.257	0.131	0.046
-476.303	29.970	-0.249	-0.212
-475.289	-90.710	-0.485	0.140
-474.274	-55.650	-0.169	-0.076
-473.259	-200.000	0.010	-0.158
-472.245	-147.768	-0.162	-0.014
-471.230	-6.098	0.346	-0.236
-470.216	764.164	-0.140	0.380
-469.201	65.037	0.113	-0.114
-468.186	175.547	-0.204	-0.295
-467.172	800.000	0.099	-0.305
-466.157	-41.819	-0.235	-0.120
-465.143	192.033	-0.100	0.151
-464.128	-200.000	0.021	0.464
-463.113	-200.000	-0.020	0.513
-462.099	142.052	-0.079	-0.105
-461.084	-200.000	0.055	0.263
-460.070	94.400	0.162	0.184
-459.055	-200.000	0.069	-0.395
-458.040	-79.808	0.368	-0.123
-457.026	-128.365	-0.137	-0.019
-456.011	436.469	0.092	0.201
-454.997	-50.225	-0.333	-0.157
-453.982	-11.900	0.214	0.140
-452.968	-31.487	0.282	-0.158
-451.953	18.402	0.250	0.199
-450.938	-87.332	-0.281	-0.085
-449.924	-101.972	-0.205	-0.049
-448.909	-123.526	0.095	0.015
-447.895	45.205	0.112	-0.103
-446.880	-169.961	-0.216	0.008
-445.865	-2.699	0.124	-0.086
-444.851	274.991	-0.206	0.364
-443.836	34.125	-0.128	-0.112
-442.822	-19.350	-0.092	-0.057
-441.807	-200.000	-0.057	0.279
-440.792	216.144	-0.121	-0.191
-439.778	552.467	-0.085	-0.204
-438.763	35.860	0.177	0.156
-437.749	4.822	0.199	-0.146
-436.734	-200.000	-0.012	-0.249
-435.719	120.222	0.180	0.222
-434.705	-157.681	0.248	-0.015
-433.690	57.762	0.195	-0.190
-432.676	136.496	0.192	-0.250
-431.661	520.539	0.099	0.232
-430.646	117.027	-0.073	-0.089
-429.632	178.491	-0.145	-0.211
-428.617	-200.000	0.038	0.201
-427.603	-200.000	0.005	-0.416
-426.588	-200.000	-0.018	0.166
-425.573	116.713	-0.155	0.190
-424.559	498.612	0.043	-0.099
-423.544	800.000	-0.055	-0.165
-422.530	-200.000	-0.057	0.325
-421.515	77.975	0.077	-0.081
-420.500	-86.989	0.172	-0.052
-419.486	-85.222	-0.153	-0.048
-418.471	-121.970	-0.121	0.020
-417.457	-82.282	0.383	0.124
-416.442	555.755	0.013	0.031
-415.428	16.813	-0.342	0.270
-414.413	535.633	0.065	-0.153
-413.398	-40.600	0.112	-0.058
-412.384	-154.929	-0.063	0.004
-411.369	312.803	0.081	0.152
-410.355	34.369	0.162	-0.141
-409.340	669.747	-0.080	-0.206
-408.325	-200.000	0.005	-0.100
-407.311	53.842	-0.155	0.149
-406.296	-25.271	-0.041	-0.024
-405.282	-21.233	-0.203	0.124
-404.267	-96.482	-0.196	-0.052
-403.252	-140.344	-0.282	0.029
-402.238	106.919	-0.189	0.224
-401.223	50.849	-0.209	-0.198
-400.209	107.734	0.156	0.185
-399.194	-100.990	0.411	0.100
-398.179	-119.199	-0.547	-0.095
-397.165	39.847	-0.229	-0.205
-396.150	-40.484	0.192	0.099
-395.136	29.708	0.165	0.140
-394.121	-78.634	0.223	-0.076
-393.106	-106.884	0.099	-0.022
-392.092	800.000	0.022	-0.073
-391.077	-25.600	0.242	0.142
-390.063	-39.933	0.087	0.045
-389.048	-42.497	-0.171	0.087
-388.033	-200.000	0.026	-0.133
-387.019	800.000	0.074	0.288
-386.004	-149.083	0.066	0.005
-384.990	-37.963	-0.225	-0.119
-383.975	-119.048	-0.056	-0.010
-382.960	-83.851	-0.112	-0.035
-381.946	72.120	-0.019	0.020
-380.931	229.061	0.183	0.297
-379.917	-10.376	-0.168	0.111
-378.902	31.777	-0.114	0.098
-377.888	-69.551	0.021	0.008
-376.873	-172.515	-0.113	-0.004
-375.858	800.000	-0.093	-0.332
-374.844	-133.415	0.258	-0.032
-373.829	-87.087	0.062	0.019
-372.815	-36.457	0.047	-0.025
-371.800	-45.228	0.239	-0.118
-370.785	-200.000	0.022	0.133
-369.771	-19.462	0.333	0.205
-368.756	-151.053	-0.278	-0.021
-367.742	-12.225	0.095	-0.061
-366.727	214.413	-0.112	0.176
-365.712	276.091	-0.045	-0.079
-364.698	-34.134	-0.033	0.018
-363.683	800.000	-0.130	-0.394
-362.669	415.170	-0.067	-0.142
-361.654	535.221	-0.069	0.162
-360.639	16.682	-0.278	-0.218
-359.625	-200.000	0.016	-0.074
-358.610	316.969	-0.168	0.316
-357.596	1.843	-0.188	0.135
-356.581	-6.879	0.226	-0.153
-355.566	69.876	0.101	0.103
-354.552	-21.453	0.118	0.072
-353.537	-10.851	0.233	0.153
-352.523	-62.767	0.051	0.021
-351.508	-136.864	0.366	-0.042
-350.493	-98.557	-0.518	0.131
-349.479	453.219	0.107	-0.234
-348.464	-47.154	0.099	-0.048
-347.450	-27.396	-0.251	0.145
-346.435	433.605	-0.175	0.378
-345.420	800.000	0.027	0.114
-344.406	30.807	-0.111	0.094
-343.391	800.000	-0.017	-0.060
-342.377	-78.823	0.235	-0.080
-341.362	9.358	0.168	-0.126
-340.348	62.416	0.088	-0.087
-339.333	-200.000	-0.002	-0.148
-338.318	131.520	0.205	-0.262
-337.304	-109.225	0.258	-0.054
-336.289	514.629	0.155	-0.359
-335.275	431.271	0.048	-0.103
-334.260	-138.861	0.549	-0.059
-333.245	49.122	-0.079	0.073
-332.231	71.422	0.098	-0.101
-331.216	218.982	-0.166	0.263
-330.202	75.448	0.319	0.335
-329.187	210.900	0.110	-0.172
-328.172	-64.911	-0.246	-0.099
-327.158	264.953	0.036	-0.062
-326.143	-157.765	-0.139	-0.008
-325.129	417.572	-0.087	0.184
-324.114	800.000	0.022	0.079
-323.099	-52.869	0.304	-0.139
-322.085	51.415	0.254	0.239
-321.070	-52.917	0.348	0.159
-320.056	348.803	0.041	-0.080
-319.041	352.634	-0.049	0.097
-318.026	-96.247	-0.407	0.107
-317.012	-80.137	-0.290	0.096
-315.997	800.000	0.039	0.158
-314.983	-200.000	0.059	0.261
-313.968	285.902	-0.039	-0.070
-312.953	-77.240	0.151	0.052
-311.939	-200.000	0.020	-0.109
-310.924	327.037	-0.055	0.105
-309.910	-43.003	0.183	0.092
-308.895	-142.635	0.221	0.021
-307.880	800.000	-0.072	-0.258
-306.866	133.242	0.170	0.218
-305.851	117.428	0.099	0.121
-304.837	-200.000	0.004	-0.278
-303.822	800.000	0.066	-0.254
-302.807	149.694	0.259	0.348
-301.793	488.490	0.075	0.169
-300.778	96.415	-0.164	0.186
-299.764	-200.000	-0.030	-0.355
-298.749	-57.461	0.066	0.029
-297.735	-79.889	0.307	0.102
-296.720	50.795	-0.121	0.113
-295.705	-94.936	-0.355	0.095
-294.691	-7.052	-0.264	-0.178
-293.676	43.603	0.115	0.104
-292.662	-112.967	0.051	-0.010
-291.647	-200.000	-0.003	0.092
-290.632	175.525	0.167	-0.240
-289.618	104.981	-0.121	-0.141
-288.603	784.641	0.088	0.240
-287.589	-200.000	-0.006	-0.117
-286.574	800.000	-0.098	-0.285
-285.559	-200.000	-0.077	-0.345
-284.545	-200.000	0.001	0.062
-283.530	-91.814	-0.251	-0.071
-282.516	-90.899	0.395	0.113
-281.501	-102.642	0.471	-0.111
-280.486	-143.073	0.244	-0.023
-279.472	295.488	-0.152	0.276
-278.457	721.967	-0.096	0.252
-277.443	65.230	0.104	-0.104
-276.428	-25.796	0.321	-0.187
-275.413	130.110	-0.097	0.123
-274.399	429.557	0.057	-0.122
-273.384	-200.000	-0.001	0.021
-272.370	-200.000	-0.023	-0.124
-271.355	-51.338	-0.171	0.079
-270.340	-13.608	-0.165	0.106
-269.326	-60.134	0.133	-0.056
-268.311	-88.539	-0.141	-0.042
-267.297	800.000	0.087	0.264
-266.282	-70.307	-0.376	0.141
-265.267	445.676	0.111	0.241
-264.253	173.783	0.227	0.324
-263.238	-79.398	-0.198	-0.066
-262.224	327.922	0.088	-0.168
-261.209	344.496	0.087	-0.169
-260.195	-67.867	0.229	-0.089
-259.180	-25.675	-0.277	0.162
-258.165	-200.000	0.047	0.372
-257.151	492.942	-0.165	-0.375
-256.136	-13.149	-0.146	-0.094
-255.122	-116.719	0.583	0.106
-254.107	62.551	-0.199	0.197
-253.092	-87.147	0.346	0.104
-252.078	40.288	0.147	-0.131
-251.063	-103.091	0.199	-0.047
-250.049	101.575	-0.078	0.090
-249.034	129.287	0.181	-0.229
-248.019	-158.682	-0.149	-0.008
-247.005	-110.783	0.292	-0.060
-245.990	-41.030	-0.251	0.128
-244.976	-153.180	-0.214	0.015
-243.961	503.982	0.098	-0.225
-242.946	-123.761	0.147	-0.023
-241.932	-103.148	0.123	0.029
-240.917	-99.921	0.112	-0.028
-239.903	75.269	-0.246	-0.256
-238.888	231.383	-0.084	0.136
-237.873	-197.601	-0.176	-0.001
-236.859	163.405	0.081	0.113
-235.844	299.545	0.248	0.452
-234.830	-172.701	0.220	0.007
-233.815	15.429	-0.033	0.025
-232.800	-167.866	-0.213	0.008
-231.786	-36.465	-0.142	-0.076
-230.771	800.000	0.121	-0.381
-229.757	-200.000	-0.011	-0.057
-228.742	-200.000	-0.003	-0.041
-227.727	800.000	0.047	0.190
-226.713	-25.234	0.085	0.050
-225.698	-86.543	-0.159	-0.048
-224.684	-200.000	-0.007	0.084
-223.669	43.033	0.148	0.134
-222.655	-152.090	0.252	0.018
-221.640	-200.000	-0.043	0.220
-220.625	-137.525	0.253	-0.028
-219.611	52.033	0.130	0.122
-218.596	-104.129	-0.179	-0.041
-217.582	-47.212	0.151	0.073
-216.567	-129.975	0.173	-0.023
-215.552	-148.477	0.143	-0.012
-214.538	-139.620	-0.458	-0.048
-213.523	-87.499	0.361	-0.108
-212.509	-200.000	-0.009	0.067
-211.494	48.532	-0.100	-0.093
-210.479	155.374	-0.273	-0.371
-209.465	109.110	-0.104	-0.123
-208.450	-200.000	0.013	-0.172
-207.436	18.539	-0.063	0.049
-206.421	629.914	0.101	0.251
-205.406	-200.000	-0.040	-0.580
-204.392	518.086	-0.062	-0.142
-203.377	390.073	0.146	-0.298
-202.363	12.506	-0.072	0.055
-201.348	800.000	0.041	0.151
-200.333	-192.428	-0.209	-0.002
-199.319	118.987	-0.051	0.063
-198.304	172.268	-0.195	0.277
-197.290	800.000	0.122	0.415
-196.275	441.519	0.153	-0.331
-195.260	433.469	-0.114	-0.244
-194.246	11.491	0.097	0.073
-193.231	158.133	-0.068	-0.094
-192.217	-7.941	0.080	0.053
-191.202	800.000	-0.049	0.165
-190.187	210.211	0.207	0.321
-189.173	-27.020	0.153	0.088
-188.158	2.894	-0.121	0.087
-187.144	-200.000	-0.011	-0.108
-186.129	-200.000	0.021	-0.324
-185.114	-17.762	0.334	-0.207
-184.100	-32.236	0.414	0.228
-183.085	514.637	0.063	0.144
-182.071	-200.000	-0.015	0.329
-181.056	-54.935	-0.217	-0.097
-180.042	-125.453	-0.147	0.022
-179.027	-91.803	-0.278	0.078
-178.012	-30.891	-0.104	-0.058
-176.998	248.303	-0.057	-0.095
-175.983	92.472	0.109	0.122
-174.969	-108.927	-0.322	-0.068
-173.954	-112.734	0.251	0.049
-172.939	-24.903	0.191	-0.112
-171.925	50.144	-0.237	-0.221
-170.910	-122.587	-0.396	0.063
-169.896	-200.000	0.019	0.112
-168.881	-200.000	0.006	0.138
-167.866	9.184	-0.282	0.211
-166.852	-6.066	0.243	0.164
-165.837	800.000	0.086	-0.234
-164.823	-200.000	-0.012	-0.176
-163.808	81.846	0.201	-0.214
-162.793	-78.160	0.243	-0.082
-161.779	651.328	0.042	-0.106
-160.764	-44.723	-0.113	-0.056
-159.750	-13.572	0.197	-0.126
-158.735	-200.000	0.009	0.044
-157.720	307.396	0.060	0.111
-156.706	-7.691	-0.030	0.020
-155.691	170.196	0.175	0.247
-154.677	-87.984	0.166	0.049
-153.662	6.412	-0.148	0.108
-152.647	-200.000	-0.033	0.219
-151.633	-143.571	-0.103	-0.010
-150.618	-200.000	-0.022	-0.108
-149.604	-106.341	-0.148	0.033
-148.589	-27.993	-0.159	0.091
-147.574	368.471	0.122	-0.243
-146.560	-200.000	0.024	-0.149
-145.545	-131.804	0.122	-0.016
-144.531	-200.000	-0.004	-0.202
-143.516	-133.322	-0.066	-0.008
-142.502	-200.000	0.018	0.216
-141.487	204.115	-0.214	-0.327
-140.472	-200.000	0.008	-0.251
-139.458	-185.400	0.245	0.004
-138.443	356.241	0.145	-0.285
-137.429	421.192	-0.176	-0.371
-136.414	800.000	0.060	0.239
-135.399	51.713	0.142	0.133
-134.385	-3.564	-0.161	-0.110
-133.370	-51.478	0.220	0.101
-132.356	43.849	0.060	-0.054
-131.341	-155.533	-0.306	-0.019
-130.326	-85.734	-0.328	-0.100
-129.312	-200.000	-0.033	0.382
-128.297	-103.016	0.096	0.023
-127.283	-56.778	-0.126	-0.055
-126.268	-63.669	0.236	0.095
-125.253	198.901	-0.057	-0.086
-124.239	800.000	-0.089	-0.303
-123.224	-200.000	-0.010	0.064
-122.210	800.000	0.034	0.097
-121.195	457.408	0.096	-0.210
-120.180	431.448	0.062	0.133
-119.166	376.631	0.104	0.210
-118.151	-147.338	-0.242	-0.020
-117.137	800.000	-0.065	-0.193
-116.122	598.160	0.173	0.422
-115.107	89.082	-0.181	0.199
-114.093	255.199	0.067	-0.113
-113.078	800.000	-0.075	0.305
-112.064	-160.648	-0.050	0.003
-111.049	71.128	0.088	-0.090
-110.034	-7.558	0.199	0.133
-109.020	-77.444	0.168	-0.057
-108.005	-85.968	0.261	0.079
-106.991	-36.376	0.137	0.073
-105.976	249.480	-0.077	0.129
-104.962	37.958	0.083	0.073
-103.947	-200.000	-0.003	0.575
-102.932	-53.771	0.207	-0.093
-101.918	-145.889	-0.154	0.013
-100.903	160.221	-0.054	0.074
-99.889	63.764	0.129	0.128
-98.874	800.000	0.065	-0.282
-97.859	-158.720	0.255	0.014
-96.845	85.731	0.197	0.213
-95.830	-200.000	-0.024	0.231
-94.816	48.193	0.020	-0.018
-93.801	-92.060	0.314	0.087
-92.786	549.309	0.102	0.241
-91.772	800.000	0.100	0.386
-90.757	-9.735	-0.199	-0.130
-89.743	800.000	-0.017	0.068
-88.728	-39.253	0.126	0.065
-87.713	-146.299	-0.495	0.043
-86.699	-76.758	0.165	0.057
-85.684	-154.500	0.347	0.023
-84.670	0.045	-0.235	0.164
-83.655	64.257	0.178	0.177
-82.640	-62.972	-0.099	0.040
-81.626	-52.374	0.287	0.131
-80.611	-161.209	-0.250	-0.013
-79.597	25.208	-0.201	-0.164
-78.582	800.000	0.102	-0.279
-77.567	800.000	0.084	0.313
-76.553	-200.000	0.008	-0.293
-75.538	-90.194	0.333	0.095
-74.524	208.072	-0.083	0.128
-73.509	273.915	-0.041	0.072
-72.494	40.111	0.396	0.350
-71.480	-76.878	-0.074	-0.025
-70.465	800.000	-0.048	0.158
-69.451	-141.430	-0.277	0.028
-68.436	41.993	-0.120	0.107
-67.422	-140.071	-0.192	0.020
-66.407	-66.916	-0.273	-0.106
-65.392	381.550	-0.082	-0.165
-64.378	-105.680	0.386	-0.086
-63.363	-63.269	0.126	0.051
-62.349	-56.691	0.309	0.134
-61.334	244.695	-0.762	-1.258
-60.319	146.526	0.261	0.344
-59.305	-200.000	-0.017	-1.284
-58.290	95.654	0.949	1.064
-57.276	800.000	0.550	1.616
-56.261	-200.000	97.559	589.126
-55.246	498.400	1421.556	3215.999
-54.232	150.620	2632.779	3513.344
-53.217	111.612	2194.950	2601.102
-52.203	43.535	1633.924	1467.379
-51.188	34.612	1362.987	1169.649
-50.173	31.233	1321.015	1113.476
-49.159	55.074	1369.058	1298.987
-48.144	56.172	1385.376	1321.060
-47.130	34.666	1343.678	1153.222
-46.115	31.159	1326.505	1117.487
-45.100	31.094	1321.233	1112.613
-44.086	30.873	1318.995	1109.363
-43.071	30.783	1316.795	1106.937
-42.057	30.908	1314.354	1105.581
-41.042	30.821	1313.209	1104.058
-40.027	30.911	1311.557	1103.161
-39.013	30.858	1309.507	1101.080
-37.998	30.945	1307.883	1100.180
-36.984	30.949	1306.193	1098.739
-35.969	30.811	1304.547	1096.499
-34.954	30.900	1303.028	1095.703
-33.940	30.962	1301.708	1094.914
-32.925	30.960	1300.268	1093.648
-31.911	31.039	1298.668	1092.724
-30.896	31.060	1297.229	1091.589
-29.881	31.071	1295.835	1090.437
-28.867	31.135	1294.329	1089.501
-27.852	31.075	1292.594	1087.648
-26.838	31.081	1291.242	1086.502
-25.823	31.044	1290.075	1085.261
-24.809	31.029	1288.539	1083.837
-23.794	31.172	1287.372	1083.646
-22.779	30.979	1286.632	1081.859
-21.765	30.997	1284.760	1080.345
-20.750	30.954	1283.288	1078.817
-19.736	30.859	1282.352	1077.440
-18.721	30.821	1281.329	1076.316
-17.706	30.941	1279.991	1075.841
-16.692	30.891	1278.729	1074.450
-15.677	30.845	1277.756	1073.325
-14.663	30.855	1276.652	1072.414
-13.648	30.770	1275.392	1070.821
-12.633	30.900	1274.089	1070.436
-11.619	30.770	1273.727	1069.337
-10.604	30.920	1272.066	1068.763
-9.590	30.813	1271.825	1067.904
-8.575	30.725	1271.122	1066.768
-7.560	30.894	1269.697	1066.498
-6.546	30.903	1268.880	1065.822
-5.531	30.640	1268.907	1064.295
-4.517	30.845	1267.119	1063.926
-3.502	30.972	1266.234	1063.864
-2.487	30.804	1265.492	1062.242
-1.473	30.871	1261.461	1059.194
-0.458	30.032	1247.063	1042.345
0.556	26.024	1230.315	1005.669
1.571	22.033	1235.342	987.294
2.586	20.401	1249.140	988.950
3.600	19.256	1237.035	972.818
4.615	14.147	1162.628	887.043
5.629	5.455	1086.186	785.181
6.644	1.357	1066.047	750.335
7.659	0.935	1063.940	746.702
8.673	0.914	1062.850	745.769
9.688	0.825	1061.488	744.310
10.702	1.226	1059.430	744.767
11.717	6.012	1065.986	772.910
12.731	13.682	1075.933	818.027
13.746	17.195	1079.934	838.361
14.761	17.461	1079.922	839.587
15.775	16.881	1077.881	835.071
16.790	15.746	1076.044	827.988
17.804	15.168	1074.533	823.912
18.819	14.792	1073.256	821.014
19.834	14.581	1072.439	819.278
20.848	14.188	1071.587	816.628
21.863	13.854	1070.820	814.332
22.877	13.793	1069.862	813.232
23.892	13.802	1069.469	812.909
24.907	13.764	1068.380	811.819
25.921	13.825	1067.464	811.349
26.936	13.825	1066.939	810.882
27.950	13.751	1066.022	809.750
28.965	13.908	1064.567	809.338
29.980	13.980	1062.923	808.366
30.994	14.107	1061.783	808.046
32.009	14.005	1061.474	807.246
33.023	14.094	1060.148	806.596
34.038	13.978	1059.451	805.434
35.053	13.901	1058.930	804.594
36.067	14.012	1057.282	803.804
37.082	13.920	1057.188	803.219
38.096	13.928	1056.156	802.404
39.111	14.029	1055.427	802.266
40.126	13.932	1054.559	801.066
41.140	13.745	1053.288	799.128
42.155	13.833	1052.274	798.714
43.169	13.702	1051.221	797.214
44.184	13.806	1049.954	796.680
45.199	13.743	1049.034	795.611
46.213	13.913	1047.835	795.442
47.228	13.808	1046.957	794.204
48.242	13.912	1045.792	793.746
49.257	13.899	1044.740	792.819
50.271	13.944	1043.951	792.362
51.286	13.982	1043.007	791.756
52.301	13.935	1041.761	790.519
53.315	13.812	1041.254	789.479
54.330	13.900	1040.171	789.005
55.344	13.862	1039.291	788.087
56.359	13.814	1038.364	787.085
57.374	13.709	1037.760	786.062
58.388	13.813	1036.735	785.709
59.403	13.729	1036.068	784.735
60.417	13.835	1035.001	784.361
61.432	13.771	1034.509	783.613
62.447	13.725	1033.696	782.714
63.461	13.792	1032.683	782.191
64.476	13.642	1032.042	780.929
65.490	13.636	1031.387	780.336
66.505	13.740	1030.257	779.904
67.520	13.808	1029.588	779.649
68.534	13.810	1028.927	779.086
69.549	13.846	1028.264	778.685
70.563	13.809	1027.136	777.587
71.578	13.683	1026.499	776.449
72.593	13.611	1026.074	775.722
73.607	13.630	1025.258	775.124
74.622	13.843	1024.343	775.359
75.636	13.569	1024.134	773.852
76.651	13.766	1022.764	773.668
77.666	13.683	1022.405	772.939
78.680	13.818	1021.543	772.848
79.695	13.711	1021.116	771.958
80.709	13.769	1020.377	771.602
81.724	13.865	1019.642	771.426
82.739	13.773	1018.961	770.412
83.753	13.944	1018.187	770.552
84.768	13.965	1017.134	769.786
85.782	13.862	1016.052	768.421
86.797	13.847	1015.236	767.668
87.812	13.938	1014.018	767.097
88.826	13.771	1013.511	765.875
89.841	13.913	1012.412	765.634
90.855	14.048	1011.253	765.312
91.870	13.863	1010.953	764.166
92.884	13.981	1009.814	763.779
93.899	13.935	1009.085	762.949
94.914	14.100	1007.758	762.634
95.928	14.112	1007.434	762.375
96.943	13.963	1006.210	760.699
97.957	13.836	1005.993	759.885
98.972	13.992	1005.051	759.824
99.987	13.992	1003.520	758.599
101.001	13.981	1002.954	758.050
102.016	13.999	1002.294	757.570
103.030	14.014	1001.264	756.789
104.045	13.936	1001.096	756.241
105.060	14.057	999.281	755.353
106.074	13.824	999.037	754.044
107.089	13.837	998.066	753.305
108.103	13.828	997.312	752.629
109.118	13.877	995.822	751.657
110.133	13.872	995.080	751.009
111.147	13.763	994.791	750.232
112.162	13.929	993.442	749.899
113.176	13.853	992.989	749.146
114.191	13.979	992.290	749.119
115.206	14.033	991.251	748.511
116.220	13.947	990.166	747.239
117.235	13.982	989.351	746.719
118.249	13.985	988.522	746.037
119.264	13.967	987.830	745.367
120.279	13.949	987.070	744.649
121.293	13.913	986.183	743.753
122.308	14.026	984.814	743.159
123.322	13.994	983.997	742.332
124.337	14.006	983.397	741.870
125.352	13.906	982.405	740.608
126.366	14.025	980.934	739.964
127.381	13.884	980.713	739.108
128.395	14.032	979.521	738.800
129.410	13.907	978.651	737.522
130.424	14.066	977.850	737.561
131.439	13.921	977.124	736.306
132.454	13.982	976.347	735.923
133.468	14.057	975.805	735.782
134.483	14.018	974.896	734.861
135.497	14.072	974.017	734.369
136.512	14.065	972.770	733.334
137.527	13.944	972.249	732.341
138.541	14.040	971.786	732.354
139.556	14.141	970.771	731.967
140.570	14.027	970.198	730.970
141.585	14.180	968.995	730.671
142.600	14.169	968.467	730.159
143.614	14.201	967.315	729.367
144.629	14.246	966.366	728.782
145.643	14.162	965.596	727.769
146.658	14.034	964.957	726.666
147.673	14.101	963.629	725.894
148.687	14.075	963.201	725.392
149.702	14.060	962.150	724.472
150.716	14.112	961.296	723.991
151.731	14.053	960.812	723.306
152.746	14.097	959.880	722.730
153.760	14.189	959.281	722.616
154.775	14.177	958.822	722.152
155.789	14.286	957.764	721.765
156.804	14.207	957.507	721.165
157.819	14.065	957.278	720.314
158.833	14.147	956.484	720.010
159.848	14.266	955.407	719.647
160.862	14.218	955.029	719.092
161.877	14.201	953.624	717.895
162.892	14.165	952.906	717.140
163.906	14.261	951.503	716.434
164.921	14.221	950.592	715.510
165.935	14.158	950.219	714.895
166.950	14.272	949.135	714.509
167.964	14.208	948.650	713.806
168.979	14.266	947.504	713.127
169.994	14.128	946.633	711.816
171.008	14.311	945.823	711.928
172.023	14.377	944.994	711.525
173.037	14.300	944.553	710.798
174.052	14.373	943.737	710.434
175.067	14.382	942.916	709.791
176.081	14.364	942.655	709.457
177.096	14.324	942.234	708.905
178.110	14.288	941.223	707.930
179.125	14.390	940.886	708.047
180.140	14.268	940.441	707.131
181.154	14.315	939.928	706.881
182.169	14.442	938.974	706.641
183.183	14.429	938.407	706.097
184.198	14.538	937.561	705.856
185.213	14.416	937.114	704.943
186.227	14.553	936.452	704.963
187.242	14.530	935.928	704.407
188.256	14.563	935.089	703.855
189.271	14.538	934.518	703.255
190.286	14.509	933.825	702.548
191.300	14.428	933.052	701.566
192.315	14.523	932.080	701.173
193.329	14.382	932.097	700.530
194.344	14.482	931.252	700.253
195.359	14.559	930.509	699.954
196.373	14.501	930.009	699.276
197.388	14.559	929.796	699.297
198.402	14.701	928.760	699.047
199.417	14.712	927.970	698.438
200.432	14.659	927.983	698.163
201.446	14.727	927.525	698.044
202.461	14.902	926.412	697.875
203.475	14.738	926.107	696.896
204.490	14.753	925.278	696.273
205.504	14.872	924.261	695.943
206.519	14.812	923.517	695.073
207.534	14.705	923.367	694.454
208.548	14.767	922.597	694.068
209.563	14.753	922.084	693.563
210.577	14.832	920.759	692.835
211.592	14.954	919.820	692.569
212.607	14.851	919.731	692.017
213.621	14.687	919.345	690.988
214.636	14.881	918.249	690.902
215.650	14.933	917.983	690.855
216.665	14.936	916.842	689.947
217.680	15.042	915.772	689.519
218.694	14.985	915.515	689.031
219.709	14.977	915.155	688.666
220.723	15.115	913.861	688.197
221.738	14.993	913.442	687.321
222.753	15.061	912.469	686.807
223.767	14.914	912.645	686.276
224.782	15.273	911.742	687.005
225.796	15.159	911.131	686.017
226.811	15.125	910.772	685.546
227.826	15.099	909.839	684.681
228.840	15.151	908.951	684.164
229.855	15.136	908.286	683.541
230.869	15.057	907.726	682.735
231.884	14.958	907.286	681.939
232.899	15.075	906.129	681.487
233.913	15.125	905.452	681.120
234.928	15.053	904.971	680.407
235.942	15.178	904.423	680.441
236.957	15.168	903.880	679.932
237.972	15.157	903.119	679.256
238.986	15.115	902.678	678.693
240.001	15.176	901.983	678.359
241.015	15.168	901.486	677.893
242.030	15.152	900.679	677.159
243.045	15.323	899.483	676.890
244.059	15.308	899.461	676.755
245.074	15.131	899.125	675.728
246.088	15.422	897.841	675.875
247.103	15.434	897.355	675.496
248.117	15.423	897.045	675.161
249.132	15.440	896.427	674.705
250.147	15.522	895.432	674.224
251.161	15.542	894.940	673.873
252.176	15.456	894.165	672.886
253.190	15.495	893.475	672.465
254.205	15.575	892.984	672.355
255.220	15.623	892.299	671.971
256.234	15.570	891.808	671.331
257.249	15.666	890.758	670.865
258.263	15.727	889.939	670.431
259.278	15.673	889.430	669.773
260.293	15.730	888.806	669.473
261.307	15.733	888.306	669.047
262.322	15.745	887.702	668.583
263.336	15.773	887.252	668.295
264.351	15.821	886.142	667.589
265.366	15.749	885.634	666.863
266.380	15.670	885.341	666.269
267.395	15.719	884.531	665.797
268.409	15.760	883.721	665.290
269.424	15.746	883.007	664.636
270.439	15.793	881.829	663.878
271.453	15.829	881.424	663.655
272.468	15.804	880.845	663.063
273.482	15.842	880.725	663.063
274.497	15.788	880.191	662.391
275.512	15.944	879.275	662.255
276.526	15.907	878.867	661.744
277.541	15.894	878.237	661.160
278.555	16.017	877.980	661.393
279.570	16.123	876.697	660.781
280.585	16.102	876.090	660.185
281.599	15.952	875.224	658.883
282.614	16.017	874.878	658.821
283.628	16.083	874.543	658.769
284.643	16.114	873.628	658.140
285.657	16.115	872.943	657.569
286.672	16.143	872.428	657.234
287.687	15.953	872.080	656.171
288.701	15.988	871.586	655.878
289.716	16.163	870.596	655.759
290.730	16.276	870.046	655.722
291.745	16.240	869.259	654.934
292.760	16.191	869.022	654.506
293.774	16.142	868.311	653.722
294.789	16.257	867.433	653.450
295.803	16.269	866.950	653.075
296.818	16.198	866.428	652.350
297.833	16.232	865.719	651.887
298.847	16.371	864.909	651.758
299.862	16.313	864.212	650.952
300.876	16.224	864.001	650.390
301.891	16.298	863.595	650.314
302.906	16.347	862.968	649.971
303.920	16.434	862.211	649.679
304.935	16.616	861.541	649.817
305.949	16.518	860.689	648.739
306.964	16.537	860.121	648.328
307.979	16.517	859.611	647.809
308.993	16.593	859.465	647.932
310.008	16.669	858.497	647.435
311.022	16.476	858.113	646.350
312.037	16.519	857.493	645.990
313.052	16.531	857.067	645.659
314.066	16.596	856.440	645.376
315.081	16.593	855.711	644.761
316.095	16.603	854.958	644.173
317.110	16.344	855.014	643.171
318.125	16.630	854.215	643.602
319.139	16.587	853.611	642.928
320.154	16.582	853.269	642.592
321.168	16.580	852.720	642.115
322.183	16.614	851.957	641.613
323.197	16.602	851.510	641.174
324.212	16.547	851.039	640.556
325.227	16.798	850.227	640.835
326.241	16.534	849.932	639.559
327.256	16.719	849.173	639.629
328.270	16.599	848.486	638.603
329.285	16.630	848.424	638.617
330.300	16.752	847.319	638.190
331.314	16.867	846.698	638.097
332.329	16.662	846.505	637.123
333.343	16.733	845.975	636.936
334.358	16.741	845.553	636.592
335.373	16.808	845.151	636.484
336.387	16.830	844.861	636.293
337.402	16.814	844.893	636.200
338.416	16.844	844.252	635.773
339.431	16.781	844.142	635.396
340.446	16.879	843.295	635.070
341.460	17.049	842.710	635.209
342.475	16.907	842.585	634.527
343.489	16.901	842.115	634.097
344.504	17.069	841.970	634.559
345.519	16.931	841.376	633.539
346.533	17.043	840.494	633.238
347.548	16.930	839.966	632.364
348.562	17.129	839.534	632.724
349.577	16.935	839.223	631.710
350.592	17.055	838.360	631.451
351.606	17.101	837.472	630.897
352.621	17.089	836.904	630.370
353.635	16.997	836.363	629.564
354.650	16.945	835.913	628.976
355.665	17.036	835.266	628.770
356.679	17.174	834.324	628.519
357.694	17.106	833.910	627.898
358.708	17.099	833.552	627.548
359.723	17.110	833.057	627.160
360.738	17.124	832.521	626.752
361.752	17.212	831.415	626.190
362.767	17.204	830.940	625.748
363.781	17.197	830.688	625.476
364.796	17.316	829.892	625.259
365.810	17.421	829.623	625.385
366.825	17.399	829.251	624.971
367.840	17.349	828.463	624.136
368.854	17.416	828.295	624.200
369.869	17.415	827.716	623.705
370.883	17.371	827.730	623.500
371.898	17.411	827.281	623.255
372.913	17.409	827.167	623.104
373.927	17.476	826.247	622.601
374.942	17.521	825.620	622.238
375.956	17.614	824.963	622.028
376.971	17.615	824.541	621.658
377.986	17.691	824.148	621.585
379.000	17.663	823.826	621.183
380.015	17.719	823.202	620.860
381.029	17.676	823.024	620.518
382.044	17.706	822.066	619.847
383.059	17.706	821.600	619.441
384.073	17.722	820.933	618.943
385.088	17.700	820.179	618.241
386.102	17.871	819.498	618.289
387.117	17.756	818.933	617.393
388.132	17.614	818.554	616.539
389.146	17.621	818.209	616.249
390.161	17.771	817.754	616.395
391.175	17.956	816.986	616.430
392.190	17.834	816.824	615.811
393.205	17.785	816.492	615.330
394.219	17.774	816.190	615.011
395.234	17.697	815.649	614.270
396.248	17.801	815.040	614.131
397.263	17.678	815.198	613.753
398.278	17.678	814.862	613.448
399.292	17.696	814.132	612.908
400.307	17.800	813.504	612.754
401.321	17.705	813.089	612.046
402.336	17.852	812.653	612.189
403.350	17.920	811.854	611.779
404.365	18.018	811.470	611.787
405.380	18.080	811.032	611.625
406.394	17.957	810.668	610.853
407.409	17.968	810.031	610.360
408.423	17.960	809.974	610.233
409.438	18.068	809.563	610.258
410.453	18.128	808.837	609.868
411.467	18.059	808.671	609.443
412.482	17.944	808.676	608.982
413.496	18.005	808.155	608.757
414.511	18.086	807.527	608.518
415.526	18.206	806.980	608.478
416.540	18.049	806.872	607.784
417.555	18.077	806.485	607.537
418.569	18.121	806.268	607.476
419.584	18.182	805.410	606.992
420.599	18.218	804.609	606.464
421.613	110.500	1290.770	1465.344
422.628	95.324	1361.603	1465.436
