DTS Sentinel unit serial number:	SN413079Multiplexer serial number:	ORYXHardware model number:	OX4-SRSoftware version number:	ORYX F/W v4.00 Oryx Data Collector v3.7.2.0data status	okinstallation	princeton_trtdifferential loss correction	single-endedforward channel	channel 1reverse channel	N/Adate	2019/09/17time	19:34:35forward acquisition time	60.00reverse acquisition time	0.00gamma	496.2192k internal	0.2312k external	0.2312temperature offset calibration	0.9975default loss term (dB/km)	0.3790temperature slope calibration	1.0000multiplexer offset coefficient	1.0000multiplexer slope coefficient	1.0000fibre end	0.00T internal ref (°C)	36.14T ext. ref 1 (°C)	0.25T ext. ref 2 (°C)	24.86length (m)	temperature (°C)	Stokes	anti-Stokes-747.200	218.382	0.064	0.104
-746.185	-96.213	0.162	-0.044
-745.171	587.991	-0.013	-0.033
-744.156	78.583	-0.114	0.123
-743.142	-121.921	-0.159	0.027
-742.127	-140.118	-0.042	0.004
-741.112	137.243	-0.034	0.045
-740.098	413.050	0.097	-0.209
-739.083	800.000	0.032	0.096
-738.069	-200.000	-0.002	0.359
-737.054	192.738	-0.156	0.239
-736.039	-84.195	-0.296	0.095
-735.025	-35.816	0.336	0.184
-734.010	30.858	-0.236	-0.205
-732.996	-174.761	-0.183	-0.005
-731.981	3.259	0.203	0.150
-730.966	11.790	-0.166	-0.129
-729.952	800.000	-0.027	-0.083
-728.937	-71.994	-0.456	-0.172
-727.923	800.000	-0.101	0.410
-726.908	-106.631	0.241	0.054
-725.894	21.795	-0.284	0.234
-724.879	-102.436	-0.266	0.065
-723.864	-33.358	-0.063	-0.035
-722.850	-97.337	-0.330	-0.087
-721.835	-73.001	0.373	-0.139
-720.821	257.460	-0.135	-0.236
-719.806	-200.000	-0.018	0.124
-718.791	78.174	-0.128	0.139
-717.777	243.549	-0.241	-0.410
-716.762	-141.239	0.334	-0.035
-715.748	33.742	-0.147	0.130
-714.733	-51.948	0.173	0.082
-713.718	481.156	-0.113	0.261
-712.704	-67.615	0.046	-0.018
-711.689	800.000	0.035	0.115
-710.675	5.324	-0.058	0.043
-709.660	-200.000	0.008	0.242
-708.645	277.830	-0.183	0.331
-707.631	-71.584	0.146	0.055
-706.616	17.005	-0.050	-0.040
-705.602	-63.722	-0.268	0.111
-704.587	800.000	0.069	-0.202
-703.572	-90.348	0.487	0.143
-702.558	381.740	-0.114	-0.236
-701.543	-65.547	0.233	0.095
-700.529	99.106	-0.157	0.183
-699.514	-81.186	0.146	-0.049
-698.499	-88.186	0.126	-0.038
-697.485	483.182	-0.079	0.182
-696.470	-14.738	-0.220	0.143
-695.456	800.000	-0.154	0.462
-694.441	215.811	0.252	0.406
-693.426	257.108	-0.086	-0.149
-692.412	-111.672	-0.211	0.043
-691.397	-200.000	-0.018	0.308
-690.383	-4.162	0.063	-0.044
-689.368	129.697	-0.111	0.143
-688.354	-200.000	-0.026	0.120
-687.339	96.401	0.028	0.033
-686.324	315.734	0.015	-0.028
-685.310	433.737	0.053	-0.117
-684.295	-200.000	-0.004	0.309
-683.281	-36.535	0.163	-0.089
-682.266	-200.000	0.043	-0.213
-681.251	800.000	0.130	0.447
-680.237	-135.981	0.102	0.012
-679.222	800.000	-0.072	-0.230
-678.208	136.129	0.200	-0.263
-677.193	45.006	0.140	-0.130
-676.178	31.937	-0.163	0.142
-675.164	-135.699	0.142	0.017
-674.149	-32.135	-0.223	0.126
-673.135	103.098	-0.051	-0.060
-672.120	124.326	-0.303	-0.386
-671.105	299.250	0.005	0.009
-670.091	114.409	-0.183	-0.225
-669.076	-12.506	0.160	-0.106
-668.062	48.702	0.156	-0.148
-667.047	-200.000	-0.017	0.150
-666.032	26.428	-0.186	0.157
-665.018	-114.825	0.124	-0.024
-664.003	-131.856	0.492	0.065
-662.989	76.786	0.210	-0.226
-661.974	-69.193	-0.335	0.130
-660.959	-192.980	-0.227	-0.002
-659.945	331.601	0.051	0.099
-658.930	-140.254	-0.331	0.035
-657.916	244.006	-0.028	0.048
-656.901	-69.623	-0.219	0.085
-655.886	10.921	0.323	0.250
-654.872	800.000	-0.061	-0.209
-653.857	-4.849	-0.294	0.205
-652.843	-200.000	0.035	0.180
-651.828	-117.417	-0.289	0.053
-650.814	17.744	0.184	0.148
-649.799	146.387	-0.141	-0.192
-648.784	-147.566	-0.110	-0.009
-647.770	-7.778	0.027	-0.018
-646.755	-158.212	-0.344	-0.020
-645.741	-109.454	0.428	-0.092
-644.726	-200.000	0.026	0.348
-643.711	-26.790	-0.119	0.071
-642.697	800.000	0.063	-0.206
-641.682	-167.802	-0.133	0.005
-640.668	-37.270	0.089	0.048
-639.653	-200.000	-0.048	-0.214
-638.638	-168.945	-0.146	0.006
-637.624	-200.000	0.024	-0.305
-636.609	-200.000	0.004	-0.096
-635.595	-200.000	0.079	0.417
-634.580	15.608	0.191	-0.152
-633.565	800.000	-0.017	-0.053
-632.551	-49.468	-0.079	-0.038
-631.536	-200.000	0.033	0.146
-630.522	-46.663	0.146	-0.072
-629.507	435.245	-0.182	0.399
-628.492	-147.941	-0.491	0.041
-627.478	-200.000	0.003	-0.257
-626.463	800.000	-0.117	-0.354
-625.449	800.000	-0.053	-0.202
-624.434	-55.531	-0.278	-0.126
-623.419	382.810	0.093	0.193
-622.405	-151.082	-0.101	-0.008
-621.390	-50.372	0.338	-0.161
-620.376	21.114	-0.145	-0.119
-619.361	-200.000	0.045	0.305
-618.346	-124.893	0.093	-0.015
-617.332	-200.000	0.030	-0.139
-616.317	124.094	0.123	-0.156
-615.303	84.089	0.019	-0.021
-614.288	800.000	0.020	0.074
-613.273	286.722	0.106	0.193
-612.259	-200.000	0.061	-0.564
-611.244	24.089	-0.227	-0.189
-610.230	-131.644	0.283	0.038
-609.215	-172.060	-0.229	-0.007
-608.201	-105.744	-0.218	0.050
-607.186	-32.742	0.264	0.148
-606.171	16.370	-0.232	0.185
-605.157	-200.000	0.021	-0.333
-604.142	490.827	-0.088	-0.204
-603.128	-147.646	-0.311	0.026
-602.113	31.291	0.318	-0.275
-601.098	-190.830	-0.078	0.001
-600.084	-153.588	-0.417	-0.029
-599.069	-10.265	0.162	0.108
-598.055	-200.000	-0.010	-0.164
-597.040	-69.127	0.167	0.065
-596.025	90.836	-0.074	0.083
-595.011	-185.414	0.227	0.004
-593.996	735.516	0.121	-0.326
-592.982	800.000	-0.071	0.301
-591.967	-48.770	-0.250	-0.121
-590.952	76.235	-0.152	-0.162
-589.938	-200.000	0.042	0.231
-588.923	-200.000	0.070	0.342
-587.909	-200.000	0.016	-0.283
-586.894	-47.781	0.337	0.165
-585.879	-76.322	-0.096	-0.034
-584.865	-200.000	-0.083	-0.402
-583.850	506.173	-0.162	-0.378
-582.836	-117.455	-0.387	-0.071
-581.821	-120.822	0.049	-0.008
-580.806	-200.000	-0.022	0.125
-579.792	798.522	-0.103	0.285
-578.777	-70.834	0.067	-0.025
-577.763	36.098	-0.139	-0.124
-576.748	800.000	-0.155	0.554
-575.733	203.212	-0.118	-0.183
-574.719	116.797	0.017	0.020
-573.704	-138.390	0.107	-0.012
-572.690	8.441	-0.249	0.189
-571.675	79.735	0.120	0.129
-570.661	110.459	0.083	-0.101
-569.646	-131.822	-0.199	-0.026
-568.631	-159.937	0.297	-0.016
-567.617	57.628	-0.074	-0.073
-566.602	-147.800	0.061	-0.005
-565.588	45.486	0.289	0.269
-564.573	229.240	0.151	0.249
-563.558	-49.479	0.116	-0.056
-562.544	-136.845	0.234	0.027
-561.529	207.706	-0.115	0.181
-560.515	43.461	-0.241	-0.222
-559.500	616.012	-0.128	-0.322
-558.485	-200.000	-0.006	0.270
-557.471	-80.378	0.174	-0.059
-556.456	176.531	0.142	-0.209
-555.442	19.126	-0.207	0.167
-554.427	-200.000	0.003	0.353
-553.412	-200.000	-0.053	-0.297
-552.398	21.962	-0.166	-0.136
-551.383	-133.536	-0.390	-0.049
-550.369	404.986	-0.104	0.221
-549.354	38.310	0.257	0.231
-548.339	800.000	-0.129	-0.359
-547.325	800.000	0.072	0.250
-546.310	339.961	0.066	-0.130
-545.296	-29.464	-0.393	-0.226
-544.281	-200.000	0.036	-0.182
-543.266	284.481	0.232	0.421
-542.252	7.966	-0.031	-0.024
-541.237	-200.000	-0.030	0.255
-540.223	63.539	-0.080	-0.081
-539.208	16.206	-0.158	0.125
-538.193	-1.743	0.176	-0.125
-537.179	-200.000	-0.042	-0.585
-536.164	42.642	-0.096	0.088
-535.150	3.086	-0.292	0.214
-534.135	250.564	-0.188	-0.322
-533.121	24.026	0.205	0.170
-532.106	-116.525	0.177	0.033
-531.091	100.247	0.133	-0.155
-530.077	3.107	-0.246	-0.180
-529.062	22.186	-0.230	-0.189
-528.048	24.287	-0.081	0.067
-527.033	-61.132	0.093	-0.040
-526.018	-0.231	-0.195	0.140
-525.004	545.600	0.117	0.282
-523.989	175.335	0.139	0.202
-522.975	800.000	0.083	-0.233
-521.960	-200.000	-0.003	-0.255
-520.945	111.929	-0.291	0.353
-519.931	-2.507	-0.338	0.238
-518.916	368.459	0.064	-0.129
-517.902	20.749	-0.161	-0.131
-516.887	-81.143	-0.268	-0.089
-515.872	81.370	0.164	0.179
-514.858	22.117	-0.170	-0.140
-513.843	-65.915	0.280	0.113
-512.829	114.739	-0.048	-0.058
-511.814	677.072	-0.198	-0.516
-510.799	34.220	0.321	0.282
-509.785	90.369	-0.092	0.104
-508.770	-140.799	0.022	0.002
-507.756	-83.347	0.156	-0.050
-506.741	100.220	0.158	-0.185
-505.726	800.000	-0.118	0.395
-504.712	137.300	0.214	0.281
-503.697	-107.451	0.048	0.010
-502.683	-101.577	0.215	0.053
-501.668	-167.560	-0.176	-0.007
-500.653	-200.000	0.012	-0.080
-499.639	-147.181	-0.318	0.027
-498.624	-66.843	-0.174	-0.069
-497.610	173.735	0.292	-0.423
-496.595	-54.165	0.143	0.065
-495.581	201.940	0.237	0.366
-494.566	-119.322	0.146	-0.026
-493.551	-58.504	-0.158	-0.069
-492.537	-138.770	0.247	0.027
-491.522	374.290	0.159	0.326
-490.508	127.148	0.100	0.127
-489.493	-140.016	-0.156	-0.017
-488.478	30.501	0.178	-0.153
-487.464	-200.000	-0.001	-0.275
-486.449	-23.523	0.131	-0.079
-485.435	-200.000	0.008	-0.212
-484.420	-200.000	-0.007	-0.188
-483.405	-200.000	-0.021	0.199
-482.391	76.843	-0.118	-0.126
-481.376	-146.654	0.052	-0.005
-480.362	40.606	-0.357	-0.323
-479.347	127.138	-0.050	0.064
-478.332	800.000	0.054	-0.185
-477.318	187.636	0.127	-0.190
-476.303	727.984	-0.094	0.252
-475.289	258.572	0.055	-0.094
-474.274	-110.038	0.192	-0.040
-473.259	-84.215	0.233	-0.074
-472.245	-157.071	-0.383	-0.023
-471.230	106.037	0.089	0.106
-470.216	800.000	-0.144	0.436
-469.201	53.499	-0.110	-0.106
-468.186	-47.883	0.260	-0.126
-467.172	-99.166	-0.110	0.028
-466.157	77.044	-0.221	-0.235
-465.143	-114.247	0.123	0.024
-464.128	49.491	-0.344	0.325
-463.113	201.290	-0.075	0.116
-462.099	-55.903	0.245	0.110
-461.084	-5.351	0.323	0.223
-460.070	26.061	-0.091	-0.076
-459.055	182.057	0.066	0.098
-458.040	69.209	0.178	0.184
-457.026	202.755	0.076	-0.118
-456.011	-146.857	0.175	-0.015
-454.997	422.171	-0.111	0.239
-453.982	-102.823	-0.242	-0.058
-452.968	64.431	-0.145	-0.147
-451.953	-71.755	0.437	0.163
-450.938	-66.749	0.158	-0.063
-449.924	-122.530	0.258	0.042
-448.909	593.072	0.097	0.239
-447.895	238.051	-0.050	-0.084
-446.880	-109.852	-0.153	-0.032
-445.865	-200.000	-0.011	-0.069
-444.851	-70.565	-0.173	0.066
-443.836	-130.670	0.088	-0.012
-442.822	574.942	-0.117	-0.286
-441.807	22.647	0.372	-0.306
-440.792	800.000	-0.050	-0.148
-439.778	-159.970	0.214	0.012
-438.763	-200.000	0.030	-0.318
-437.749	-152.132	0.202	0.015
-436.734	-2.256	0.097	-0.068
-435.719	11.636	-0.154	0.118
-434.705	-169.587	-0.247	0.009
-433.690	235.898	-0.121	0.201
-432.676	-84.707	0.393	-0.124
-431.661	144.492	-0.158	0.211
-430.646	-73.857	-0.055	-0.020
-429.632	-88.145	-0.102	0.031
-428.617	60.950	-0.033	0.032
-427.603	456.146	-0.181	-0.403
-426.588	800.000	0.100	0.377
-425.573	-200.000	-0.037	0.375
-424.559	-118.511	0.134	0.024
-423.544	-95.290	0.457	0.123
-422.530	14.448	0.132	0.103
-421.515	-16.735	0.242	0.154
-420.500	-116.875	-0.315	-0.058
-419.486	800.000	-0.078	-0.231
-418.471	-16.255	-0.165	0.105
-417.457	570.293	0.110	0.268
-416.442	-84.163	-0.210	0.067
-415.428	800.000	0.070	-0.210
-414.413	-28.104	0.302	-0.175
-413.398	800.000	0.063	-0.207
-412.384	-200.000	-0.041	0.250
-411.369	-169.306	-0.301	-0.011
-410.355	-200.000	-0.013	-0.155
-409.340	-200.000	-0.014	0.137
-408.325	748.968	-0.038	-0.102
-407.311	-87.503	-0.267	-0.081
-406.296	-32.454	0.167	-0.093
-405.282	800.000	0.051	-0.149
-404.267	645.059	-0.137	-0.349
-403.252	800.000	0.036	0.105
-402.238	-92.908	-0.165	0.046
-401.223	800.000	-0.002	0.006
-400.209	-200.000	-0.039	-0.181
-399.194	25.616	0.040	0.033
-398.179	-146.817	0.097	-0.008
-397.165	-40.865	-0.313	0.162
-396.150	109.726	-0.236	-0.283
-395.136	-181.412	-0.167	0.003
-394.121	-53.610	0.222	0.102
-393.106	-82.492	-0.281	0.091
-392.092	800.000	0.059	-0.178
-391.077	-102.286	0.414	0.099
-390.063	500.273	-0.017	-0.039
-389.048	-73.011	-0.128	0.047
-388.033	347.214	-0.157	-0.309
-387.019	-147.940	0.114	-0.009
-386.004	-164.328	-0.115	-0.005
-384.990	-62.179	0.220	0.092
-383.975	-200.000	0.059	0.288
-382.960	-107.099	0.099	-0.022
-381.946	-91.996	-0.293	0.083
-380.931	96.369	0.037	0.043
-379.917	351.305	0.143	-0.282
-378.902	-191.834	0.153	0.002
-377.888	132.839	-0.046	-0.059
-376.873	-171.442	-0.036	0.001
-375.858	800.000	-0.032	-0.141
-374.844	-64.412	-0.180	-0.073
-373.829	-146.276	0.041	-0.004
-372.815	-200.000	0.033	0.277
-371.800	-200.000	0.009	0.233
-370.785	-106.288	-0.071	0.016
-369.771	-115.255	-0.131	-0.025
-368.756	198.133	-0.168	0.257
-367.742	214.121	-0.123	-0.194
-366.727	-200.000	0.020	-0.276
-365.712	800.000	-0.117	-0.364
-364.698	101.692	-0.168	-0.196
-363.683	86.839	0.302	-0.333
-362.669	800.000	0.049	-0.215
-361.654	-8.235	-0.075	-0.051
-360.639	341.919	-0.074	0.144
-359.625	-67.967	-0.083	0.032
-358.610	-157.503	-0.173	-0.010
-357.596	-174.398	-0.208	-0.006
-356.581	57.818	0.254	-0.248
-355.566	-77.531	-0.140	-0.049
-354.552	-172.360	-0.284	-0.009
-353.537	800.000	-0.070	-0.201
-352.523	174.013	-0.115	0.166
-351.508	46.055	0.168	0.155
-350.493	-110.202	-0.143	0.030
-349.479	45.097	0.303	0.279
-348.464	-200.000	-0.018	-0.227
-347.450	108.882	-0.149	0.178
-346.435	-92.489	0.223	0.063
-345.420	800.000	0.007	-0.021
-344.406	-96.212	-0.129	-0.034
-343.391	-56.565	0.459	0.203
-342.377	-154.217	-0.101	0.007
-341.362	-1.576	-0.376	0.265
-340.348	-46.859	-0.045	0.022
-339.333	80.680	-0.267	-0.287
-338.318	-200.000	0.024	0.352
-337.304	-86.764	0.235	0.072
-336.289	-70.144	-0.355	0.135
-335.275	-200.000	-0.006	-0.027
-334.260	100.930	0.105	-0.122
-333.245	386.605	0.038	0.079
-332.231	-84.809	0.517	-0.162
-331.216	-175.242	-0.105	-0.003
-330.202	-59.965	0.160	0.068
-329.187	679.818	0.083	-0.216
-328.172	-200.000	-0.010	0.123
-327.158	-200.000	-0.021	0.223
-326.143	184.743	0.133	0.197
-325.129	541.462	0.150	0.356
-324.114	-200.000	0.010	0.048
-323.099	800.000	-0.032	0.094
-322.085	-200.000	-0.004	0.119
-321.070	-166.844	0.136	0.006
-320.056	-75.422	0.214	-0.076
-319.041	38.258	-0.143	-0.127
-318.026	-56.849	0.172	-0.076
-317.012	49.038	0.196	-0.184
-315.997	231.669	0.193	-0.316
-314.983	-200.000	0.025	0.220
-313.968	-70.958	-0.079	0.030
-312.953	-164.582	0.283	-0.013
-311.939	480.157	0.187	0.423
-310.924	67.406	0.059	-0.060
-309.910	-60.491	-0.204	0.086
-308.895	247.859	-0.092	0.155
-307.880	190.959	0.080	-0.120
-306.866	-200.000	0.030	0.193
-305.851	-200.000	0.020	-0.217
-304.837	67.707	-0.168	0.171
-303.822	95.878	-0.184	-0.210
-302.807	-90.978	-0.132	0.038
-301.793	-200.000	0.034	-0.229
-300.778	-200.000	-0.007	-0.122
-299.764	206.473	-0.073	-0.113
-298.749	102.923	0.183	-0.214
-297.735	73.731	0.271	0.283
-296.720	-101.526	0.272	0.066
-295.705	68.182	-0.061	-0.062
-294.691	800.000	-0.007	-0.021
-293.676	26.991	0.167	-0.139
-292.662	-93.315	0.323	-0.089
-291.647	-200.000	0.059	0.328
-290.632	-20.364	0.067	-0.041
-289.618	800.000	0.044	-0.178
-288.603	-200.000	-0.031	-0.191
-287.589	415.558	0.082	0.173
-286.574	-139.150	0.085	0.009
-285.559	-200.000	0.013	-0.131
-284.545	-127.569	-0.296	-0.043
-283.530	162.146	-0.067	0.093
-282.516	-134.742	0.133	-0.016
-281.501	533.666	0.118	0.279
-280.486	-200.000	0.031	-0.148
-279.472	112.857	-0.251	0.303
-278.457	-200.000	-0.000	0.030
-277.443	-10.036	0.054	-0.035
-276.428	800.000	0.111	0.424
-275.413	-200.000	-0.041	-0.204
-274.399	-200.000	-0.012	-0.071
-273.384	-90.804	0.487	-0.140
-272.370	-48.873	0.475	0.227
-271.355	-200.000	-0.028	0.305
-270.340	800.000	-0.096	-0.302
-269.326	-37.367	-0.241	0.128
-268.311	-72.763	-0.212	-0.078
-267.297	108.214	0.084	-0.100
-266.282	170.697	-0.138	0.197
-265.267	-105.994	-0.188	-0.042
-264.253	53.204	-0.191	0.182
-263.238	199.575	0.114	0.174
-262.224	664.148	0.071	0.184
-261.209	651.103	-0.041	0.104
-260.195	-92.341	-0.234	-0.066
-259.180	233.656	0.198	-0.324
-258.165	-200.000	-0.018	-0.175
-257.151	193.371	-0.100	-0.151
-256.136	-68.485	-0.211	-0.082
-255.122	142.980	0.178	-0.235
-254.107	800.000	0.044	-0.150
-253.092	-101.602	0.073	-0.018
-252.078	-200.000	0.034	0.202
-251.063	43.374	-0.188	-0.171
-250.049	40.573	-0.102	0.092
-249.034	11.167	-0.275	0.209
-248.019	38.501	0.172	0.153
-247.005	-97.830	-0.139	0.036
-245.990	800.000	0.079	-0.338
-244.976	-200.000	-0.044	-0.213
-243.961	-75.939	-0.077	-0.027
-242.946	-200.000	0.002	0.157
-241.932	-114.307	0.285	-0.055
-240.917	-74.757	0.066	-0.023
-239.903	24.216	-0.253	-0.208
-238.888	440.158	0.135	0.294
-237.873	-71.027	0.254	0.095
-236.859	-200.000	0.024	-0.223
-235.844	578.215	-0.065	-0.158
-234.830	6.399	-0.214	0.158
-233.815	-19.870	0.065	-0.040
-232.800	-200.000	0.000	0.250
-231.786	514.192	0.142	0.329
-230.771	-75.908	0.300	-0.106
-229.757	-116.175	0.194	-0.036
-228.742	8.460	-0.249	0.186
-227.727	-156.587	0.293	0.018
-226.713	-111.563	-0.131	-0.026
-225.698	166.230	-0.054	0.077
-224.684	-48.569	0.282	-0.135
-223.669	-38.653	-0.368	-0.193
-222.655	-68.403	-0.238	-0.092
-221.640	-200.000	-0.011	0.052
-220.625	111.139	0.123	0.147
-219.611	-46.308	-0.577	0.282
-218.596	97.673	0.123	0.141
-217.582	-200.000	-0.108	0.474
-216.567	-14.567	-0.075	-0.048
-215.552	-124.569	-0.194	0.030
-214.538	-200.000	-0.022	-0.178
-213.523	-19.714	0.197	0.121
-212.509	-59.366	-0.470	0.201
-211.494	104.046	0.123	-0.143
-210.479	-26.482	-0.162	-0.094
-209.465	-200.000	0.087	0.000
-208.450	7.428	0.121	-0.090
-207.436	-100.307	0.053	0.013
-206.421	800.000	-0.012	0.050
-205.406	179.718	-0.059	0.085
-204.392	36.685	0.137	-0.120
-203.377	-62.098	0.282	-0.117
-202.363	-200.000	0.026	0.196
-201.348	800.000	-0.068	0.272
-200.333	-45.636	-0.202	0.099
-199.319	112.384	0.251	-0.302
-198.304	-49.325	0.234	0.111
-197.290	-20.853	0.121	0.074
-196.275	550.351	-0.091	-0.216
-195.260	48.091	0.016	-0.015
-194.246	-24.638	0.125	0.074
-193.231	255.391	-0.136	-0.231
-192.217	-43.922	-0.339	-0.169
-191.202	115.123	-0.234	-0.284
-190.187	497.833	0.090	0.205
-189.173	59.149	0.136	-0.133
-188.158	-72.762	0.356	0.130
-187.144	168.061	-0.250	-0.353
-186.129	-110.245	0.290	0.060
-185.114	-200.000	0.012	-0.250
-184.100	-70.944	-0.459	0.172
-183.085	-114.126	0.268	-0.051
-182.071	217.497	0.170	-0.268
-181.056	-14.864	0.053	0.033
-180.042	-64.576	0.340	0.137
-179.027	-145.135	-0.378	0.034
-178.012	-161.688	0.237	-0.012
-176.998	-122.058	-0.108	0.018
-175.983	800.000	-0.027	-0.094
-174.969	65.132	-0.191	0.192
-173.954	800.000	0.067	0.209
-172.939	249.564	-0.184	0.309
-171.925	800.000	-0.074	0.307
-170.910	116.048	-0.193	0.235
-169.896	22.725	-0.053	-0.043
-168.881	-15.557	0.204	-0.129
-167.866	179.302	0.115	0.168
-166.852	441.392	-0.142	-0.307
-165.837	165.089	-0.080	0.112
-164.823	252.973	0.087	0.148
-163.808	-111.103	-0.055	-0.011
-162.793	22.459	0.349	0.283
-161.779	129.444	-0.109	-0.138
-160.764	-66.825	0.190	0.075
-159.750	46.458	-0.115	0.106
-158.735	-18.129	0.249	0.155
-157.720	-52.882	0.223	-0.102
-156.706	355.406	-0.089	0.175
-155.691	-82.579	0.280	-0.090
-154.677	-194.339	-0.196	0.002
-153.662	319.221	-0.065	0.122
-152.647	800.000	0.023	0.073
-151.633	-115.531	0.256	0.048
-150.618	-200.000	0.004	0.222
-149.604	-32.544	0.065	-0.036
-148.589	-126.023	0.186	-0.028
-147.574	136.583	0.165	-0.213
-146.560	-200.000	-0.037	-0.196
-145.545	-89.004	0.601	0.176
-144.531	14.625	-0.116	-0.090
-143.516	-101.768	-0.246	0.059
-142.502	642.096	-0.147	0.371
-141.487	791.678	0.136	-0.371
-140.472	-200.000	-0.035	-0.229
-139.458	-200.000	0.000	-0.320
-138.443	238.790	-0.085	0.139
-137.429	-200.000	-0.017	-0.293
-136.414	-164.908	0.139	0.006
-135.399	-47.073	-0.167	0.081
-134.385	-129.206	-0.145	-0.020
-133.370	-54.135	0.401	0.181
-132.356	800.000	-0.055	0.236
-131.341	145.391	0.131	-0.174
-130.326	17.714	-0.119	0.094
-129.312	-63.441	0.321	-0.131
-128.297	181.385	0.112	-0.162
-127.283	-23.405	0.500	0.297
-126.268	95.090	-0.093	0.104
-125.253	-200.000	-0.008	0.220
-124.239	300.656	0.148	-0.271
-123.224	-152.185	0.468	0.034
-122.210	347.977	0.034	-0.066
-121.195	-161.058	0.252	-0.013
-120.180	-64.214	0.128	0.052
-119.166	-155.322	0.411	0.026
-118.151	152.028	-0.125	0.169
-117.137	63.912	0.116	0.116
-116.122	-116.615	0.199	-0.036
-115.107	-165.677	0.266	-0.011
-114.093	-158.499	0.133	-0.008
-113.078	50.506	0.396	0.370
-112.064	165.319	0.116	0.162
-111.049	100.543	-0.294	-0.338
-110.034	-200.000	-0.066	-0.329
-109.020	211.081	-0.148	-0.231
-108.005	-116.317	-0.167	0.031
-106.991	-181.135	0.189	0.004
-105.976	137.058	-0.029	-0.037
-104.962	128.872	-0.144	0.182
-103.947	-200.000	0.008	0.235
-102.932	800.000	-0.040	-0.144
-101.918	-148.640	0.119	-0.010
-100.903	-68.734	0.319	0.122
-99.889	149.316	-0.189	0.253
-98.874	113.778	0.205	-0.246
-97.859	-200.000	0.030	0.342
-96.845	-51.422	0.137	0.064
-95.830	800.000	-0.018	0.076
-94.816	-65.228	-0.124	0.050
-93.801	77.944	0.053	0.055
-92.786	46.618	0.296	-0.272
-91.772	77.142	-0.060	0.063
-90.757	-200.000	-0.026	-0.316
-89.743	114.890	-0.143	0.172
-88.728	-172.096	-0.177	0.006
-87.713	800.000	-0.069	0.200
-86.699	510.398	0.097	0.224
-85.684	19.144	0.218	0.173
-84.670	199.388	-0.089	0.135
-83.655	-200.000	0.024	-0.256
-82.640	50.556	-0.072	-0.068
-81.626	11.578	-0.195	0.148
-80.611	-93.166	0.086	-0.024
-79.597	800.000	0.068	-0.266
-78.582	-200.000	-0.030	-0.310
-77.567	102.738	-0.140	-0.161
-76.553	-130.961	-0.290	0.038
-75.538	-200.000	-0.060	0.381
-74.524	80.651	-0.024	-0.026
-73.509	-162.922	-0.338	-0.016
-72.494	-120.773	-0.292	-0.049
-71.480	247.725	0.257	0.429
-70.465	606.339	-0.023	0.056
-69.451	-79.491	-0.224	0.075
-68.436	-98.217	0.143	-0.036
-67.422	72.473	0.162	-0.167
-66.407	176.545	-0.079	0.113
-65.392	-197.049	-0.126	-0.001
-64.378	-83.927	0.254	-0.080
-63.363	48.035	-0.096	0.088
-62.349	-200.000	0.021	0.126
-61.334	275.328	-0.510	-0.894
-60.319	-2.523	0.284	0.196
-59.305	-200.000	-0.151	-0.885
-58.290	190.514	0.697	1.034
-57.276	480.240	0.745	1.669
-56.261	-200.000	95.078	557.085
-55.246	541.086	1374.815	3234.999
-54.232	156.291	2560.727	3489.956
-53.217	114.306	2166.667	2605.278
-52.203	47.737	1624.811	1497.824
-51.188	39.594	1361.696	1205.682
-50.173	36.264	1319.058	1148.110
-49.159	57.378	1366.056	1317.236
-48.144	61.739	1383.794	1360.630
-47.130	39.856	1340.077	1187.931
-46.115	36.267	1322.804	1151.208
-45.100	36.169	1317.362	1145.843
-44.086	35.944	1315.294	1142.662
-43.071	36.004	1312.771	1140.785
-42.057	35.872	1310.756	1138.208
-41.042	35.938	1309.279	1137.268
-40.027	35.940	1307.509	1135.699
-39.013	36.060	1305.694	1134.782
-37.998	36.108	1303.915	1133.473
-36.984	36.071	1301.906	1131.463
-35.969	36.150	1300.082	1130.301
-34.954	36.179	1298.722	1129.244
-33.940	36.192	1297.583	1128.282
-32.925	36.344	1295.983	1127.736
-31.911	36.273	1294.839	1126.282
-30.896	36.220	1293.561	1124.815
-29.881	36.110	1291.948	1122.727
-28.867	36.167	1291.101	1122.279
-27.852	36.361	1289.090	1121.612
-26.838	36.293	1287.650	1119.920
-25.823	36.241	1286.150	1118.269
-24.809	36.136	1285.332	1116.904
-23.794	36.175	1283.495	1115.488
-22.779	36.256	1282.167	1114.760
-21.765	36.119	1281.377	1113.238
-20.750	36.212	1279.807	1112.367
-19.736	36.102	1279.162	1111.128
-18.721	36.127	1277.368	1109.671
-17.706	36.137	1276.316	1108.767
-16.692	36.209	1274.970	1107.971
-15.677	36.146	1273.772	1106.522
-14.663	36.045	1273.091	1105.304
-13.648	36.087	1271.982	1104.539
-12.633	36.064	1271.314	1103.785
-11.619	36.104	1270.184	1102.989
-10.604	36.052	1269.266	1101.849
-9.590	36.041	1268.440	1101.027
-8.575	36.015	1267.642	1100.145
-7.560	36.113	1266.606	1099.759
-6.546	36.021	1265.730	1098.430
-5.531	36.083	1264.437	1097.616
-4.517	36.188	1263.584	1097.432
-3.502	36.172	1262.688	1096.519
-2.487	36.022	1262.164	1095.167
-1.473	35.918	1257.365	1090.373
-0.458	33.168	1240.144	1060.003
0.556	25.532	1217.980	1002.835
1.571	19.704	1220.447	972.101
2.586	17.890	1234.360	972.769
3.600	17.273	1223.646	960.754
4.615	12.901	1152.716	881.652
5.629	4.908	1076.649	783.351
6.644	0.537	1056.117	746.750
7.659	0.225	1054.067	743.698
8.673	0.116	1052.597	742.056
9.688	0.103	1051.415	741.095
10.702	0.424	1049.989	741.601
11.717	5.097	1055.223	768.283
12.731	12.932	1065.620	814.615
13.746	16.863	1070.302	837.585
14.761	16.998	1070.038	837.971
15.775	16.232	1067.908	832.449
16.790	15.100	1066.213	825.477
17.804	14.464	1064.615	821.037
18.819	14.070	1063.428	818.112
19.834	13.868	1062.624	816.429
20.848	13.613	1061.410	814.167
21.863	13.346	1060.384	812.001
22.877	13.189	1059.819	810.723
23.892	13.177	1059.500	810.351
24.907	13.187	1058.585	809.628
25.921	13.229	1057.641	809.040
26.936	13.247	1056.833	808.439
27.950	13.234	1055.935	807.616
28.965	13.253	1055.187	807.065
29.980	13.416	1053.564	806.548
30.994	13.393	1052.759	805.748
32.009	13.550	1051.582	805.538
33.023	13.425	1050.371	803.933
34.038	13.315	1049.828	802.911
35.053	13.365	1048.579	802.126
36.067	13.295	1047.945	801.232
37.082	13.284	1046.889	800.301
38.096	13.362	1046.325	800.178
39.111	13.300	1045.780	799.389
40.126	13.310	1044.492	798.381
41.140	13.270	1043.076	797.035
42.155	13.201	1042.009	795.820
43.169	13.165	1041.056	794.849
44.184	13.307	1039.562	794.317
45.199	13.226	1039.150	793.543
46.213	13.128	1038.037	792.152
47.228	13.201	1036.933	791.592
48.242	13.271	1036.021	791.160
49.257	13.268	1035.047	790.333
50.271	13.341	1033.477	789.412
51.286	13.334	1033.542	789.357
52.301	13.271	1032.331	788.064
53.315	13.332	1031.176	787.403
54.330	13.255	1030.054	786.107
55.344	13.185	1029.177	785.036
56.359	13.235	1028.757	784.887
57.374	13.165	1027.847	783.791
58.388	13.243	1026.708	783.223
59.403	13.111	1026.342	782.249
60.417	13.123	1025.315	781.454
61.432	13.220	1024.022	780.858
62.447	13.141	1023.615	780.105
63.461	13.107	1022.769	779.232
64.476	13.125	1021.884	778.573
65.490	13.052	1021.184	777.623
66.505	13.176	1020.201	777.392
67.520	13.169	1019.682	776.895
68.534	13.154	1018.812	776.093
69.549	13.193	1018.452	775.932
70.563	12.979	1017.712	774.298
71.578	13.120	1016.783	774.179
72.593	13.082	1015.833	773.212
73.607	13.084	1015.002	772.520
74.622	13.093	1014.797	772.337
75.636	13.015	1014.275	771.506
76.651	13.061	1013.488	771.057
77.666	13.072	1012.692	770.433
78.680	13.148	1012.048	770.231
79.695	13.172	1011.480	769.839
80.709	13.172	1010.455	768.994
81.724	13.126	1010.256	768.560
82.739	13.094	1009.515	767.777
83.753	13.149	1008.802	767.425
84.768	13.397	1007.495	767.514
85.782	13.481	1005.935	766.647
86.797	13.360	1005.619	765.776
87.812	13.292	1004.913	764.858
88.826	13.299	1003.946	764.083
89.841	13.337	1003.245	763.658
90.855	13.409	1002.010	762.983
91.870	13.392	1001.515	762.458
92.884	13.353	1001.140	761.928
93.899	13.362	1000.196	761.182
94.914	13.433	999.080	760.593
95.928	13.494	998.201	760.135
96.943	13.473	997.071	759.111
97.957	13.271	996.857	757.959
98.972	13.408	995.510	757.494
99.987	13.351	994.889	756.693
101.001	13.351	993.616	755.656
102.016	13.316	993.128	755.061
103.030	13.517	992.075	755.110
104.045	13.389	991.568	754.074
105.060	13.333	990.698	753.089
106.074	13.283	989.762	752.086
107.089	13.380	988.206	751.275
108.103	13.238	987.829	750.280
109.118	13.255	986.712	749.442
110.133	13.164	986.111	748.503
111.147	13.245	985.105	748.043
112.162	13.221	984.113	747.113
113.176	13.474	983.268	747.550
114.191	13.253	983.035	746.308
115.206	13.282	982.243	745.773
116.220	13.313	981.170	745.029
117.235	13.426	979.947	744.542
118.249	13.330	979.755	743.901
119.264	13.340	978.766	743.129
120.279	13.365	977.638	742.321
121.293	13.225	977.517	741.534
122.308	13.160	976.579	740.463
123.322	13.230	975.377	739.802
124.337	13.355	974.121	739.341
125.352	13.245	973.233	738.110
126.366	13.278	972.209	737.417
127.381	13.262	971.078	736.424
128.395	13.248	970.302	735.708
129.410	13.312	969.225	735.110
130.424	13.327	968.277	734.392
131.439	13.327	967.731	733.912
132.454	13.343	966.807	733.218
133.468	13.381	966.413	733.024
134.483	13.401	965.407	732.283
135.497	13.362	964.622	731.449
136.512	13.430	963.590	730.903
137.527	13.405	962.458	729.871
138.541	13.469	961.879	729.650
139.556	13.482	961.523	729.373
140.570	13.388	960.843	728.377
141.585	13.529	959.549	727.953
142.600	13.538	958.778	727.343
143.614	13.679	957.962	727.275
144.629	13.571	957.489	726.382
145.643	13.511	956.443	725.258
146.658	13.511	955.150	724.213
147.673	13.551	954.323	723.698
148.687	13.482	953.540	722.739
149.702	13.468	952.924	722.146
150.716	13.405	952.068	721.161
151.731	13.557	950.790	720.788
152.746	13.435	950.461	719.945
153.760	13.467	949.990	719.663
154.775	13.572	949.300	719.533
155.789	13.552	948.991	719.148
156.804	13.567	947.999	718.400
157.819	13.628	947.338	718.100
158.833	13.580	947.233	717.747
159.848	13.721	945.524	717.001
160.862	13.730	944.852	716.464
161.877	13.502	944.215	714.936
162.892	13.577	943.113	714.359
163.906	13.563	942.152	713.509
164.921	13.529	941.576	712.863
165.935	13.446	940.962	711.977
166.950	13.534	939.830	711.438
167.964	13.682	939.179	711.517
168.979	13.649	938.118	710.509
169.994	13.698	937.183	709.949
171.008	13.694	936.377	709.258
172.023	13.760	935.636	708.913
173.037	13.792	935.001	708.509
174.052	13.666	934.382	707.439
175.067	13.648	934.065	707.057
176.081	13.564	933.261	706.029
177.096	13.668	932.835	706.088
178.110	13.615	932.247	705.353
179.125	13.661	931.656	705.042
180.140	13.813	931.102	705.203
181.154	13.763	930.667	704.598
182.169	13.934	929.644	704.488
183.183	13.924	929.232	704.071
184.198	13.897	928.450	703.301
185.213	13.956	927.767	702.974
186.227	13.933	927.031	702.255
187.242	13.916	926.666	701.846
188.256	14.000	925.921	701.576
189.271	13.840	925.522	700.532
190.286	13.766	924.600	699.463
191.300	13.772	923.862	698.866
192.315	13.714	923.304	698.140
193.329	13.793	922.788	698.020
194.344	13.813	921.825	697.312
195.359	13.850	921.455	697.126
196.373	13.949	920.768	696.961
197.388	13.930	920.547	696.652
198.402	14.053	919.622	696.405
199.417	14.156	919.056	696.346
200.432	14.127	918.164	695.488
201.446	14.108	918.182	695.361
202.461	14.229	917.406	695.218
203.475	14.022	917.468	694.338
204.490	14.007	916.455	693.446
205.504	14.102	915.558	693.106
206.519	14.139	914.822	692.638
207.534	14.142	913.983	691.956
208.548	14.084	913.206	691.064
209.563	14.228	912.261	690.887
210.577	14.188	912.083	690.524
211.592	14.280	911.578	690.463
212.607	14.192	910.595	689.290
213.621	14.140	909.771	688.391
214.636	14.284	909.088	688.410
215.650	14.266	908.778	688.042
216.665	14.382	907.546	687.527
217.680	14.360	907.400	687.264
218.694	14.471	906.390	686.893
219.709	14.356	906.061	686.110
220.723	14.506	905.012	685.872
221.738	14.305	904.607	684.680
222.753	14.402	903.953	684.522
223.767	14.499	903.458	684.485
224.782	14.483	902.810	683.868
225.796	14.298	902.591	682.883
226.811	14.492	901.689	682.933
227.826	14.499	900.618	682.093
228.840	14.406	900.053	681.223
229.855	14.450	899.263	680.746
230.869	14.387	898.232	679.645
231.884	14.431	897.917	679.526
232.899	14.405	896.938	678.620
233.913	14.465	896.251	678.284
234.928	14.497	895.826	678.034
235.942	14.313	895.514	676.991
236.957	14.459	894.430	676.702
237.972	14.389	894.038	676.063
238.986	14.460	893.757	676.078
240.001	14.485	892.795	675.390
241.015	14.497	891.919	674.718
242.030	14.594	891.531	674.758
243.045	14.546	891.110	674.186
244.059	14.540	890.497	673.636
245.074	14.604	889.937	673.413
246.088	14.659	888.858	672.759
247.103	14.699	888.440	672.541
248.117	14.682	887.704	671.858
249.132	14.968	887.199	672.567
250.147	14.903	886.499	671.713
251.161	14.920	885.681	671.104
252.176	14.931	885.054	670.615
253.190	14.776	884.902	669.816
254.205	14.952	883.911	669.711
255.220	14.867	883.560	669.048
256.234	15.078	882.709	669.185
257.249	15.030	881.547	668.055
258.263	14.998	880.903	667.380
259.278	14.987	880.881	667.261
260.293	15.012	880.092	666.706
261.307	15.097	879.554	666.575
262.322	15.054	878.755	665.739
263.336	15.074	878.091	665.256
264.351	15.142	877.204	664.796
265.366	15.197	876.727	664.593
266.380	15.283	876.265	664.527
267.395	15.115	875.553	663.264
268.409	15.285	874.768	663.282
269.424	15.193	873.780	662.111
270.439	15.149	873.190	661.430
271.453	15.161	872.297	660.744
272.468	15.247	871.765	660.623
273.482	15.145	871.753	660.152
274.497	15.344	870.848	660.189
275.512	15.051	870.578	658.775
276.526	15.249	870.094	659.130
277.541	15.226	869.283	658.365
278.555	15.338	868.716	658.318
279.570	15.333	868.116	657.787
280.585	15.312	867.358	657.069
281.599	15.391	866.730	656.845
282.614	15.312	866.247	656.111
283.628	15.400	865.281	655.666
284.643	15.290	865.234	655.144
285.657	15.333	864.448	654.659
286.672	15.375	863.844	654.307
287.687	15.443	863.006	653.879
288.701	15.530	862.545	653.810
289.716	15.413	862.010	652.890
290.730	15.497	861.505	652.776
291.745	15.501	860.714	652.136
292.760	15.544	860.278	651.915
293.774	15.613	859.667	651.663
294.789	15.432	859.451	650.737
295.803	15.517	858.247	650.100
296.818	15.511	857.609	649.537
297.833	15.542	856.680	648.896
298.847	15.731	856.056	649.094
299.862	15.625	855.697	648.354
300.876	15.576	855.474	647.941
301.891	15.675	854.602	647.602
302.906	15.753	854.029	647.414
303.920	15.734	853.778	647.092
304.935	15.880	852.852	646.893
305.949	15.990	851.900	646.535
306.964	15.703	851.950	645.417
307.979	15.872	851.427	645.609
308.993	15.876	850.469	644.842
310.008	15.853	849.916	644.276
311.022	15.899	849.893	644.378
312.037	15.797	848.742	643.060
313.052	15.800	848.084	642.516
314.066	15.788	847.677	642.106
315.081	15.915	847.382	642.307
316.095	15.638	846.814	640.767
317.110	15.774	845.992	640.606
318.125	15.865	845.237	640.323
319.139	15.857	845.307	640.289
320.154	15.959	844.527	640.029
321.168	15.928	843.962	639.426
322.183	15.770	843.430	638.366
323.197	15.988	843.120	638.901
324.212	15.859	842.393	637.806
325.227	15.961	841.611	637.542
326.241	16.001	841.396	637.475
327.256	15.917	840.742	636.607
328.270	16.047	840.023	636.495
329.285	16.058	839.285	635.923
330.300	15.886	838.923	634.943
331.314	16.060	838.378	635.132
332.329	16.090	837.650	634.634
333.343	16.018	837.944	634.532
334.358	16.042	837.444	634.186
335.373	16.060	836.865	633.760
336.387	16.090	836.434	633.492
337.402	16.214	836.023	633.588
338.416	16.256	835.510	633.300
339.431	16.172	835.625	633.016
340.446	16.258	835.053	632.852
341.460	16.372	834.383	632.714
342.475	16.339	834.014	632.256
343.489	16.342	833.865	632.095
344.504	16.370	832.932	631.437
345.519	16.353	832.752	631.183
346.533	16.427	832.235	631.011
347.548	16.111	832.217	629.760
348.562	16.281	831.350	629.686
349.577	16.366	830.535	629.329
350.592	16.303	829.866	628.529
351.606	16.392	829.141	628.258
352.621	16.436	828.581	627.941
353.635	16.436	828.022	627.462
354.650	16.382	827.306	626.664
355.665	16.453	826.868	626.538
356.679	16.563	825.983	626.219
357.694	16.473	825.278	625.298
358.708	16.506	824.941	625.108
359.723	16.457	824.460	624.507
360.738	16.630	823.356	624.256
361.752	16.502	823.285	623.672
362.767	16.480	822.638	623.047
363.781	16.648	822.020	623.141
364.796	16.656	821.416	622.659
365.810	16.675	821.345	622.620
366.825	16.799	821.012	622.766
367.840	16.777	820.574	622.299
368.854	16.759	819.728	621.537
369.869	16.733	819.644	621.321
370.883	16.777	818.878	620.850
371.898	16.709	819.088	620.704
372.913	16.852	818.452	620.691
373.927	16.876	817.717	620.165
374.942	16.778	817.421	619.526
375.956	16.802	816.947	619.203
376.971	16.964	816.362	619.294
377.986	16.930	816.036	618.867
379.000	17.062	815.548	618.926
380.015	16.832	815.379	617.904
381.029	16.930	814.625	617.634
382.044	16.896	813.803	616.832
383.059	17.066	813.451	617.130
384.073	17.016	812.825	616.420
385.088	17.007	812.073	615.761
386.102	16.980	811.644	615.284
387.117	16.880	811.144	614.487
388.132	17.011	810.184	614.180
389.146	16.945	810.184	613.887
390.161	17.036	809.658	613.762
391.175	17.201	808.959	613.776
392.190	17.079	808.511	612.940
393.205	17.126	808.028	612.688
394.219	17.012	807.989	612.193
395.234	16.966	807.468	611.581
396.248	17.088	807.235	611.787
397.263	16.981	806.541	610.823
398.278	17.118	806.158	610.973
399.292	17.152	805.637	610.645
400.307	17.094	805.077	609.958
401.321	17.193	804.948	610.162
402.336	17.052	804.653	609.377
403.350	17.105	804.182	609.160
404.365	17.173	803.560	608.879
405.380	17.388	802.797	609.016
406.394	17.362	802.257	608.457
407.409	17.390	801.802	608.161
408.423	17.393	801.453	607.854
409.438	17.361	801.285	607.555
410.453	17.256	801.361	607.184
411.467	17.452	800.433	607.127
412.482	17.584	799.938	607.170
413.496	17.645	799.278	606.833
414.511	17.504	799.282	606.277
415.526	17.573	799.064	606.305
416.540	17.517	798.128	605.340
417.555	17.638	797.953	605.586
418.569	17.575	797.368	604.863
419.584	17.463	797.133	604.237
420.599	17.549	796.623	604.101
421.613	104.363	1284.272	1441.965
422.628	89.544	1355.349	1442.068
