DTS Sentinel unit serial number:	SN413079Multiplexer serial number:	ORYXHardware model number:	OX4-SRSoftware version number:	ORYX F/W v4.00 Oryx Data Collector v3.7.2.0data status	okinstallation	princeton_trtdifferential loss correction	single-endedforward channel	channel 1reverse channel	N/Adate	2019/09/19time	09:06:35forward acquisition time	60.00reverse acquisition time	0.00gamma	496.2192k internal	0.2341k external	0.2341temperature offset calibration	1.0004default loss term (dB/km)	0.3790temperature slope calibration	1.0000multiplexer offset coefficient	1.0000multiplexer slope coefficient	1.0000fibre end	0.00T internal ref (°C)	21.73T ext. ref 1 (°C)	0.61T ext. ref 2 (°C)	18.77length (m)	temperature (°C)	Stokes	anti-Stokes-747.200	-148.223	0.229	-0.019
-746.185	800.000	-0.153	0.502
-745.171	-144.997	0.327	-0.030
-744.156	-200.000	0.020	0.160
-743.142	47.599	-0.159	-0.148
-742.127	32.759	-0.346	0.300
-741.112	171.714	-0.116	0.167
-740.098	-200.000	0.014	0.161
-739.083	83.829	-0.102	-0.111
-738.069	32.828	-0.114	0.099
-737.054	-145.900	0.219	0.019
-736.039	-147.424	-0.193	-0.016
-735.025	-167.059	0.568	0.023
-734.010	16.788	0.212	-0.168
-732.996	-84.214	-0.336	-0.107
-731.981	5.616	-0.290	-0.215
-730.966	800.000	0.043	0.140
-729.952	-200.000	-0.014	-0.111
-728.937	-117.433	0.213	-0.039
-727.923	800.000	-0.019	0.065
-726.908	-200.000	-0.009	-0.157
-725.894	452.193	0.077	-0.171
-724.879	89.567	0.070	-0.078
-723.864	800.000	0.048	-0.142
-722.850	-17.606	-0.030	0.019
-721.835	-200.000	-0.020	0.238
-720.821	-0.703	-0.073	-0.052
-719.806	254.910	-0.058	0.100
-718.791	-200.000	0.062	-0.291
-717.777	800.000	-0.040	0.118
-716.762	78.968	-0.190	0.204
-715.748	768.696	0.024	-0.065
-714.733	-15.291	0.237	-0.152
-713.718	152.915	-0.057	-0.078
-712.704	-90.754	0.183	0.053
-711.689	506.715	0.094	-0.219
-710.675	-50.828	-0.397	0.187
-709.660	-76.953	0.150	0.053
-708.645	-200.000	0.048	-0.229
-707.631	800.000	0.114	0.363
-706.616	-100.735	0.274	-0.068
-705.602	-31.519	-0.208	-0.117
-704.587	-113.194	0.125	0.025
-703.572	17.000	-0.116	0.092
-702.558	800.000	-0.017	0.067
-701.543	60.758	-0.050	0.050
-700.529	-55.266	-0.315	-0.141
-699.514	150.608	0.173	-0.235
-698.499	204.702	0.140	-0.218
-697.485	-200.000	0.013	-0.329
-696.470	-21.960	-0.233	0.142
-695.456	671.823	0.062	-0.161
-694.441	800.000	0.033	-0.096
-693.426	-200.000	-0.044	-0.331
-692.412	800.000	0.115	0.451
-691.397	-200.000	0.008	0.178
-690.383	31.590	0.254	0.219
-689.368	611.002	-0.090	-0.226
-688.354	-96.785	0.452	0.119
-687.339	16.381	0.176	-0.139
-686.324	383.995	-0.097	-0.200
-685.310	-200.000	-0.005	-0.192
-684.295	-130.211	-0.199	-0.027
-683.281	800.000	0.022	0.087
-682.266	-105.348	-0.340	-0.077
-681.251	-200.000	-0.022	0.106
-680.237	-46.242	-0.325	-0.160
-679.222	-200.000	-0.014	-0.212
-678.208	218.205	-0.149	-0.238
-677.193	-21.487	0.119	0.072
-676.178	543.104	0.007	0.018
-675.164	-28.589	-0.248	-0.143
-674.149	-24.129	-0.171	-0.102
-673.135	-81.529	-0.287	-0.094
-672.120	800.000	-0.048	0.176
-671.105	-95.910	-0.300	-0.080
-670.091	-71.459	0.123	0.046
-669.076	-42.323	-0.392	-0.200
-668.062	800.000	-0.119	0.411
-667.047	-37.692	0.238	0.126
-666.032	355.124	-0.189	0.375
-665.018	91.076	-0.126	0.141
-664.003	-148.615	-0.028	0.002
-662.989	-200.000	0.014	0.094
-661.974	-200.000	0.006	0.149
-660.959	-9.110	-0.065	0.044
-659.945	-200.000	-0.009	-0.078
-658.930	-200.000	-0.063	-0.331
-657.916	230.458	0.097	-0.158
-656.901	-105.052	0.438	-0.100
-655.886	-200.000	-0.052	-0.310
-654.872	-118.964	-0.104	0.018
-653.857	800.000	-0.020	-0.084
-652.843	126.908	0.096	-0.122
-651.828	-78.162	0.144	-0.049
-650.814	45.044	0.175	0.161
-649.799	800.000	-0.075	-0.209
-648.784	-200.000	0.043	-0.000
-647.770	-39.390	-0.263	-0.138
-646.755	384.307	0.156	-0.321
-645.741	-78.925	0.062	-0.021
-644.726	323.978	-0.148	-0.282
-643.711	-87.264	0.106	0.032
-642.697	-200.000	-0.026	-0.169
-641.682	702.569	-0.108	0.285
-640.668	-48.260	0.356	0.171
-639.653	302.388	0.074	0.137
-638.638	-200.000	0.024	-0.268
-637.624	-14.755	0.283	-0.181
-636.609	-92.626	-0.392	-0.110
-635.595	406.492	-0.133	0.280
-634.580	-144.516	-0.131	0.012
-633.565	-99.255	0.220	-0.056
-632.551	-121.226	0.090	0.015
-631.536	227.201	-0.210	-0.340
-630.522	116.923	0.090	-0.110
-629.507	224.796	0.033	0.053
-628.492	-135.108	-0.112	-0.013
-627.478	-147.555	0.110	0.009
-626.463	28.849	0.099	-0.084
-625.449	106.224	0.106	0.125
-624.434	453.076	-0.197	-0.435
-623.419	-95.596	-0.034	-0.009
-622.405	-41.947	-0.273	-0.139
-621.390	-200.000	0.076	0.334
-620.376	800.000	0.068	0.246
-619.361	-10.781	-0.171	0.112
-618.346	800.000	0.165	-0.541
-617.332	-124.950	-0.281	0.043
-616.317	-72.687	0.148	0.054
-615.303	130.864	-0.164	-0.209
-614.288	-200.000	0.021	-0.266
-613.273	-83.616	-0.214	-0.068
-612.259	-149.569	-0.105	0.008
-611.244	16.406	0.214	-0.168
-610.230	-200.000	0.001	-0.334
-609.215	192.163	0.056	-0.084
-608.201	402.225	0.032	-0.066
-607.186	40.103	-0.328	0.294
-606.171	-102.819	0.276	0.066
-605.157	-117.325	-0.187	0.034
-604.142	41.111	0.162	0.146
-603.128	800.000	-0.091	0.268
-602.113	-63.012	0.138	-0.057
-601.098	-104.291	0.159	0.037
-600.084	-83.247	0.077	-0.025
-599.069	-91.875	-0.179	-0.051
-598.055	-181.979	-0.073	-0.001
-597.040	383.351	-0.129	0.264
-596.025	98.691	0.190	0.218
-595.011	-0.824	0.150	-0.106
-593.996	-44.489	-0.184	0.091
-592.982	-200.000	0.105	0.625
-591.967	-188.287	0.192	-0.002
-590.952	-200.000	-0.028	-0.457
-589.938	800.000	-0.039	-0.128
-588.923	94.311	-0.198	-0.224
-587.909	-200.000	0.026	-0.210
-586.894	-83.445	0.148	-0.047
-585.879	-75.684	-0.238	0.084
-584.865	75.391	-0.196	-0.206
-583.850	-13.254	-0.101	0.065
-582.836	255.093	-0.100	-0.170
-581.821	-81.030	-0.341	-0.112
-580.806	-81.349	-0.240	-0.079
-579.792	574.221	0.055	-0.135
-578.777	-200.000	-0.016	-0.152
-577.763	-29.296	0.573	0.327
-576.748	-116.721	0.098	-0.018
-575.733	430.707	0.115	-0.248
-574.719	-74.902	0.139	-0.049
-573.704	380.243	-0.074	-0.151
-572.690	800.000	-0.114	-0.344
-571.675	800.000	-0.035	0.114
-570.661	53.027	0.163	0.155
-569.646	-48.666	-0.106	0.051
-568.631	271.280	-0.120	-0.211
-567.617	-109.568	-0.235	0.049
-566.602	-5.275	0.187	0.128
-565.588	693.229	-0.034	0.089
-564.573	-23.358	-0.269	-0.161
-563.558	800.000	0.095	-0.271
-562.544	-38.424	-0.088	0.046
-561.529	215.604	-0.128	-0.203
-560.515	107.692	-0.104	-0.123
-559.500	800.000	-0.083	0.294
-558.485	85.297	0.263	-0.288
-557.471	-200.000	-0.029	-0.144
-556.456	-200.000	0.016	-0.223
-555.442	-114.254	0.149	-0.029
-554.427	-200.000	0.007	-0.237
-553.412	160.182	-0.053	0.074
-552.398	-53.607	-0.120	-0.055
-551.383	101.040	-0.133	0.154
-550.369	-134.859	0.123	-0.015
-549.354	-55.774	-0.347	-0.154
-548.339	32.223	-0.195	0.168
-547.325	-124.994	0.164	0.025
-546.310	-200.000	-0.019	0.357
-545.296	106.038	-0.092	-0.108
-544.281	264.118	-0.148	-0.256
-543.266	5.572	-0.114	-0.084
-542.252	-86.310	-0.428	-0.131
-541.237	159.080	0.183	-0.253
-540.223	34.438	-0.137	-0.119
-539.208	40.000	-0.352	0.314
-538.193	129.733	-0.356	0.453
-537.179	800.000	0.119	0.388
-536.164	-22.889	0.129	-0.078
-535.150	-200.000	0.013	0.301
-534.135	-58.348	-0.178	0.077
-533.121	-5.074	0.459	-0.314
-532.106	239.848	-0.108	0.179
-531.091	800.000	-0.054	0.190
-530.077	-200.000	-0.004	0.106
-529.062	800.000	0.058	-0.196
-528.048	-112.754	-0.083	0.016
-527.033	-60.248	0.321	-0.136
-526.018	-160.673	-0.349	0.018
-525.004	-34.948	0.186	0.101
-523.989	117.334	0.150	-0.183
-522.975	-26.807	0.117	0.068
-521.960	-200.000	-0.003	-0.334
-520.945	-200.000	0.017	-0.142
-519.931	186.292	-0.142	-0.211
-518.916	692.162	-0.091	-0.237
-517.902	-107.990	0.093	-0.020
-516.887	7.189	0.291	0.216
-515.872	800.000	-0.026	-0.088
-514.858	53.917	0.104	0.099
-513.843	800.000	-0.055	0.204
-512.829	-200.000	-0.016	-0.160
-511.814	76.454	-0.238	0.250
-510.799	11.901	0.127	-0.097
-509.785	326.637	-0.051	-0.096
-508.770	443.697	0.135	0.294
-507.756	93.937	0.195	-0.219
-506.741	9.419	0.193	0.145
-505.726	130.774	0.238	-0.303
-504.712	361.226	-0.022	-0.044
-503.697	-37.368	0.062	0.033
-502.683	-45.919	-0.249	0.122
-501.668	40.982	0.324	0.291
-500.653	-118.339	-0.139	0.025
-499.639	-141.602	-0.097	-0.010
-498.624	-200.000	-0.012	-0.273
-497.610	800.000	0.007	0.023
-496.595	47.022	0.125	0.115
-495.581	636.033	0.064	-0.161
-494.566	800.000	-0.076	0.320
-493.551	185.912	-0.094	0.139
-492.537	800.000	-0.054	-0.176
-491.522	245.043	0.169	0.282
-490.508	-200.000	0.063	0.367
-489.493	-18.540	0.171	0.106
-488.478	-200.000	-0.046	-0.220
-487.464	-108.242	-0.270	0.058
-486.449	-146.983	0.142	-0.012
-485.435	24.898	0.172	-0.141
-484.420	-200.000	-0.009	0.173
-483.405	33.571	0.118	0.102
-482.391	-30.736	-0.246	-0.138
-481.376	-73.043	0.405	-0.147
-480.362	-34.297	-0.263	0.143
-479.347	411.442	-0.115	-0.243
-478.332	70.406	0.327	0.335
-477.318	-162.469	0.379	0.019
-476.303	726.923	0.120	0.316
-475.289	-31.090	0.215	0.121
-474.274	-18.402	0.203	-0.126
-473.259	-103.241	-0.290	0.068
-472.245	-103.851	0.118	0.027
-471.230	-44.845	0.202	0.100
-470.216	284.061	-0.164	0.293
-469.201	-82.077	-0.082	0.027
-468.186	-30.215	-0.277	0.156
-467.172	263.830	-0.073	0.126
-466.157	73.947	-0.145	-0.151
-465.143	488.918	-0.114	-0.257
-464.128	381.022	0.103	0.209
-463.113	92.187	0.193	0.216
-462.099	-200.000	0.014	0.060
-461.084	370.958	0.206	-0.414
-460.070	-57.540	-0.363	-0.158
-459.055	-46.091	-0.203	-0.099
-458.040	-49.291	-0.050	0.024
-457.026	59.255	0.232	-0.226
-456.011	166.791	-0.150	0.211
-454.997	-121.047	-0.245	-0.041
-453.982	547.676	-0.102	0.241
-452.968	800.000	0.012	0.045
-451.953	377.877	0.044	0.089
-450.938	31.681	-0.118	0.100
-449.924	-142.569	0.286	-0.028
-448.909	-168.833	-0.129	0.005
-447.895	-26.988	0.357	-0.206
-446.880	-90.178	-0.180	0.052
-445.865	-200.000	-0.081	0.410
-444.851	752.133	0.110	-0.295
-443.836	-130.961	-0.214	-0.028
-442.822	409.685	0.070	0.147
-441.807	352.494	-0.063	-0.123
-440.792	-200.000	0.020	0.101
-439.778	-149.683	0.317	0.025
-438.763	800.000	0.063	-0.186
-437.749	-73.602	0.193	-0.070
-436.734	-99.361	-0.171	0.043
-435.719	-200.000	-0.030	0.187
-434.705	-200.000	-0.005	0.077
-433.690	-82.128	0.259	-0.084
-432.676	27.940	0.286	-0.239
-431.661	51.105	-0.005	-0.005
-430.646	77.662	0.257	0.271
-429.632	-200.000	-0.006	0.289
-428.617	-127.346	-0.205	0.030
-427.603	-200.000	-0.019	-0.118
-426.588	271.671	-0.252	0.439
-425.573	272.618	-0.150	-0.262
-424.559	-200.000	0.011	0.061
-423.544	-20.404	0.063	0.039
-422.530	-102.336	-0.190	0.045
-421.515	-10.318	0.163	0.107
-420.500	800.000	0.026	-0.108
-419.486	57.414	-0.302	0.292
-418.471	-200.000	0.003	0.056
-417.457	-200.000	-0.026	0.335
-416.442	63.875	0.208	-0.206
-415.428	104.277	0.269	-0.313
-414.413	-200.000	0.014	-0.136
-413.398	57.556	-0.094	-0.091
-412.384	0.829	-0.089	0.063
-411.369	-200.000	-0.019	0.112
-410.355	321.804	-0.226	-0.425
-409.340	-61.714	-0.466	-0.193
-408.325	113.164	-0.057	-0.068
-407.311	-200.000	-0.040	-0.213
-406.296	800.000	-0.043	0.183
-405.282	-37.624	0.097	-0.051
-404.267	-86.171	0.493	0.150
-403.252	274.181	0.058	0.102
-402.238	75.967	0.249	0.261
-401.223	-134.880	-0.444	-0.053
-400.209	398.676	-0.195	0.403
-399.194	-122.391	0.257	-0.041
-398.179	800.000	-0.018	0.066
-397.165	800.000	-0.091	0.280
-396.150	269.221	-0.041	0.071
-395.136	377.231	-0.051	0.104
-394.121	784.250	0.049	-0.132
-393.106	-128.626	0.063	-0.009
-392.092	98.840	0.053	-0.060
-391.077	49.118	0.050	0.046
-390.063	-64.761	-0.121	0.048
-389.048	-98.140	0.241	0.061
-388.033	365.054	-0.122	-0.243
-387.019	-64.258	-0.157	0.063
-386.004	-31.417	0.096	-0.054
-384.990	411.912	-0.123	0.259
-383.975	-200.000	0.018	0.104
-382.960	-63.869	-0.369	-0.149
-381.946	-68.098	0.140	0.054
-380.931	-200.000	0.020	0.373
-379.917	-200.000	-0.001	-0.352
-378.902	92.450	-0.084	-0.094
-377.888	649.081	0.024	-0.059
-376.873	-41.243	0.223	-0.114
-375.858	-37.377	0.174	-0.092
-374.844	-200.000	-0.023	0.123
-373.829	-37.316	0.076	0.040
-372.815	-58.717	-0.321	-0.137
-371.800	-92.574	-0.164	0.045
-370.785	-90.131	0.169	0.049
-369.771	81.832	0.169	0.181
-368.756	-25.025	-0.146	-0.085
-367.742	-25.084	-0.265	0.155
-366.727	-51.282	0.276	-0.128
-365.712	-28.806	0.410	-0.233
-364.698	-200.000	0.094	-0.442
-363.683	-200.000	0.011	-0.239
-362.669	120.639	-0.150	0.184
-361.654	-28.549	0.359	-0.204
-360.639	-200.000	-0.050	0.293
-359.625	-137.385	0.169	-0.019
-358.610	-200.000	-0.014	0.201
-357.596	-200.000	0.014	0.230
-356.581	206.762	0.143	0.219
-355.566	-71.156	-0.168	-0.062
-354.552	-21.817	-0.134	0.081
-353.537	-45.038	-0.197	0.097
-352.523	-200.000	0.013	-0.133
-351.508	-200.000	-0.067	-0.515
-350.493	-200.000	0.012	0.181
-349.479	69.415	-0.267	-0.271
-348.464	-151.933	-0.225	-0.016
-347.450	-200.000	-0.258	0.000
-346.435	-200.000	0.017	0.109
-345.420	-169.208	0.210	-0.008
-344.406	73.256	0.294	0.303
-343.391	-71.489	-0.249	0.092
-342.377	-48.219	0.089	-0.042
-341.362	78.584	0.251	0.264
-340.348	800.000	0.065	-0.196
-339.333	-66.077	0.455	0.179
-338.318	100.872	-0.138	0.158
-337.304	209.884	-0.045	-0.070
-336.289	192.750	0.109	0.162
-335.275	-140.791	0.015	0.002
-334.260	-155.034	-0.338	0.022
-333.245	-75.041	0.060	0.021
-332.231	-200.000	0.025	-0.194
-331.216	-23.972	0.417	0.246
-330.202	-58.200	0.234	-0.101
-329.187	-22.815	-0.138	-0.082
-328.172	48.079	-0.263	-0.243
-327.158	-161.795	0.271	-0.014
-326.143	-1.534	-0.011	0.007
-325.129	-200.000	0.056	-0.305
-324.114	-23.537	0.443	0.262
-323.099	762.430	-0.057	0.154
-322.085	19.816	0.126	0.100
-321.070	-200.000	-0.021	0.305
-320.056	-92.680	0.344	-0.095
-319.041	-165.067	-0.374	0.016
-318.026	-94.616	-0.072	0.019
-317.012	-147.572	-0.171	0.014
-315.997	-95.368	0.409	0.108
-314.983	-9.071	0.039	0.026
-313.968	-200.000	-0.004	0.175
-312.953	48.894	0.174	0.161
-311.939	800.000	0.011	0.048
-310.924	48.992	0.103	-0.095
-309.910	98.980	-0.273	0.310
-308.895	281.166	0.103	0.181
-307.880	-68.493	0.148	-0.056
-306.866	-200.000	0.030	-0.330
-305.851	7.597	0.134	0.099
-304.837	-68.335	0.096	0.037
-303.822	-105.465	0.156	-0.035
-302.807	-56.322	-0.281	-0.123
-301.793	-187.074	0.128	0.002
-300.778	-102.355	-0.273	0.064
-299.764	800.000	0.015	0.050
-298.749	129.984	-0.095	-0.120
-297.735	-149.628	0.152	0.012
-296.720	800.000	0.111	-0.461
-295.705	-105.933	0.108	0.024
-294.691	545.954	0.012	-0.029
-293.676	-59.478	0.292	-0.123
-292.662	-52.731	0.190	-0.086
-291.647	-31.458	0.140	-0.077
-290.632	-21.536	-0.197	0.118
-289.618	91.051	0.025	-0.028
-288.603	178.102	-0.169	0.243
-287.589	800.000	0.067	0.252
-286.574	-200.000	-0.014	-0.092
-285.559	50.279	-0.089	-0.083
-284.545	-40.547	0.113	0.057
-283.530	800.000	-0.027	0.096
-282.516	29.076	0.016	0.014
-281.501	-130.769	-0.275	-0.036
-280.486	-92.340	-0.154	-0.043
-279.472	-167.314	-0.229	-0.009
-278.457	70.678	-0.203	0.207
-277.443	172.733	-0.177	-0.251
-276.428	-200.000	-0.015	0.178
-275.413	41.093	0.148	-0.132
-274.399	413.670	0.165	0.345
-273.384	800.000	0.148	-0.515
-272.370	-63.451	0.149	0.060
-271.355	-91.088	-0.046	0.013
-270.340	798.204	0.100	0.271
-269.326	35.069	-0.144	-0.124
-268.311	26.769	-0.131	0.108
-267.297	506.664	0.065	0.148
-266.282	800.000	-0.068	-0.253
-265.267	-122.610	0.200	0.032
-264.253	678.446	-0.069	0.178
-263.238	-200.000	-0.017	0.203
-262.224	-16.643	-0.274	-0.171
-261.209	-200.000	-0.015	-0.074
-260.195	-200.000	-0.018	0.153
-259.180	-87.841	-0.141	0.042
-258.165	-109.833	0.267	0.055
-257.151	243.551	0.058	0.095
-256.136	166.520	0.075	-0.105
-255.122	800.000	0.097	-0.340
-254.107	800.000	0.073	-0.292
-253.092	52.769	-0.051	0.048
-252.078	670.359	-0.046	0.118
-251.063	-123.027	-0.258	0.041
-250.049	126.341	-0.132	0.164
-249.034	-111.088	-0.237	-0.048
-248.019	210.024	0.221	0.341
-247.005	-55.949	-0.204	-0.090
-245.990	-97.885	-0.129	0.033
-244.976	-57.129	-0.460	-0.199
-243.961	-36.848	0.388	-0.204
-242.946	-62.630	0.263	0.107
-241.932	13.924	0.086	0.065
-240.917	528.346	0.073	-0.170
-239.903	-200.000	0.032	-0.140
-238.888	50.641	0.133	0.124
-237.873	-31.513	-0.123	-0.068
-236.859	24.742	0.131	-0.106
-235.844	-47.217	-0.133	-0.064
-234.830	-200.000	-0.005	0.108
-233.815	506.348	0.015	0.035
-232.800	-14.771	0.174	-0.110
-231.786	-98.742	-0.057	0.014
-230.771	261.845	0.099	0.169
-229.757	-185.704	0.155	0.002
-228.742	-178.511	0.322	-0.007
-227.727	-55.131	-0.452	-0.200
-226.713	-174.736	0.178	-0.005
-225.698	-122.245	0.268	-0.043
-224.684	61.815	0.141	0.138
-223.669	-39.506	-0.255	-0.131
-222.655	44.846	-0.092	-0.084
-221.640	173.078	-0.055	0.078
-220.625	-167.810	-0.267	0.010
-219.611	-92.927	0.164	0.045
-218.596	-38.945	-0.236	0.122
-217.582	800.000	-0.057	0.180
-216.567	571.648	-0.053	0.126
-215.552	-161.815	-0.243	-0.012
-214.538	696.919	-0.049	-0.125
-213.523	544.869	-0.124	-0.291
-212.509	-200.000	-0.004	0.287
-211.494	160.445	-0.178	0.244
-210.479	92.810	-0.123	-0.137
-209.465	-164.478	-0.161	-0.007
-208.450	407.157	-0.139	-0.287
-207.436	-65.864	0.216	-0.085
-206.421	300.008	-0.150	-0.272
-205.406	-174.691	0.279	0.008
-204.392	145.041	-0.178	-0.234
-203.377	-200.000	0.016	-0.239
-202.363	800.000	-0.043	-0.152
-201.348	313.964	-0.190	-0.351
-200.333	-90.947	0.146	0.041
-199.319	-62.441	0.340	0.139
-198.304	150.064	0.167	0.222
-197.290	99.297	-0.146	0.166
-196.275	800.000	-0.133	-0.384
-195.260	90.889	0.131	-0.144
-194.246	-3.519	-0.229	-0.156
-193.231	174.834	0.091	-0.129
-192.217	14.143	-0.092	0.070
-191.202	115.080	-0.177	0.212
-190.187	-107.636	0.136	0.029
-189.173	-98.129	0.180	-0.045
-188.158	-157.422	-0.159	-0.009
-187.144	-200.000	-0.020	0.246
-186.129	-96.689	-0.142	-0.037
-185.114	320.118	-0.199	-0.371
-184.100	-19.458	-0.243	-0.148
-183.085	-0.628	0.227	-0.158
-182.071	237.221	0.155	0.251
-181.056	-200.000	-0.064	0.393
-180.042	413.293	-0.061	0.127
-179.027	-157.896	0.214	0.012
-178.012	213.418	-0.353	-0.547
-176.998	-110.016	0.321	0.066
-175.983	-200.000	-0.009	0.317
-174.969	377.889	-0.137	0.274
-173.954	186.813	0.076	-0.111
-172.939	427.515	0.033	0.069
-171.925	38.312	0.178	0.156
-170.910	-35.775	0.083	-0.044
-169.896	81.769	0.232	-0.246
-168.881	263.097	-0.158	0.269
-167.866	800.000	-0.020	-0.056
-166.852	-200.000	0.094	0.423
-165.837	-90.168	-0.150	-0.043
-164.823	-200.000	0.037	0.242
-163.808	800.000	0.071	0.192
-162.793	-114.062	0.231	0.044
-161.779	-84.102	-0.178	-0.055
-160.764	-92.316	0.257	0.071
-159.750	-7.767	-0.288	0.190
-158.735	224.425	-0.016	-0.025
-157.720	508.417	-0.110	0.249
-156.706	-200.000	-0.036	-0.166
-155.691	406.538	-0.183	-0.379
-154.677	-56.707	0.122	-0.053
-153.662	800.000	0.083	0.259
-152.647	123.570	0.161	0.198
-151.633	800.000	0.047	-0.180
-150.618	800.000	0.084	0.318
-149.604	-200.000	-0.006	-0.033
-148.589	28.552	0.272	0.225
-147.574	156.432	-0.067	0.090
-146.560	-175.874	0.054	-0.001
-145.545	-38.888	0.161	-0.083
-144.531	8.036	0.064	0.047
-143.516	287.502	-0.146	-0.258
-142.502	-141.305	0.326	0.032
-141.487	-89.395	0.427	0.123
-140.472	-97.486	-0.129	0.033
-139.458	-36.289	0.220	-0.116
-138.443	433.270	0.065	0.138
-137.429	-200.000	0.064	-0.388
-136.414	-55.430	0.083	-0.036
-135.399	-58.521	-0.066	-0.028
-134.385	-146.238	-0.275	0.024
-133.370	49.731	0.133	-0.123
-132.356	120.803	0.206	0.250
-131.341	474.653	0.078	0.173
-130.326	-5.742	0.136	-0.091
-129.312	-200.000	-0.002	-0.402
-128.297	100.747	0.133	-0.152
-127.283	-123.354	-0.099	-0.015
-126.268	-85.282	0.215	0.066
-125.253	104.878	-0.189	-0.217
-124.239	-95.201	-0.237	-0.062
-123.224	399.893	0.185	0.379
-122.210	-146.930	0.057	-0.005
-121.195	279.826	-0.119	0.208
-120.180	5.192	-0.244	0.176
-119.166	-103.241	0.165	0.038
-118.151	100.576	0.227	0.258
-117.137	-50.694	0.088	-0.040
-116.122	120.892	0.117	0.142
-115.107	-99.948	-0.276	0.067
-114.093	74.663	0.197	0.203
-113.078	354.379	0.136	-0.265
-112.064	-151.307	-0.204	-0.015
-111.049	-34.436	0.142	0.076
-110.034	-7.190	0.340	0.225
-109.020	-164.221	-0.167	0.008
-108.005	126.862	0.122	-0.152
-106.991	235.931	-0.180	0.291
-105.976	316.580	0.166	-0.307
-104.962	430.841	-0.061	-0.128
-103.947	530.967	0.092	0.214
-102.932	-47.834	-0.058	-0.027
-101.918	81.687	0.333	-0.352
-100.903	-200.000	0.009	-0.127
-99.889	-131.244	0.450	-0.058
-98.874	666.318	-0.094	0.238
-97.859	-81.488	-0.187	-0.060
-96.845	-42.803	-0.167	-0.083
-95.830	136.695	-0.215	0.275
-94.816	-48.026	-0.082	-0.039
-93.801	-90.845	-0.084	0.024
-92.786	800.000	0.172	0.556
-91.772	-64.332	0.271	-0.108
-90.757	-200.000	0.016	-0.145
-89.743	140.293	0.136	0.175
-88.728	800.000	-0.061	0.247
-87.713	800.000	0.042	0.174
-86.699	35.805	-0.231	-0.198
-85.684	-90.255	0.101	-0.029
-84.670	-74.087	-0.284	-0.101
-83.655	-70.359	-0.108	0.040
-82.640	72.389	0.219	0.223
-81.626	-200.000	0.008	0.168
-80.611	71.889	-0.133	-0.135
-79.597	-200.000	-0.042	0.284
-78.582	800.000	-0.084	0.244
-77.567	-25.479	-0.148	-0.086
-76.553	17.787	0.387	-0.301
-75.538	253.186	0.130	0.217
-74.524	609.618	0.120	0.293
-73.509	-109.242	-0.081	0.017
-72.494	116.940	0.188	0.226
-71.480	17.675	0.176	0.137
-70.465	128.174	0.112	-0.139
-69.451	281.359	-0.077	-0.135
-68.436	-97.516	-0.366	-0.093
-67.422	-102.098	0.131	0.031
-66.407	437.007	0.135	0.287
-65.392	-3.169	-0.091	0.062
-64.378	800.000	-0.080	-0.334
-63.363	257.438	0.038	0.064
-62.349	800.000	-0.051	-0.138
-61.334	193.553	-0.876	-1.293
-60.319	-47.031	0.960	0.457
-59.305	800.000	-0.495	-1.596
-58.290	102.161	1.006	1.146
-57.276	-200.000	0.275	1.617
-56.261	-200.000	129.830	638.448
-55.246	346.872	1648.125	3164.002
-54.232	132.246	2812.981	3534.932
-53.217	89.746	2192.197	2386.824
-52.203	33.256	1613.477	1365.216
-51.188	24.851	1355.868	1095.978
-50.173	22.473	1318.050	1051.193
-49.159	49.740	1389.648	1277.021
-48.144	46.324	1400.679	1266.130
-47.130	25.095	1347.725	1090.712
-46.115	21.941	1328.198	1055.916
-45.100	21.710	1322.696	1050.119
-44.086	21.661	1320.366	1047.936
-43.071	21.650	1317.897	1045.864
-42.057	21.564	1315.729	1043.590
-41.042	21.687	1314.004	1042.914
-40.027	21.513	1312.918	1040.974
-39.013	21.598	1310.859	1039.805
-37.998	21.654	1308.810	1038.471
-36.984	21.757	1307.138	1037.716
-35.969	21.745	1305.643	1036.415
-34.954	21.743	1304.248	1035.253
-33.940	21.732	1302.770	1033.978
-32.925	21.846	1301.200	1033.363
-31.911	21.832	1299.590	1031.959
-30.896	21.880	1298.112	1031.029
-29.881	21.831	1297.228	1029.995
-28.867	21.844	1295.906	1028.983
-27.852	21.885	1294.381	1027.969
-26.838	21.785	1293.230	1026.427
-25.823	21.861	1291.885	1025.766
-24.809	21.875	1290.404	1024.633
-23.794	21.854	1289.661	1023.877
-22.779	21.869	1288.134	1022.712
-21.765	21.840	1286.999	1021.600
-20.750	21.922	1285.296	1020.687
-19.736	21.804	1283.605	1018.618
-18.721	21.616	1283.261	1017.212
-17.706	21.647	1282.233	1016.538
-16.692	21.621	1281.029	1015.391
-15.677	21.552	1279.842	1014.013
-14.663	21.734	1278.476	1013.942
-13.648	21.670	1277.582	1012.821
-12.633	21.607	1276.748	1011.757
-11.619	21.710	1275.877	1011.619
-10.604	21.669	1275.114	1010.741
-9.590	21.581	1273.641	1009.024
-8.575	21.524	1273.232	1008.329
-7.560	21.676	1271.537	1007.825
-6.546	21.722	1270.955	1007.584
-5.531	21.699	1270.115	1006.749
-4.517	21.739	1269.615	1006.542
-3.502	21.579	1268.643	1004.813
-2.487	21.745	1267.579	1004.881
-1.473	21.691	1263.767	1001.510
-0.458	20.628	1249.446	984.114
0.556	16.731	1235.064	951.988
1.571	13.623	1244.347	941.432
2.586	13.106	1259.481	949.825
3.600	12.843	1246.408	938.383
4.615	9.489	1173.110	865.125
5.629	3.524	1102.015	782.436
6.644	0.729	1085.525	756.683
7.659	0.522	1083.369	754.083
8.673	0.589	1082.748	753.918
9.688	0.600	1081.119	752.768
10.702	0.795	1078.447	751.813
11.717	4.351	1082.674	772.414
12.731	10.821	1091.680	811.156
13.746	15.607	1097.830	839.621
14.761	17.050	1099.299	847.886
15.775	16.427	1097.586	843.378
16.790	15.398	1095.569	836.625
17.804	14.740	1094.309	832.312
18.819	14.458	1092.793	829.682
19.834	14.339	1091.652	828.151
20.848	13.883	1091.261	825.516
21.863	13.698	1089.989	823.561
22.877	13.614	1089.180	822.460
23.892	13.506	1088.566	821.388
24.907	13.511	1088.281	821.128
25.921	13.440	1087.704	820.266
26.936	13.567	1086.085	819.602
27.950	13.645	1085.126	819.188
28.965	13.754	1083.881	818.716
29.980	13.717	1082.606	817.496
30.994	13.777	1081.725	817.056
32.009	13.688	1080.762	815.817
33.023	13.765	1079.477	815.156
34.038	13.672	1078.947	814.223
35.053	13.733	1077.798	813.586
36.067	13.663	1076.674	812.321
37.082	13.708	1076.129	812.058
38.096	13.749	1075.389	811.628
39.111	13.672	1074.451	810.472
40.126	13.620	1073.361	809.325
41.140	13.547	1072.196	808.019
42.155	13.567	1070.995	807.139
43.169	13.563	1070.004	806.304
44.184	13.591	1068.658	805.352
45.199	13.514	1068.123	804.504
46.213	13.490	1067.019	803.487
47.228	13.641	1065.574	803.060
48.242	13.649	1064.562	802.262
49.257	13.570	1063.711	801.167
50.271	13.675	1062.749	800.881
51.286	13.756	1062.137	800.738
52.301	13.627	1060.949	799.153
53.315	13.620	1060.020	798.348
54.330	13.520	1059.262	797.224
55.344	13.570	1058.010	796.453
56.359	13.509	1057.579	795.765
57.374	13.571	1056.492	795.171
58.388	13.410	1055.981	793.946
59.403	13.595	1054.487	793.638
60.417	13.654	1053.845	793.369
61.432	13.497	1053.399	792.212
62.447	13.450	1052.597	791.312
63.461	13.491	1051.354	790.501
64.476	13.393	1050.836	789.574
65.490	13.453	1049.931	789.113
66.505	13.577	1048.951	788.896
67.520	13.608	1048.041	788.288
68.534	13.470	1047.785	787.372
69.549	13.547	1047.077	787.136
70.563	13.583	1046.216	786.587
71.578	13.546	1045.245	785.615
72.593	13.401	1044.700	784.449
73.607	13.575	1043.648	784.412
74.622	13.391	1043.242	783.165
75.636	13.331	1042.454	782.224
76.651	13.399	1041.800	781.982
77.666	13.390	1041.307	781.504
78.680	13.394	1040.593	780.918
79.695	13.413	1040.184	780.628
80.709	13.501	1039.129	780.183
81.724	13.579	1038.476	779.989
82.739	13.650	1037.602	779.598
83.753	13.676	1036.918	779.138
84.768	13.606	1035.860	777.946
85.782	13.783	1034.938	778.016
86.797	13.667	1033.906	776.629
87.812	13.591	1033.384	775.809
88.826	13.600	1032.388	775.034
89.841	13.659	1031.204	774.356
90.855	13.585	1030.598	773.488
91.870	13.757	1029.289	773.238
92.884	13.704	1028.868	772.606
93.899	13.848	1027.748	772.365
94.914	13.701	1027.200	771.204
95.928	13.890	1026.163	771.232
96.943	13.811	1025.748	770.488
97.957	13.911	1024.108	769.650
98.972	13.831	1023.654	768.870
99.987	13.779	1022.618	767.784
101.001	13.779	1021.871	767.154
102.016	13.656	1021.297	766.085
103.030	13.708	1020.631	765.759
104.045	13.703	1019.871	765.097
105.060	13.677	1018.977	764.240
106.074	13.884	1017.471	763.996
107.089	13.598	1016.632	761.983
108.103	13.500	1016.277	761.200
109.118	13.678	1014.942	760.947
110.133	13.635	1013.944	759.935
111.147	13.583	1013.311	759.157
112.162	13.748	1012.378	759.144
113.176	13.695	1011.593	758.246
114.191	13.725	1010.851	757.763
115.206	13.705	1009.952	756.930
116.220	13.723	1009.186	756.368
117.235	13.875	1007.959	756.078
118.249	13.794	1007.324	755.163
119.264	13.703	1006.946	754.402
120.279	13.726	1005.841	753.611
121.293	13.576	1005.282	752.443
122.308	13.719	1004.102	752.142
123.322	13.739	1002.994	751.335
124.337	13.816	1001.801	750.723
125.352	13.563	1000.977	748.898
126.366	13.742	999.787	748.749
127.381	13.654	999.214	747.855
128.395	13.733	997.877	747.144
129.410	13.598	997.053	745.854
130.424	13.652	995.941	745.200
131.439	13.808	995.685	745.645
132.454	13.829	994.398	744.708
133.468	13.799	993.600	743.907
134.483	13.793	992.652	743.109
135.497	13.691	992.079	742.153
136.512	13.626	991.666	741.488
137.527	13.586	990.614	740.460
138.541	13.738	989.713	740.396
139.556	13.759	988.987	739.886
140.570	13.760	988.461	739.428
141.585	13.737	987.480	738.527
142.600	14.005	986.111	738.631
143.614	13.789	985.925	737.466
144.629	13.862	985.159	737.153
145.643	13.998	983.879	736.732
146.658	13.842	982.978	735.302
147.673	13.800	982.450	734.655
148.687	13.807	981.428	733.858
149.702	13.753	980.430	732.808
150.716	13.937	979.216	732.647
151.731	13.855	978.940	732.015
152.746	13.850	978.462	731.571
153.760	13.969	977.797	731.531
154.775	14.003	977.101	731.094
155.789	13.898	976.326	729.990
156.804	13.822	975.987	729.335
157.819	13.934	975.008	729.035
158.833	13.991	974.342	728.720
159.848	14.005	973.244	727.896
160.862	14.083	972.362	727.512
161.877	13.997	971.801	726.653
162.892	14.061	970.284	725.736
163.906	13.952	969.346	724.491
164.921	13.838	969.368	723.946
165.935	14.017	967.821	723.506
166.950	14.076	967.088	723.152
167.964	14.109	965.828	722.291
168.979	14.096	964.803	721.401
169.994	14.101	963.781	720.595
171.008	14.151	963.292	720.383
172.023	14.072	962.814	719.620
173.037	14.096	962.187	719.194
174.052	14.018	961.793	718.496
175.067	14.023	960.840	717.744
176.081	13.999	960.081	717.010
177.096	14.117	960.118	717.481
178.110	13.983	959.512	716.389
179.125	14.120	958.206	715.938
180.140	14.111	957.947	715.643
181.154	14.162	957.046	715.128
182.169	14.244	956.813	715.242
183.183	14.279	955.985	714.708
184.198	14.294	954.922	713.915
185.213	14.307	954.450	713.557
186.227	14.171	954.260	712.767
187.242	14.255	953.434	712.449
188.256	14.506	952.569	712.811
189.271	14.286	951.815	711.243
190.286	14.249	951.202	710.566
191.300	14.250	950.918	710.292
192.315	14.257	950.091	709.644
193.329	14.285	949.585	709.320
194.344	14.251	949.057	708.721
195.359	14.256	947.996	707.885
196.373	14.356	947.209	707.662
197.388	14.362	947.352	707.732
198.402	14.467	946.265	707.301
199.417	14.616	945.174	707.056
200.432	14.597	944.652	706.522
201.446	14.429	945.081	706.067
202.461	14.588	943.787	705.713
203.475	14.523	943.325	705.030
204.490	14.609	942.629	704.809
205.504	14.485	942.004	703.755
206.519	14.694	940.678	703.582
207.534	14.592	939.921	702.528
208.548	14.584	939.843	702.373
209.563	14.388	939.207	701.008
210.577	14.704	937.888	701.289
211.592	14.727	937.042	700.692
212.607	14.760	936.492	700.358
213.621	14.698	935.800	699.520
214.636	14.674	935.384	699.045
215.650	14.697	934.562	698.467
216.665	14.842	933.676	698.347
217.680	14.842	933.175	697.912
218.694	14.744	932.395	696.858
219.709	14.685	931.874	696.158
220.723	14.823	930.971	696.000
221.738	14.804	930.778	695.714
222.753	14.693	929.610	694.317
223.767	14.813	929.160	694.419
224.782	14.855	928.752	694.228
225.796	14.935	927.872	693.839
226.811	14.810	927.294	692.827
227.826	14.861	926.473	692.362
228.840	14.768	925.832	691.438
229.855	14.873	925.142	691.296
230.869	14.958	924.276	690.940
231.884	14.789	924.088	690.042
232.899	14.881	923.278	689.754
233.913	14.987	922.061	689.221
234.928	14.822	921.849	688.321
235.942	14.887	921.166	688.018
236.957	14.807	920.697	687.276
237.972	14.982	919.584	687.103
238.986	14.904	919.485	686.649
240.001	14.917	918.717	686.070
241.015	14.948	917.845	685.484
242.030	14.994	917.465	685.329
243.045	14.983	916.639	684.605
244.059	15.035	916.538	684.681
245.074	15.085	915.510	684.056
246.088	15.050	914.899	683.399
247.103	14.929	914.326	682.414
248.117	15.128	913.813	682.785
249.132	15.207	913.011	682.444
250.147	15.254	912.026	681.838
251.161	15.261	911.475	681.398
252.176	15.174	911.126	680.723
253.190	15.192	910.450	680.230
254.205	15.289	909.730	680.026
255.220	15.543	908.395	679.995
256.234	15.357	908.224	679.054
257.249	15.376	907.489	678.523
258.263	15.462	906.619	678.158
259.278	15.359	905.865	677.119
260.293	15.474	905.703	677.401
261.307	15.439	904.946	676.632
262.322	15.491	904.593	676.521
263.336	15.648	903.396	676.197
264.351	15.602	902.738	675.461
265.366	15.480	902.383	674.643
266.380	15.583	901.269	674.163
267.395	15.600	900.773	673.803
268.409	15.627	899.963	673.246
269.424	15.495	899.112	672.019
270.439	15.662	898.479	672.157
271.453	15.546	898.313	671.508
272.468	15.698	897.524	671.465
273.482	15.581	897.139	670.652
274.497	15.607	896.144	669.951
275.512	15.579	895.604	669.377
276.526	15.677	895.195	669.403
277.541	15.596	895.017	668.887
278.555	15.768	894.172	668.880
279.570	15.695	893.604	668.106
280.585	15.841	892.692	667.946
281.599	15.823	891.707	667.079
282.614	15.815	891.264	666.655
283.628	15.767	890.965	666.182
284.643	15.776	890.121	665.528
285.657	15.836	889.669	665.368
286.672	15.728	889.109	664.464
287.687	15.792	888.083	663.891
288.701	15.834	887.681	663.699
289.716	15.898	886.811	663.242
290.730	15.943	886.236	662.931
291.745	15.906	885.919	662.489
292.760	16.001	884.861	662.011
293.774	15.913	884.705	661.491
294.789	15.938	883.667	660.754
295.803	15.893	883.252	660.210
296.818	16.001	882.710	660.169
297.833	16.053	881.838	659.662
298.847	15.903	881.306	658.619
299.862	16.074	880.641	658.731
300.876	16.077	880.176	658.337
301.891	16.031	879.941	657.924
302.906	16.212	878.778	657.701
303.920	16.284	878.455	657.681
304.935	16.310	877.664	657.132
305.949	16.213	876.988	656.193
306.964	16.358	876.171	656.086
307.979	16.333	875.808	655.658
308.993	16.230	875.441	654.924
310.008	16.337	874.664	654.702
311.022	16.320	874.228	654.251
312.037	16.230	873.866	653.575
313.052	16.370	873.012	653.418
314.066	16.207	872.616	652.433
315.081	16.269	871.748	651.968
316.095	16.346	871.074	651.704
317.110	16.415	870.685	651.621
318.125	16.344	869.871	650.678
319.139	16.343	869.885	650.627
320.154	16.297	869.181	649.866
321.168	16.382	868.983	649.991
322.183	16.244	868.348	648.925
323.197	16.369	867.675	648.844
324.212	16.360	866.919	648.189
325.227	16.480	866.560	648.325
326.241	16.442	866.025	647.718
327.256	16.492	865.451	647.426
328.270	16.290	865.137	646.359
329.285	16.270	864.439	645.704
330.300	16.378	863.685	645.495
331.314	16.407	863.209	645.195
332.329	16.408	862.739	644.789
333.343	16.456	862.388	644.651
334.358	16.356	862.205	644.080
335.373	16.527	861.512	644.154
336.387	16.576	861.115	643.988
337.402	16.513	861.121	643.697
338.416	16.555	860.426	643.278
339.431	16.706	859.695	643.248
340.446	16.660	859.250	642.685
341.460	16.693	858.999	642.567
342.475	16.835	858.268	642.498
343.489	16.723	857.797	641.666
344.504	16.904	857.402	641.999
345.519	16.775	857.124	641.246
346.533	16.845	856.577	641.043
347.548	16.675	855.984	639.900
348.562	16.897	855.477	640.305
349.577	16.790	854.771	639.316
350.592	16.875	854.309	639.234
351.606	16.910	853.507	638.709
352.621	16.853	852.737	637.861
353.635	16.773	852.319	637.193
354.650	16.864	851.567	636.915
355.665	16.919	850.962	636.614
356.679	16.944	850.416	636.241
357.694	16.932	849.928	635.774
358.708	16.967	849.517	635.543
359.723	16.887	848.720	634.590
360.738	16.838	848.497	634.186
361.752	17.088	847.447	634.278
362.767	17.105	846.694	633.723
363.781	17.042	846.492	633.278
364.796	17.112	846.021	633.132
365.810	17.045	845.635	632.538
366.825	17.167	845.042	632.492
367.840	17.123	844.781	632.079
368.854	17.271	844.132	632.087
369.869	17.173	843.394	631.115
370.883	17.410	842.633	631.367
371.898	17.184	843.017	630.760
372.913	17.234	842.484	630.492
373.927	17.395	841.547	630.331
374.942	17.255	841.286	629.560
375.956	17.432	840.973	629.928
376.971	17.269	840.664	629.035
377.986	17.467	839.745	629.026
379.000	17.247	839.788	628.187
380.015	17.539	838.894	628.542
381.029	17.313	838.833	627.607
382.044	17.556	837.715	627.610
383.059	17.421	837.418	626.836
384.073	17.464	836.908	626.556
385.088	17.584	835.899	626.187
386.102	17.570	835.288	625.621
387.117	17.462	834.866	624.855
388.132	17.575	834.090	624.632
389.146	17.513	834.070	624.334
390.161	17.578	833.290	623.934
391.175	17.519	833.043	623.477
392.190	17.572	832.564	623.258
393.205	17.475	831.874	622.330
394.219	17.500	831.568	622.138
395.234	17.567	831.346	622.163
396.248	17.402	831.087	621.310
397.263	17.433	830.816	621.167
398.278	17.572	829.916	620.944
399.292	17.411	829.688	620.133
400.307	17.425	829.307	619.842
401.321	17.596	828.394	619.727
402.336	17.472	828.264	619.126
403.350	17.573	827.595	618.937
404.365	17.723	827.311	619.217
405.380	17.674	826.737	618.556
406.394	17.709	826.027	618.094
407.409	17.705	825.643	617.737
408.423	17.888	825.504	618.244
409.438	17.800	825.000	617.493
410.453	17.908	824.510	617.462
411.467	17.888	824.074	617.009
412.482	17.801	823.691	616.353
413.496	18.025	823.110	616.671
414.511	17.912	823.108	616.208
415.526	17.952	822.570	615.893
416.540	17.911	822.061	615.310
417.555	18.019	821.620	615.314
418.569	18.029	820.874	614.739
419.584	17.983	820.483	614.224
420.599	18.063	820.255	614.287
421.613	114.590	1300.396	1488.291
422.628	99.392	1370.264	1488.347
