DTS Sentinel unit serial number:	SN413079Multiplexer serial number:	ORYXHardware model number:	OX4-SRSoftware version number:	ORYX F/W v4.00 Oryx Data Collector v3.7.2.0data status	okinstallation	princeton_trtdifferential loss correction	single-endedforward channel	channel 1reverse channel	N/Adate	2019/09/14time	22:18:35forward acquisition time	60.00reverse acquisition time	0.00gamma	496.2192k internal	0.2319k external	0.2319temperature offset calibration	1.0005default loss term (dB/km)	0.3790temperature slope calibration	1.0000multiplexer offset coefficient	1.0000multiplexer slope coefficient	1.0000fibre end	0.00T internal ref (°C)	32.61T ext. ref 1 (°C)	4.69T ext. ref 2 (°C)	27.57length (m)	temperature (°C)	Stokes	anti-Stokes-747.200	382.600	-0.144	0.299
-746.185	538.714	0.155	0.373
-745.171	485.593	-0.191	-0.441
-744.156	302.805	0.160	0.299
-743.142	-63.610	-0.210	0.087
-742.127	-94.847	0.149	0.041
-741.112	-17.334	-0.228	-0.145
-740.098	43.228	-0.187	-0.172
-739.083	-20.682	0.285	0.177
-738.069	-200.000	-0.007	0.073
-737.054	638.996	-0.027	-0.070
-736.039	130.162	-0.125	-0.162
-735.025	137.220	0.257	0.340
-734.010	-200.000	-0.037	-0.294
-732.996	-17.663	-0.190	-0.121
-731.981	677.344	-0.074	0.194
-730.966	-56.933	0.182	-0.081
-729.952	37.555	-0.235	-0.211
-728.937	69.130	-0.209	-0.217
-727.923	-200.000	0.009	0.070
-726.908	1.034	-0.312	0.226
-725.894	-200.000	0.017	-0.077
-724.879	800.000	-0.087	-0.335
-723.864	-55.958	0.157	-0.071
-722.850	-48.035	0.163	0.080
-721.835	800.000	0.084	-0.291
-720.821	800.000	-0.027	-0.091
-719.806	124.081	0.104	-0.132
-718.791	15.381	-0.265	-0.210
-717.777	118.587	0.161	-0.201
-716.762	-167.003	-0.301	-0.012
-715.748	-93.971	0.176	-0.049
-714.733	-90.233	-0.056	0.016
-713.718	32.277	0.054	0.047
-712.704	-70.056	-0.193	-0.074
-711.689	800.000	-0.023	-0.079
-710.675	-26.114	-0.033	0.020
-709.660	-42.394	-0.136	0.070
-708.645	-126.473	-0.384	-0.058
-707.631	-200.000	0.016	-0.141
-706.616	-15.954	0.025	-0.016
-705.602	-61.228	-0.119	0.051
-704.587	-147.413	0.342	-0.029
-703.572	-174.685	0.070	0.002
-702.558	-149.018	-0.167	0.014
-701.543	800.000	0.105	-0.349
-700.529	61.903	-0.127	-0.128
-699.514	-88.956	0.278	0.083
-698.499	-73.633	-0.201	0.074
-697.485	46.674	0.118	-0.111
-696.470	-64.910	-0.110	0.045
-695.456	-200.000	0.022	0.126
-694.441	-120.185	-0.176	-0.030
-693.426	800.000	0.099	0.387
-692.412	-13.702	-0.099	-0.065
-691.397	-79.040	-0.053	0.018
-690.383	235.041	0.112	-0.187
-689.368	171.512	0.065	-0.094
-688.354	109.003	-0.074	0.090
-687.339	-46.117	0.155	-0.077
-686.324	39.935	0.099	0.090
-685.310	-80.895	-0.065	-0.022
-684.295	-105.989	-0.016	-0.004
-683.281	106.119	0.020	-0.024
-682.266	203.713	-0.077	0.120
-681.251	384.377	0.168	-0.349
-680.237	-25.810	0.216	-0.129
-679.222	742.668	0.056	-0.153
-678.208	-200.000	0.041	0.185
-677.193	-104.647	-0.034	0.008
-676.178	-29.971	0.144	-0.083
-675.164	800.000	0.076	-0.277
-674.149	568.016	-0.017	-0.043
-673.135	-30.392	0.187	0.107
-672.120	-84.889	-0.102	-0.032
-671.105	65.301	0.194	0.198
-670.091	800.000	0.059	-0.195
-669.076	-131.839	-0.240	-0.032
-668.062	-44.901	0.204	0.103
-667.047	61.072	0.045	-0.046
-666.032	28.776	-0.166	-0.141
-665.018	800.000	-0.037	0.135
-664.003	800.000	0.024	0.075
-662.989	404.666	-0.089	0.189
-661.974	111.853	0.063	-0.077
-660.959	-198.121	-0.061	0.000
-659.945	-97.772	0.043	0.011
-658.930	-93.179	0.223	0.063
-657.916	800.000	-0.090	-0.264
-656.901	-117.255	0.161	-0.029
-655.886	-106.543	0.366	0.082
-654.872	-63.962	-0.201	-0.083
-653.857	800.000	0.063	-0.179
-652.843	29.424	0.258	-0.221
-651.828	800.000	-0.005	-0.023
-650.814	-54.954	0.251	0.114
-649.799	800.000	-0.074	-0.278
-648.784	531.267	-0.102	0.242
-647.770	46.714	0.185	-0.173
-646.755	-200.000	-0.004	-0.177
-645.741	800.000	0.030	-0.123
-644.726	746.646	0.138	-0.375
-643.711	409.399	-0.077	0.164
-642.697	77.788	0.188	0.202
-641.682	303.629	-0.157	0.294
-640.668	-66.828	0.154	0.062
-639.653	-200.000	-0.009	-0.186
-638.638	175.026	-0.048	0.070
-637.624	-50.914	0.258	0.122
-636.609	45.122	-0.189	-0.175
-635.595	78.840	-0.113	-0.122
-634.580	257.669	-0.152	0.263
-633.565	9.899	-0.217	-0.166
-632.551	354.910	0.067	-0.133
-631.536	-158.385	0.242	0.014
-630.522	-51.901	-0.310	-0.145
-629.507	-200.000	-0.011	-0.208
-628.492	14.899	0.296	-0.233
-627.478	359.468	-0.097	-0.194
-626.463	-200.000	0.041	-0.278
-625.449	206.839	-0.084	-0.132
-624.434	-200.000	-0.017	-0.510
-623.419	-19.969	-0.136	-0.085
-622.405	-62.588	0.403	0.168
-621.390	-200.000	0.037	0.273
-620.376	-47.433	-0.049	0.024
-619.361	469.393	0.044	0.099
-618.346	59.423	-0.118	0.117
-617.332	-155.415	0.201	0.013
-616.317	318.282	-0.069	-0.132
-615.303	281.902	0.074	-0.134
-614.288	-107.269	0.303	0.067
-613.273	-200.000	0.001	-0.120
-612.259	28.529	0.104	-0.089
-611.244	-49.247	0.408	0.196
-610.230	-24.522	-0.062	-0.037
-609.215	123.221	-0.034	-0.043
-608.201	-147.747	0.019	-0.002
-607.186	-200.000	0.017	0.210
-606.171	-200.000	0.013	0.358
-605.157	-97.658	0.074	0.019
-604.142	-111.729	-0.086	-0.017
-603.128	186.327	0.153	-0.229
-602.113	155.829	-0.073	-0.102
-601.098	-200.000	-0.023	0.164
-600.084	800.000	0.055	0.221
-599.069	522.851	-0.094	-0.223
-598.055	-58.116	-0.222	0.097
-597.040	-200.000	0.003	0.015
-596.025	-200.000	0.055	-0.297
-595.011	102.172	-0.110	-0.129
-593.996	-110.156	-0.344	-0.072
-592.982	-108.572	0.131	0.028
-591.967	113.758	0.117	-0.143
-590.952	-11.228	0.145	-0.096
-589.938	-122.208	0.332	0.055
-588.923	-200.000	-0.431	-0.002
-587.909	55.372	0.237	-0.231
-586.894	-144.907	0.240	-0.022
-585.879	800.000	0.031	0.119
-584.865	-38.001	-0.256	-0.137
-583.850	-97.009	0.226	-0.060
-582.836	-128.662	-0.112	-0.016
-581.821	45.556	0.115	0.107
-580.806	-200.000	0.002	0.079
-579.792	-13.698	0.256	-0.166
-578.777	-172.778	0.155	-0.005
-577.763	-200.000	-0.036	0.351
-576.748	-146.523	0.152	0.013
-575.733	-97.139	-0.039	-0.010
-574.719	-23.485	0.114	-0.069
-573.704	-94.369	0.243	0.067
-572.690	-200.000	-0.030	0.132
-571.675	800.000	-0.017	0.057
-570.661	-112.508	-0.126	-0.025
-569.646	-29.238	0.356	-0.205
-568.631	-42.424	-0.192	-0.098
-567.617	-200.000	-0.027	0.197
-566.602	35.909	0.205	0.181
-565.588	117.777	-0.124	-0.153
-564.573	16.175	-0.090	0.071
-563.558	199.476	-0.134	0.206
-562.544	296.056	0.066	-0.121
-561.529	133.721	0.170	0.221
-560.515	30.661	-0.112	-0.096
-559.500	617.405	-0.137	0.344
-558.485	22.738	-0.107	-0.088
-557.471	-128.521	-0.514	-0.073
-556.456	-102.456	-0.190	0.046
-555.442	112.367	0.063	-0.076
-554.427	-52.493	0.303	-0.141
-553.412	-84.853	-0.114	-0.036
-552.398	-200.000	-0.014	-0.202
-551.383	192.617	-0.152	0.230
-550.369	-142.185	0.247	-0.025
-549.354	-145.895	0.268	-0.024
-548.339	-45.409	0.200	0.100
-547.325	800.000	-0.094	0.355
-546.310	-170.116	0.182	-0.006
-545.296	148.102	-0.248	0.335
-544.281	-200.000	-0.018	0.233
-543.266	-200.000	0.065	-0.559
-542.252	-142.361	-0.066	0.007
-541.237	726.651	0.077	0.206
-540.223	800.000	-0.059	-0.165
-539.208	-20.427	-0.234	-0.144
-538.193	466.088	0.014	0.031
-537.179	444.737	-0.129	-0.284
-536.164	43.640	-0.108	-0.099
-535.150	-104.619	-0.283	0.066
-534.135	-200.000	-0.021	-0.261
-533.121	244.446	-0.110	0.185
-532.106	-178.766	0.348	-0.008
-531.091	-31.943	0.210	0.118
-530.077	-44.585	0.221	0.111
-529.062	-67.539	-0.148	-0.058
-528.048	800.000	-0.103	0.358
-527.033	-111.339	0.158	0.032
-526.018	105.548	-0.258	0.306
-525.004	301.092	0.110	0.204
-523.989	800.000	-0.052	0.178
-522.975	60.931	-0.128	0.127
-521.960	800.000	0.055	-0.193
-520.945	-200.000	-0.005	0.218
-519.931	-37.260	-0.179	0.096
-518.916	-200.000	0.019	-0.108
-517.902	-200.000	-0.027	-0.259
-516.887	718.379	-0.115	-0.305
-515.872	68.904	-0.324	0.334
-514.858	-34.610	-0.170	-0.093
-513.843	-57.107	-0.384	-0.170
-512.829	80.180	-0.070	-0.075
-511.814	-60.077	-0.204	-0.087
-510.799	300.128	0.138	0.255
-509.785	800.000	-0.051	0.181
-508.770	-59.035	-0.065	-0.028
-507.756	18.300	0.222	-0.178
-506.741	-65.665	0.212	-0.085
-505.726	800.000	-0.107	-0.446
-504.712	800.000	0.017	-0.065
-503.697	-200.000	-0.007	-0.135
-502.683	8.917	0.272	-0.205
-501.668	132.285	-0.182	0.234
-500.653	163.503	0.080	-0.112
-499.639	106.664	0.119	0.141
-498.624	-171.329	0.197	-0.007
-497.610	492.322	-0.054	0.124
-496.595	33.117	0.316	0.274
-495.581	747.587	-0.081	-0.219
-494.566	106.698	-0.297	-0.353
-493.551	-200.000	-0.035	-0.200
-492.537	12.314	-0.142	-0.110
-491.522	-87.284	0.104	0.032
-490.508	-134.443	0.455	-0.056
-489.493	-22.472	0.220	-0.133
-488.478	-23.616	0.072	0.043
-487.464	186.221	-0.187	0.279
-486.449	-200.000	0.026	0.203
-485.435	59.457	-0.270	-0.266
-484.420	-88.258	0.226	0.068
-483.405	-200.000	-0.008	-0.186
-482.391	-157.012	0.157	-0.010
-481.376	-94.070	-0.139	-0.038
-480.362	10.877	-0.047	0.036
-479.347	800.000	-0.120	-0.402
-478.332	-35.023	0.087	0.047
-477.318	-95.818	0.553	-0.148
-476.303	70.665	0.092	0.096
-475.289	102.665	-0.174	0.204
-474.274	27.773	-0.227	0.191
-473.259	141.893	0.069	-0.091
-472.245	-150.610	0.224	0.017
-471.230	-52.599	-0.328	0.152
-470.216	800.000	0.127	-0.518
-469.201	2.483	-0.103	-0.074
-468.186	-200.000	-0.041	-0.260
-467.172	-200.000	-0.018	0.182
-466.157	197.224	-0.066	-0.101
-465.143	-48.932	0.098	0.047
-464.128	-56.537	-0.140	-0.062
-463.113	186.371	-0.152	0.226
-462.099	-200.000	-0.051	0.408
-461.084	-200.000	0.012	0.068
-460.070	123.150	-0.119	-0.150
-459.055	-96.680	0.118	0.031
-458.040	-136.066	-0.118	-0.014
-457.026	-158.296	0.239	-0.014
-456.011	-39.031	-0.356	0.187
-454.997	33.770	0.329	-0.286
-453.982	74.084	-0.095	-0.100
-452.968	310.050	-0.168	0.314
-451.953	-116.175	-0.325	0.060
-450.938	311.756	0.076	0.143
-449.924	493.800	-0.078	0.178
-448.909	-51.651	-0.355	-0.165
-447.895	169.201	-0.108	-0.154
-446.880	354.526	0.098	-0.194
-445.865	369.317	-0.131	0.265
-444.851	-200.000	-0.010	0.317
-443.836	506.089	0.107	0.248
-442.822	-200.000	0.002	-0.172
-441.807	154.231	0.108	-0.149
-440.792	698.962	-0.058	0.154
-439.778	-154.128	-0.356	-0.024
-438.763	33.522	-0.252	0.219
-437.749	-102.281	-0.356	0.085
-436.734	586.998	0.082	-0.201
-435.719	800.000	0.097	-0.373
-434.705	76.285	-0.103	-0.108
-433.690	-200.000	0.033	0.239
-432.676	231.436	0.026	0.042
-431.661	-14.270	0.183	-0.118
-430.646	-9.361	0.050	0.033
-429.632	-63.067	0.149	0.061
-428.617	-146.949	0.257	0.022
-427.603	-168.928	-0.292	-0.011
-426.588	-158.566	-0.063	0.004
-425.573	432.512	-0.154	-0.334
-424.559	-139.773	-0.315	-0.033
-423.544	800.000	-0.122	-0.372
-422.530	15.275	-0.199	-0.156
-421.515	-33.873	-0.046	0.025
-420.500	283.717	0.073	-0.131
-419.486	-200.000	-0.068	-0.358
-418.471	-175.224	0.128	-0.004
-417.457	152.512	0.202	-0.276
-416.442	87.703	-0.016	-0.017
-415.428	-38.122	-0.469	0.248
-414.413	-200.000	-0.019	0.140
-413.398	29.495	-0.193	0.164
-412.384	24.621	0.223	0.184
-411.369	131.495	-0.223	-0.286
-410.355	31.049	-0.109	-0.093
-409.340	-45.290	-0.151	0.075
-408.325	-200.000	-0.057	0.277
-407.311	368.518	-0.134	0.271
-406.296	800.000	-0.045	0.137
-405.282	166.123	0.280	-0.396
-404.267	63.510	0.152	0.152
-403.252	-192.865	-0.222	-0.002
-402.238	-4.911	0.096	-0.066
-401.223	-14.933	-0.343	0.219
-400.209	14.494	0.173	-0.134
-399.194	-116.369	-0.138	0.025
-398.179	-200.000	-0.059	-0.271
-397.165	29.254	-0.137	0.116
-396.150	-200.000	-0.028	-0.281
-395.136	-77.691	0.404	0.139
-394.121	-43.653	-0.241	-0.121
-393.106	78.611	0.067	0.072
-392.092	-59.509	-0.237	-0.101
-391.077	-200.000	-0.018	0.178
-390.063	-80.282	-0.137	-0.046
-389.048	238.797	0.271	-0.449
-388.033	97.872	0.020	0.023
-387.019	-200.000	0.072	0.388
-386.004	53.604	0.195	0.187
-384.990	-200.000	-0.016	0.123
-383.975	-161.074	0.141	-0.007
-382.960	0.948	-0.172	0.123
-381.946	-54.065	0.165	0.075
-380.931	225.380	0.091	0.146
-379.917	-200.000	-0.028	0.438
-378.902	9.066	0.373	0.281
-377.888	92.636	-0.115	0.129
-376.873	-97.291	0.104	-0.027
-375.858	800.000	0.080	-0.282
-374.844	-97.147	-0.212	-0.055
-373.829	243.700	0.247	-0.414
-372.815	757.104	0.111	0.301
-371.800	394.813	0.085	-0.176
-370.785	447.101	0.060	0.132
-369.771	-161.113	0.163	0.009
-368.756	285.778	-0.103	-0.185
-367.742	-127.140	-0.018	-0.003
-366.727	-168.555	-0.514	0.020
-365.712	800.000	0.119	0.333
-364.698	69.207	-0.295	0.303
-363.683	-67.934	-0.237	0.092
-362.669	-88.833	0.077	-0.023
-361.654	546.905	-0.151	0.360
-360.639	-146.784	-0.260	-0.022
-359.625	-90.214	0.360	0.104
-358.610	-66.817	-0.057	0.023
-357.596	615.837	-0.113	-0.283
-356.581	-21.938	-0.052	0.032
-355.566	111.458	-0.023	-0.028
-354.552	-3.179	0.218	0.151
-353.537	6.691	-0.118	0.087
-352.523	33.845	0.106	-0.092
-351.508	800.000	0.014	-0.054
-350.493	526.673	0.155	-0.363
-349.479	800.000	0.092	-0.295
-348.464	800.000	-0.076	0.288
-347.450	292.476	-0.168	-0.305
-346.435	-47.270	0.016	0.008
-345.420	98.386	0.072	0.083
-344.406	123.345	0.165	-0.206
-343.391	-1.296	0.220	0.155
-342.377	-200.000	0.030	-0.162
-341.362	-76.857	-0.253	0.088
-340.348	800.000	-0.061	-0.175
-339.333	-115.894	-0.145	-0.027
-338.318	-62.912	0.110	0.046
-337.304	21.028	0.119	0.096
-336.289	117.976	0.226	0.277
-335.275	-112.239	0.302	-0.060
-334.260	397.630	0.153	0.319
-333.245	-200.000	0.018	0.300
-332.231	-200.000	0.013	0.107
-331.216	706.607	0.136	0.357
-330.202	145.338	-0.134	-0.179
-329.187	-18.759	-0.101	0.063
-328.172	-140.571	0.511	-0.053
-327.158	800.000	-0.021	-0.080
-326.143	107.729	0.156	0.185
-325.129	-17.842	0.057	-0.036
-324.114	-200.000	-0.022	-0.504
-323.099	-200.000	-0.017	0.111
-322.085	-200.000	0.001	-0.122
-321.070	88.618	-0.165	0.183
-320.056	138.368	0.152	-0.199
-319.041	-109.172	0.340	-0.072
-318.026	179.926	0.220	0.321
-317.012	99.144	0.292	0.335
-315.997	297.968	-0.055	-0.101
-314.983	-64.649	-0.310	0.125
-313.968	800.000	-0.008	0.028
-312.953	-116.901	-0.172	0.031
-311.939	90.659	-0.088	0.098
-310.924	225.172	0.122	0.197
-309.910	-200.000	-0.017	-0.109
-308.895	389.510	0.065	-0.134
-307.880	182.903	0.195	-0.286
-306.866	-200.000	0.037	0.174
-305.851	19.942	-0.050	-0.040
-304.837	156.721	0.082	-0.113
-303.822	-17.539	0.131	0.082
-302.807	-44.725	0.337	-0.167
-301.793	-93.415	0.061	0.017
-300.778	212.486	0.112	0.176
-299.764	8.482	0.285	0.213
-298.749	378.717	-0.097	0.196
-297.735	-200.000	0.022	0.433
-296.720	-200.000	0.067	0.297
-295.705	-119.534	-0.204	0.035
-294.691	-102.151	0.098	0.023
-293.676	40.001	-0.206	0.184
-292.662	-200.000	0.012	0.080
-291.647	158.181	-0.219	-0.302
-290.632	-120.382	-0.039	-0.007
-289.618	-105.060	0.285	0.065
-288.603	301.500	0.066	-0.120
-287.589	-102.582	0.130	0.031
-286.574	-116.037	0.325	0.060
-285.559	105.308	0.034	-0.040
-284.545	72.757	0.119	0.123
-283.530	77.436	0.118	-0.125
-282.516	7.699	0.242	0.180
-281.501	41.959	0.221	-0.199
-280.486	175.964	-0.167	-0.240
-279.472	279.675	-0.045	0.081
-278.457	202.540	0.115	-0.176
-277.443	-131.948	-0.234	-0.030
-276.428	158.011	-0.131	-0.180
-275.413	286.012	-0.148	-0.264
-274.399	106.547	-0.048	0.057
-273.384	-200.000	0.029	0.466
-272.370	-170.072	0.188	-0.007
-271.355	585.568	0.101	0.247
-270.340	-133.946	-0.318	-0.039
-269.326	-200.000	-0.008	-0.089
-268.311	296.974	0.155	-0.282
-267.297	444.893	0.034	-0.074
-266.282	-30.906	-0.106	0.060
-265.267	-200.000	0.066	-0.344
-264.253	800.000	-0.051	-0.189
-263.238	-127.298	-0.172	-0.025
-262.224	159.117	-0.117	0.161
-261.209	-80.680	-0.132	0.044
-260.195	-5.709	-0.350	-0.238
-259.180	-81.380	0.251	0.082
-258.165	299.514	0.067	0.123
-257.151	-200.000	-0.078	0.376
-256.136	-94.491	0.129	-0.035
-255.122	-200.000	0.035	0.205
-254.107	175.633	0.040	0.058
-253.092	189.136	0.079	0.118
-252.078	-200.000	-0.028	-0.298
-251.063	-152.602	0.154	0.011
-250.049	161.742	0.058	-0.080
-249.034	-200.000	0.094	0.478
-248.019	-91.238	0.122	-0.035
-247.005	-125.278	0.161	-0.024
-245.990	-160.717	-0.518	-0.027
-244.976	-75.958	-0.178	0.063
-243.961	-106.407	0.136	-0.030
-242.946	-122.637	0.188	0.030
-241.932	39.299	-0.097	0.086
-240.917	-97.284	-0.249	0.065
-239.903	-200.000	-0.004	0.204
-238.888	-45.289	-0.075	-0.037
-237.873	123.104	0.084	0.104
-236.859	-3.586	0.284	-0.196
-235.844	800.000	-0.027	-0.077
-234.830	70.118	0.209	-0.214
-233.815	137.921	-0.105	-0.137
-232.800	800.000	0.053	-0.203
-231.786	-131.477	-0.084	-0.011
-230.771	-200.000	-0.076	-0.376
-229.757	-42.377	0.239	-0.121
-228.742	0.456	0.084	0.060
-227.727	184.247	-0.203	0.298
-226.713	-200.000	-0.000	-0.277
-225.698	31.617	-0.116	-0.099
-224.684	115.654	-0.102	0.124
-223.669	-47.239	0.079	-0.038
-222.655	-90.733	-0.163	-0.047
-221.640	165.811	-0.171	0.239
-220.625	40.463	0.219	0.195
-219.611	423.587	0.098	-0.208
-218.596	-126.091	-0.008	0.001
-217.582	39.823	-0.292	0.259
-216.567	75.007	-0.205	-0.214
-215.552	752.810	0.047	-0.127
-214.538	800.000	-0.005	0.023
-213.523	40.593	0.119	0.107
-212.509	96.142	-0.154	-0.175
-211.494	-200.000	0.012	0.254
-210.479	-42.945	-0.266	0.134
-209.465	-95.106	-0.127	-0.034
-208.450	-3.189	-0.041	-0.029
-207.436	-25.174	0.126	-0.074
-206.421	-138.429	-0.130	0.014
-205.406	85.654	0.097	0.105
-204.392	401.244	-0.120	0.249
-203.377	-117.637	-0.154	-0.028
-202.363	-69.249	-0.152	-0.058
-201.348	-199.804	-0.378	-0.002
-200.333	-17.721	0.362	-0.225
-199.319	-111.001	-0.158	0.032
-198.304	27.265	0.190	0.158
-197.290	800.000	-0.029	-0.119
-196.275	800.000	0.016	-0.064
-195.260	-88.848	-0.140	-0.041
-194.246	-76.613	-0.201	-0.070
-193.231	-200.000	0.049	-0.241
-192.217	691.332	-0.057	0.147
-191.202	-101.218	0.285	0.069
-190.187	239.108	-0.028	-0.046
-189.173	-63.644	-0.196	-0.080
-188.158	217.343	0.120	0.189
-187.144	-93.107	-0.166	-0.046
-186.129	4.663	-0.017	0.012
-185.114	-127.288	-0.305	-0.044
-184.100	770.741	-0.053	0.142
-183.085	800.000	0.014	0.059
-182.071	-49.941	0.137	0.064
-181.056	89.277	-0.054	-0.059
-180.042	7.733	-0.346	-0.256
-179.027	-133.988	0.298	-0.036
-178.012	-117.602	-0.124	0.022
-176.998	572.938	0.004	0.009
-175.983	44.539	0.163	-0.148
-174.969	50.882	0.105	0.098
-173.954	137.206	0.194	-0.251
-172.939	-102.830	-0.061	0.014
-171.925	70.896	-0.211	-0.216
-170.910	-183.678	-0.222	0.004
-169.896	47.109	0.042	-0.039
-168.881	-143.222	0.474	-0.045
-167.866	-10.781	0.204	0.133
-166.852	-147.384	-0.164	-0.014
-165.837	-113.236	-0.361	0.070
-164.823	95.341	-0.127	-0.143
-163.808	800.000	-0.068	-0.283
-162.793	127.328	0.212	0.266
-161.779	-29.652	-0.040	0.023
-160.764	800.000	-0.123	0.402
-159.750	8.388	0.041	-0.031
-158.735	-128.334	0.046	-0.006
-157.720	738.367	0.088	-0.234
-156.706	-35.006	0.260	0.140
-155.691	-200.000	-0.016	-0.155
-154.677	-52.009	0.443	-0.204
-153.662	9.574	-0.169	0.127
-152.647	21.928	-0.233	0.188
-151.633	82.610	0.261	0.280
-150.618	-200.000	-0.008	0.109
-149.604	13.181	0.341	0.261
-148.589	-200.000	-0.016	-0.143
-147.574	96.652	-0.217	0.246
-146.560	513.592	0.126	-0.291
-145.545	-59.879	-0.162	0.069
-144.531	46.626	0.244	-0.224
-143.516	-138.252	-0.650	0.071
-142.502	-46.460	-0.158	-0.077
-141.487	118.762	0.181	0.221
-140.472	-122.022	0.423	-0.069
-139.458	-41.586	0.121	0.061
-138.443	623.340	-0.094	0.234
-137.429	-200.000	0.009	0.381
-136.414	74.231	-0.103	0.107
-135.399	-3.116	-0.231	-0.159
-134.385	-200.000	0.020	-0.258
-133.370	-11.038	-0.305	0.199
-132.356	402.230	0.128	0.266
-131.341	183.191	0.118	-0.172
-130.326	-200.000	-0.034	0.179
-129.312	80.821	0.225	-0.239
-128.297	605.599	0.036	-0.089
-127.283	800.000	-0.091	0.320
-126.268	-149.061	0.399	0.032
-125.253	51.554	0.197	-0.185
-124.239	570.855	-0.103	0.247
-123.224	-0.906	0.162	0.113
-122.210	-103.565	-0.360	-0.083
-121.195	-15.180	-0.166	0.105
-120.180	-188.289	-0.360	0.004
-119.166	403.917	-0.093	-0.193
-118.151	800.000	-0.080	-0.313
-117.137	82.911	-0.202	-0.217
-116.122	119.412	0.030	-0.037
-115.107	17.325	-0.079	0.062
-114.093	169.930	0.115	-0.162
-113.078	694.541	-0.029	0.075
-112.064	530.345	-0.083	-0.194
-111.049	-58.084	0.126	0.054
-110.034	154.709	0.095	-0.129
-109.020	44.631	-0.160	0.146
-108.005	-62.638	0.309	0.126
-106.991	356.715	-0.142	0.279
-105.976	-200.000	0.060	0.298
-104.962	-83.980	-0.115	0.036
-103.947	-14.503	0.230	-0.146
-102.932	706.512	-0.053	-0.137
-101.918	-86.733	0.114	-0.034
-100.903	-156.101	0.399	-0.025
-99.889	205.966	0.193	-0.296
-98.874	-7.471	-0.056	-0.037
-97.859	-3.218	-0.238	-0.164
-96.845	9.059	0.061	0.046
-95.830	111.600	0.041	0.049
-94.816	462.788	0.021	0.046
-93.801	556.620	0.085	-0.201
-92.786	639.774	-0.032	0.080
-91.772	-6.136	0.035	-0.024
-90.757	193.939	0.149	-0.222
-89.743	28.995	-0.176	0.147
-88.728	238.334	0.126	0.206
-87.713	23.303	-0.126	0.102
-86.699	691.881	0.113	0.291
-85.684	47.045	-0.024	0.022
-84.670	800.000	-0.074	-0.221
-83.655	20.624	-0.335	0.267
-82.640	-102.280	-0.293	0.069
-81.626	641.311	-0.003	-0.006
-80.611	-53.173	-0.115	-0.052
-79.597	106.027	0.172	0.200
-78.582	-49.757	-0.228	0.107
-77.567	105.067	0.139	-0.161
-76.553	-200.000	0.004	0.038
-75.538	-67.629	0.229	-0.089
-74.524	78.323	-0.102	-0.107
-73.509	-83.426	-0.227	0.072
-72.494	800.000	-0.089	-0.319
-71.480	18.839	-0.126	0.100
-70.465	260.039	0.093	-0.159
-69.451	191.646	-0.136	-0.201
-68.436	800.000	0.023	0.098
-67.422	-5.743	-0.115	0.077
-66.407	108.512	0.158	0.186
-65.392	800.000	0.025	0.093
-64.378	-200.000	0.069	-0.431
-63.363	-154.989	-0.281	-0.018
-62.349	-200.000	0.002	0.037
-61.334	36.475	-0.992	-0.862
-60.319	674.002	0.261	0.667
-59.305	230.506	-0.391	-0.630
-58.290	800.000	0.360	1.052
-57.276	468.378	0.645	1.426
-56.261	-200.000	94.880	578.181
-55.246	657.215	1371.558	3471.315
-54.232	199.695	2543.346	3841.853
-53.217	120.922	2141.314	2622.365
-52.203	44.502	1605.677	1452.413
-51.188	36.234	1343.455	1165.487
-50.173	32.950	1302.023	1110.230
-49.159	54.913	1348.353	1281.481
-48.144	57.219	1364.997	1311.021
-47.130	36.231	1324.563	1148.898
-46.115	32.909	1306.752	1113.838
-45.100	32.671	1301.803	1108.177
-44.086	32.451	1300.114	1105.407
-43.071	32.525	1297.530	1103.601
-42.057	32.471	1295.412	1101.435
-41.042	32.578	1293.844	1100.683
-40.027	32.582	1291.987	1099.084
-39.013	32.496	1290.420	1097.211
-37.998	32.576	1288.502	1095.997
-36.984	32.593	1286.452	1094.309
-35.969	32.621	1284.581	1092.838
-34.954	32.690	1283.348	1092.144
-33.940	32.615	1282.240	1090.725
-32.925	32.698	1280.990	1090.097
-31.911	32.640	1279.558	1088.500
-30.896	32.718	1277.477	1087.136
-29.881	32.737	1276.186	1086.105
-28.867	32.707	1274.825	1084.732
-27.852	32.671	1273.492	1083.349
-26.838	32.812	1271.710	1082.597
-25.823	32.719	1270.181	1080.718
-24.809	32.639	1269.237	1079.414
-23.794	32.701	1267.767	1078.480
-22.779	32.705	1266.803	1077.637
-21.765	32.770	1264.992	1076.424
-20.750	32.625	1264.189	1074.874
-19.736	32.673	1262.355	1073.543
-18.721	32.567	1262.072	1072.659
-17.706	32.588	1260.519	1071.416
-16.692	32.627	1258.962	1070.269
-15.677	32.477	1258.647	1069.106
-14.663	32.442	1257.228	1067.663
-13.648	32.623	1256.034	1067.632
-12.633	32.550	1255.149	1066.423
-11.619	32.589	1254.329	1065.905
-10.604	32.539	1253.783	1065.113
-9.590	32.516	1252.637	1063.967
-8.575	32.606	1251.536	1063.500
-7.560	32.411	1250.945	1061.853
-6.546	32.527	1250.039	1061.700
-5.531	32.486	1249.090	1060.620
-4.517	32.646	1247.966	1060.524
-3.502	32.476	1247.965	1059.525
-2.487	32.505	1246.287	1058.222
-1.473	32.607	1242.107	1055.200
-0.458	31.189	1227.144	1034.593
0.556	26.712	1209.588	996.278
1.571	23.018	1214.388	979.712
2.586	22.118	1229.196	986.515
3.600	21.473	1217.541	973.489
4.615	16.380	1146.599	889.924
5.629	8.506	1072.379	793.309
6.644	4.816	1053.235	761.070
7.659	4.601	1050.963	758.313
8.673	4.696	1049.664	757.770
9.688	4.648	1048.445	756.588
10.702	4.756	1046.282	755.485
11.717	9.144	1052.627	781.391
12.731	16.496	1062.540	824.664
13.746	19.150	1065.310	839.703
14.761	18.348	1063.798	834.532
15.775	17.325	1061.783	827.895
16.790	16.267	1059.969	821.263
17.804	15.552	1058.324	816.445
18.819	15.167	1057.444	813.824
19.834	14.876	1056.419	811.550
20.848	14.705	1055.396	809.862
21.863	14.439	1054.433	807.762
22.877	14.346	1053.947	806.871
23.892	14.404	1052.977	806.335
24.907	14.521	1052.020	806.097
25.921	14.505	1051.372	805.449
26.936	14.437	1050.075	804.060
27.950	14.482	1048.736	803.180
28.965	14.492	1047.784	802.427
29.980	14.718	1045.430	801.638
30.994	14.649	1044.809	800.762
32.009	14.735	1043.570	800.152
33.023	14.714	1042.718	799.327
34.038	14.696	1041.430	798.183
35.053	14.524	1040.825	796.828
36.067	14.525	1040.035	796.158
37.082	14.497	1039.001	795.161
38.096	14.633	1038.252	795.167
39.111	14.663	1037.180	794.418
40.126	14.539	1036.373	793.140
41.140	14.388	1034.727	791.091
42.155	14.306	1033.804	789.927
43.169	14.295	1032.408	788.739
44.184	14.284	1031.434	787.872
45.199	14.196	1030.669	786.803
46.213	14.361	1029.613	786.706
47.228	14.352	1028.695	785.893
48.242	14.570	1027.426	785.881
49.257	14.456	1026.719	784.735
50.271	14.503	1025.334	783.827
51.286	14.532	1024.939	783.591
52.301	14.596	1023.887	783.017
53.315	14.448	1022.421	781.137
54.330	14.361	1022.136	780.439
55.344	14.411	1020.355	779.243
56.359	14.423	1020.131	779.061
57.374	14.371	1018.932	777.835
58.388	14.235	1018.339	776.676
59.403	14.326	1017.284	776.228
60.417	14.199	1016.655	775.090
61.432	14.257	1015.593	774.479
62.447	14.184	1014.898	773.541
63.461	14.134	1014.162	772.678
64.476	14.122	1013.184	771.811
65.490	14.188	1012.462	771.500
66.505	14.277	1011.769	771.313
67.520	14.232	1011.095	770.524
68.534	14.166	1010.929	770.024
69.549	14.195	1010.106	769.461
70.563	14.255	1008.874	768.735
71.578	14.182	1007.690	767.429
72.593	14.131	1007.139	766.704
73.607	14.114	1006.343	765.952
74.622	14.317	1005.983	766.548
75.636	14.163	1005.170	765.149
76.651	14.076	1004.538	764.200
77.666	14.188	1003.808	764.095
78.680	14.224	1003.230	763.748
79.695	14.158	1003.007	763.210
80.709	14.254	1002.137	762.922
81.724	14.348	1001.344	762.678
82.739	14.379	1000.875	762.398
83.753	14.479	1000.005	762.125
84.768	14.714	999.423	762.686
85.782	14.625	998.382	761.419
86.797	14.650	997.320	760.655
87.812	14.500	996.162	759.022
88.826	14.475	995.467	758.311
89.841	14.592	994.443	757.997
90.855	14.675	993.912	757.900
91.870	14.701	992.882	757.165
92.884	14.616	992.277	756.252
93.899	14.715	991.336	755.917
94.914	14.641	990.791	755.100
95.928	14.714	989.957	754.728
96.943	14.665	988.918	753.648
97.957	14.648	987.789	752.641
98.972	14.494	987.420	751.600
99.987	14.661	985.923	751.149
101.001	14.699	985.105	750.626
102.016	14.543	984.281	749.234
103.030	14.740	983.784	749.672
104.045	14.682	982.827	748.619
105.060	14.610	981.564	747.267
106.074	14.401	980.857	745.729
107.089	14.173	980.590	744.437
108.103	14.364	979.097	744.091
109.118	14.414	977.948	743.376
110.133	14.196	977.421	741.936
111.147	14.324	976.536	741.772
112.162	14.374	975.346	741.023
113.176	14.354	975.250	740.797
114.191	14.570	974.048	740.775
115.206	14.436	973.885	739.993
116.220	14.304	972.963	738.641
117.235	14.484	971.045	737.917
118.249	14.408	970.805	737.330
119.264	14.283	970.368	736.383
120.279	14.374	969.118	735.772
121.293	14.416	968.682	735.561
122.308	14.186	968.081	734.023
123.322	14.309	966.351	733.187
124.337	14.283	966.246	732.929
125.352	14.169	965.194	731.564
126.366	14.169	964.049	730.632
127.381	14.258	962.731	729.957
128.395	14.362	961.885	729.711
129.410	14.441	961.279	729.529
130.424	14.421	960.167	728.534
131.439	14.529	959.830	728.688
132.454	14.520	958.832	727.823
133.468	14.475	958.050	726.969
134.483	14.370	957.539	726.063
135.497	14.389	956.403	725.217
136.512	14.422	955.863	724.887
137.527	14.440	954.907	724.178
138.541	14.456	954.333	723.748
139.556	14.569	953.724	723.710
140.570	14.503	953.294	723.034
141.585	14.791	951.744	723.042
142.600	14.685	951.450	722.294
143.614	14.751	950.354	721.685
144.629	14.772	949.774	721.273
145.643	14.656	949.225	720.291
146.658	14.582	947.933	718.928
147.673	14.518	946.950	717.844
148.687	14.582	945.614	717.042
149.702	14.725	944.487	716.736
150.716	14.640	944.467	716.294
151.731	14.530	943.691	715.168
152.746	14.651	942.910	715.031
153.760	14.653	942.789	714.887
154.775	14.696	941.893	714.327
155.789	14.725	940.865	713.609
156.804	14.691	940.389	713.042
157.819	14.670	939.902	712.519
158.833	14.844	939.293	712.734
159.848	14.786	938.148	711.556
160.862	14.842	937.371	711.142
161.877	14.605	936.475	709.394
162.892	14.546	935.388	708.256
163.906	14.634	934.516	707.908
164.921	14.598	933.945	707.259
165.935	14.659	933.038	706.765
166.950	14.691	931.839	705.931
167.964	14.675	931.176	705.298
168.979	14.781	929.960	704.764
169.994	14.708	929.756	704.237
171.008	14.680	929.110	703.569
172.023	14.830	928.201	703.451
173.037	14.852	927.249	702.759
174.052	14.769	926.556	701.823
175.067	14.758	926.055	701.335
176.081	14.716	925.948	701.015
177.096	14.594	924.881	699.634
178.110	14.857	923.987	699.995
179.125	14.820	923.773	699.618
180.140	14.781	923.265	699.008
181.154	14.887	922.356	698.701
182.169	14.861	922.288	698.481
183.183	14.938	921.555	698.185
184.198	15.124	920.347	697.981
185.213	14.922	920.354	697.083
186.227	15.131	919.350	697.133
187.242	15.023	918.973	696.334
188.256	15.253	918.153	696.607
189.271	15.072	917.597	695.373
190.286	14.883	916.762	693.895
191.300	14.732	915.899	692.554
192.315	14.584	915.552	691.616
193.329	14.777	914.841	691.819
194.344	14.792	914.349	691.445
195.359	14.835	913.513	690.932
196.373	15.034	912.794	691.146
197.388	15.179	912.403	691.390
198.402	15.196	911.944	691.051
199.417	15.162	911.930	690.839
200.432	15.205	911.134	690.352
201.446	15.428	910.635	690.828
202.461	15.470	909.878	690.367
203.475	15.326	909.223	689.217
204.490	15.086	908.900	687.924
205.504	15.231	907.370	687.302
206.519	15.230	906.974	686.936
207.534	15.062	906.507	685.835
208.548	15.108	905.791	685.420
209.563	15.272	905.204	685.585
210.577	15.212	904.557	684.788
211.592	15.336	903.984	684.802
212.607	15.330	903.242	684.154
213.621	15.327	902.629	683.616
214.636	15.450	901.717	683.367
215.650	15.311	901.160	682.319
216.665	15.457	900.487	682.343
217.680	15.550	899.558	681.955
218.694	15.576	898.935	681.529
219.709	15.432	898.316	680.414
220.723	15.505	897.881	680.323
221.738	15.489	897.112	679.613
222.753	15.450	896.787	679.149
223.767	15.599	896.219	679.261
224.782	15.610	895.932	679.028
225.796	15.575	895.307	678.353
226.811	15.653	894.287	677.836
227.826	15.514	893.843	676.878
228.840	15.518	892.864	676.093
229.855	15.415	892.373	675.249
230.869	15.523	891.404	674.887
231.884	15.579	890.321	674.234
232.899	15.447	889.451	672.987
233.913	15.485	888.886	672.651
234.928	15.458	888.598	672.265
235.942	15.339	888.121	671.367
236.957	15.369	887.422	670.901
237.972	15.484	886.883	670.894
238.986	15.450	886.215	670.193
240.001	15.577	885.616	670.186
241.015	15.515	884.993	669.409
242.030	15.699	884.240	669.513
243.045	15.763	883.814	669.387
244.059	15.773	883.427	669.075
245.074	15.679	882.533	667.963
246.088	15.733	882.222	667.885
247.103	15.784	881.412	667.414
248.117	15.864	881.120	667.453
249.132	16.053	880.498	667.671
250.147	16.065	880.174	667.414
251.161	16.149	879.330	667.045
252.176	16.172	878.631	666.547
253.190	16.078	878.003	665.640
254.205	16.153	877.562	665.544
255.220	16.164	876.835	664.975
256.234	16.169	876.278	664.514
257.249	16.171	876.159	664.374
258.263	16.204	874.675	663.319
259.278	16.215	874.046	662.826
260.293	16.256	873.564	662.564
261.307	16.152	873.215	661.831
262.322	16.375	872.489	662.099
263.336	16.300	871.929	661.321
264.351	16.390	870.969	660.884
265.366	16.455	870.341	660.604
266.380	16.486	869.849	660.293
267.395	16.419	868.822	659.196
268.409	16.241	868.159	657.939
269.424	16.391	867.631	658.066
270.439	16.209	867.214	656.983
271.453	16.210	866.503	656.388
272.468	16.278	865.903	656.140
273.482	16.307	865.280	655.724
274.497	16.286	865.014	655.384
275.512	16.215	864.284	654.495
276.526	16.274	863.504	654.078
277.541	16.274	863.130	653.734
278.555	16.551	862.654	654.388
279.570	16.459	861.843	653.360
280.585	16.533	861.059	652.992
281.599	16.518	859.968	652.053
282.614	16.553	859.709	651.930
283.628	16.476	859.417	651.354
284.643	16.414	858.628	650.461
285.657	16.521	857.990	650.331
286.672	16.457	857.604	649.737
287.687	16.426	857.155	649.218
288.701	16.666	856.072	649.261
289.716	16.638	855.733	648.840
290.730	16.558	855.164	648.043
291.745	16.623	854.530	647.757
292.760	16.638	854.014	647.364
293.774	16.780	853.365	647.358
294.789	16.730	852.652	646.570
295.803	16.646	852.133	645.796
296.818	16.586	851.751	645.223
297.833	16.653	850.601	644.549
298.847	16.616	850.177	644.032
299.862	16.703	849.549	643.830
300.876	16.696	849.256	643.522
301.891	16.601	848.788	642.751
302.906	16.852	848.094	643.119
303.920	16.952	847.344	642.873
304.935	16.951	847.022	642.569
305.949	16.925	846.313	641.876
306.964	16.684	845.765	640.493
307.979	16.830	845.021	640.423
308.993	17.013	844.322	640.529
310.008	16.894	843.848	639.662
311.022	16.881	843.392	639.210
312.037	16.955	842.613	638.842
313.052	16.817	842.175	637.937
314.066	16.795	841.302	637.133
315.081	16.775	841.182	636.911
316.095	16.745	840.619	636.315
317.110	16.659	840.277	635.678
318.125	16.697	839.599	635.252
319.139	16.758	839.510	635.359
320.154	16.792	838.627	634.759
321.168	16.910	837.731	634.467
322.183	17.025	837.230	634.463
323.197	16.897	836.986	633.741
324.212	17.016	836.430	633.709
325.227	17.047	835.616	633.154
326.241	17.021	834.836	632.410
327.256	16.860	834.554	631.541
328.270	16.875	834.192	631.265
329.285	16.768	833.946	630.624
330.300	16.944	832.653	630.244
331.314	17.029	832.265	630.213
332.329	16.998	832.051	629.878
333.343	17.053	831.489	629.602
334.358	16.961	831.437	629.165
335.373	16.976	831.193	628.980
336.387	17.162	830.407	629.018
337.402	17.156	830.133	628.733
338.416	17.263	830.107	629.055
339.431	17.317	829.591	628.809
340.446	17.402	828.982	628.603
341.460	17.360	829.222	628.575
342.475	17.458	828.247	628.143
343.489	17.243	828.495	627.480
344.504	17.468	827.589	627.571
345.519	17.504	826.898	627.122
346.533	17.559	826.610	627.051
347.548	17.395	825.798	625.777
348.562	17.453	824.994	625.326
349.577	17.165	824.940	624.169
350.592	17.187	824.253	623.675
351.606	17.260	823.522	623.336
352.621	17.353	822.610	622.931
353.635	17.366	821.922	622.402
354.650	17.444	821.253	622.126
355.665	17.466	820.883	621.871
356.679	17.359	820.714	621.298
357.694	17.567	819.795	621.304
358.708	17.517	819.223	620.633
359.723	17.613	818.617	620.469
360.738	17.468	818.178	619.556
361.752	17.558	817.697	619.463
362.767	17.703	816.766	619.230
363.781	17.693	816.743	619.120
364.796	17.888	816.027	619.230
365.810	17.811	815.795	618.721
366.825	17.797	815.459	618.359
367.840	17.847	814.678	617.893
368.854	17.920	814.382	617.880
369.869	17.685	814.241	616.866
370.883	17.755	813.554	616.546
371.898	17.855	813.410	616.743
372.913	17.820	812.834	616.124
373.927	17.941	811.949	615.838
374.942	17.813	812.274	615.566
375.956	17.989	811.873	615.843
376.971	17.905	811.418	615.142
377.986	18.055	810.567	614.980
379.000	18.139	809.931	614.745
380.015	18.066	809.756	614.298
381.029	18.067	808.892	613.591
382.044	18.085	808.158	613.045
383.059	18.167	807.378	612.691
384.073	18.289	806.766	612.609
385.088	17.907	806.681	611.125
386.102	17.929	806.084	610.694
387.117	17.885	805.678	610.179
388.132	17.871	804.865	609.458
389.146	17.949	804.352	609.295
390.161	18.130	803.800	609.465
391.175	18.099	803.499	609.073
392.190	18.044	803.224	608.616
393.205	18.040	802.352	607.886
394.219	17.985	802.228	607.544
395.234	18.059	801.615	607.287
396.248	17.905	801.304	606.453
397.263	17.981	800.996	606.433
398.278	17.980	800.742	606.184
399.292	18.035	800.074	605.821
400.307	18.049	799.484	605.370
401.321	17.992	799.164	604.872
402.336	17.995	798.665	604.453
403.350	18.068	798.378	604.438
404.365	18.187	797.958	604.489
405.380	18.277	797.579	604.468
406.394	18.254	797.105	603.974
407.409	18.511	796.450	604.330
408.423	18.272	796.579	603.530
409.438	18.299	795.882	603.043
410.453	18.345	795.643	602.971
411.467	18.323	795.355	602.623
412.482	18.530	794.558	602.694
413.496	18.618	794.022	602.542
414.511	18.516	794.153	602.229
415.526	18.550	793.328	601.669
416.540	18.625	792.839	601.508
417.555	18.550	792.522	600.952
418.569	18.562	792.098	600.620
419.584	18.527	791.697	600.140
420.599	18.480	791.252	599.584
421.613	156.511	1371.311	1794.865
422.628	135.403	1455.838	1794.966
