DTS Sentinel unit serial number:	SN413079Multiplexer serial number:	ORYXHardware model number:	OX4-SRSoftware version number:	ORYX F/W v4.00 Oryx Data Collector v3.7.2.0data status	okinstallation	princeton_trtdifferential loss correction	single-endedforward channel	channel 1reverse channel	N/Adate	2019/09/12time	12:28:11forward acquisition time	60.00reverse acquisition time	0.00gamma	496.2192k internal	0.2292k external	0.2292temperature offset calibration	1.0046default loss term (dB/km)	0.3790temperature slope calibration	1.0000multiplexer offset coefficient	1.0000multiplexer slope coefficient	1.0000fibre end	0.00T internal ref (°C)	40.50T ext. ref 1 (°C)	1.95T ext. ref 2 (°C)	35.03length (m)	temperature (°C)	Stokes	anti-Stokes-747.200	800.000	0.008	-0.025
-746.185	-84.759	-0.169	0.055
-745.171	78.881	0.217	-0.238
-744.156	332.569	0.158	0.311
-743.142	-6.167	0.215	0.150
-742.127	77.112	-0.242	0.263
-741.112	-57.580	0.032	0.014
-740.098	-200.000	-0.015	0.428
-739.083	-87.457	0.173	0.053
-738.069	-9.331	0.292	0.200
-737.054	-200.000	0.016	-0.286
-736.039	-112.881	-0.307	-0.062
-735.025	-200.000	-0.017	0.126
-734.010	800.000	-0.077	-0.311
-732.996	69.132	-0.284	-0.299
-731.981	-42.396	-0.114	-0.059
-730.966	-22.172	-0.314	0.195
-729.952	77.484	-0.026	0.029
-728.937	505.402	-0.154	-0.366
-727.923	-47.191	-0.272	0.135
-726.908	-200.000	-0.016	-0.118
-725.894	-200.000	-0.014	-0.244
-724.879	800.000	0.004	0.014
-723.864	92.871	-0.062	0.071
-722.850	800.000	-0.066	-0.248
-721.835	-200.000	0.022	-0.305
-720.821	-200.000	-0.037	-0.234
-719.806	800.000	0.020	0.064
-718.791	-46.447	-0.259	-0.130
-717.777	-124.222	-0.186	-0.030
-716.762	-200.000	-0.063	-0.312
-715.748	-10.650	-0.028	-0.019
-714.733	454.431	-0.057	0.128
-713.718	-79.113	-0.432	-0.150
-712.704	-76.049	0.076	-0.028
-711.689	-200.000	0.036	-0.323
-710.675	-200.000	0.019	-0.141
-709.660	-109.211	0.208	-0.045
-708.645	-200.000	-0.005	-0.185
-707.631	765.046	-0.083	-0.230
-706.616	800.000	-0.088	-0.377
-705.602	-200.000	0.004	-0.270
-704.587	45.637	0.217	0.205
-703.572	-200.000	0.024	-0.164
-702.558	300.771	-0.107	0.202
-701.543	21.236	-0.304	0.252
-700.529	265.936	0.117	-0.208
-699.514	-162.108	-0.297	-0.015
-698.499	426.382	0.034	0.075
-697.485	800.000	0.012	-0.048
-696.470	-156.476	-0.271	0.017
-695.456	-200.000	-0.002	0.207
-694.441	30.577	0.101	0.088
-693.426	-104.581	0.090	-0.021
-692.412	202.089	-0.118	-0.185
-691.397	-168.763	0.194	0.007
-690.383	270.444	-0.162	-0.290
-689.368	-45.017	-0.326	0.166
-688.354	-104.352	-0.286	0.068
-687.339	-110.167	0.086	-0.018
-686.324	9.576	-0.198	-0.153
-685.310	-150.943	-0.131	0.010
-684.295	142.932	-0.140	-0.191
-683.281	-112.278	0.335	0.069
-682.266	113.743	0.255	-0.316
-681.251	-58.173	0.233	0.104
-680.237	345.230	0.025	-0.051
-679.222	289.444	-0.107	0.199
-678.208	-86.496	-0.457	0.143
-677.193	-8.400	0.093	0.064
-676.178	75.207	-0.133	-0.143
-675.164	646.647	-0.206	0.536
-674.149	-126.079	-0.054	0.008
-673.135	-200.000	0.021	0.247
-672.120	-144.922	-0.327	-0.031
-671.105	168.908	-0.178	0.259
-670.091	-38.124	-0.168	-0.091
-669.076	51.110	-0.067	0.064
-668.062	-200.000	0.018	-0.082
-667.047	-200.000	0.008	-0.150
-666.032	-114.293	-0.186	0.037
-665.018	275.403	0.105	-0.191
-664.003	-56.792	-0.150	0.068
-662.989	-53.232	0.214	0.100
-661.974	-50.701	0.290	-0.139
-660.959	-200.000	-0.037	-0.177
-659.945	-166.532	-0.259	0.011
-658.930	131.804	-0.306	0.402
-657.916	326.086	0.109	0.212
-656.901	-87.781	-0.080	-0.024
-655.886	-103.479	0.198	0.048
-654.872	46.157	-0.223	-0.211
-653.857	-200.000	-0.016	-0.188
-652.843	-66.291	-0.171	-0.069
-651.828	-200.000	-0.018	-0.229
-650.814	-140.968	0.152	0.016
-649.799	-200.000	0.000	-0.033
-648.784	-91.354	-0.237	-0.069
-647.770	-200.000	-0.046	0.209
-646.755	-83.423	-0.133	-0.044
-645.741	-164.116	-0.219	-0.010
-644.726	800.000	0.054	0.169
-643.711	-161.612	-0.373	0.019
-642.697	196.830	0.051	-0.079
-641.682	594.875	0.028	0.070
-640.668	-43.280	-0.167	-0.086
-639.653	-25.400	0.305	-0.184
-638.638	-182.237	0.236	0.005
-637.624	-51.491	-0.076	0.036
-636.609	800.000	-0.060	-0.202
-635.595	304.462	-0.133	0.251
-634.580	-4.538	-0.051	-0.036
-633.565	661.374	-0.094	-0.247
-632.551	-64.376	-0.305	0.127
-631.536	24.299	-0.162	0.136
-630.522	-151.371	0.257	0.019
-629.507	800.000	0.065	0.202
-628.492	-117.921	-0.108	0.020
-627.478	800.000	0.044	-0.165
-626.463	-103.239	-0.060	-0.014
-625.449	13.293	0.124	-0.098
-624.434	-92.565	-0.170	-0.049
-623.419	238.197	-0.058	0.098
-622.405	95.157	0.167	0.194
-621.390	40.635	-0.244	0.224
-620.376	-64.891	0.262	0.108
-619.361	-39.510	-0.163	-0.087
-618.346	-134.543	-0.167	-0.021
-617.332	104.651	0.113	0.136
-616.317	-55.412	0.188	-0.086
-615.303	-153.011	0.316	-0.023
-614.288	800.000	-0.056	-0.177
-613.273	-107.833	0.270	-0.060
-612.259	800.000	-0.089	0.294
-611.244	178.278	0.138	-0.206
-610.230	-97.949	-0.122	0.032
-609.215	-72.216	-0.406	-0.153
-608.201	-200.000	-0.032	-0.192
-607.186	443.094	-0.076	0.169
-606.171	-130.659	-0.204	0.028
-605.157	-132.466	-0.236	0.031
-604.142	29.477	0.077	-0.067
-603.128	800.000	0.125	-0.448
-602.113	378.074	-0.071	0.147
-601.098	308.707	0.146	-0.277
-600.084	253.230	0.154	-0.268
-599.069	-200.000	-0.006	-0.154
-598.055	-200.000	-0.011	-0.182
-597.040	108.050	-0.176	0.214
-596.025	143.114	-0.073	-0.099
-595.011	64.501	0.176	0.181
-593.996	77.695	-0.308	-0.334
-592.982	287.669	-0.196	-0.361
-591.967	-200.000	-0.021	-0.214
-590.952	-49.626	-0.181	0.088
-589.938	45.851	0.087	-0.082
-588.923	800.000	0.041	0.120
-587.909	220.959	-0.044	0.073
-586.894	70.969	0.170	-0.179
-585.879	105.205	0.048	0.058
-584.865	-33.616	0.101	-0.057
-583.850	-12.927	-0.327	-0.217
-582.836	83.862	0.051	-0.057
-581.821	284.395	-0.113	-0.207
-580.806	-95.916	0.529	0.143
-579.792	-200.000	0.010	0.196
-578.777	254.229	0.144	0.250
-577.763	-111.810	-0.269	-0.055
-576.748	-109.478	0.203	0.044
-575.733	-105.821	-0.166	0.038
-574.719	-200.000	0.008	-0.044
-573.704	324.039	0.192	0.373
-572.690	800.000	-0.098	-0.309
-571.675	81.784	-0.061	0.068
-570.661	82.491	0.236	-0.260
-569.646	-152.360	0.143	0.010
-568.631	-200.000	0.023	-0.352
-567.617	-8.361	0.452	0.309
-566.602	-186.583	-0.171	-0.002
-565.588	305.844	-0.097	0.184
-564.573	539.979	-0.095	0.230
-563.558	157.115	-0.032	0.046
-562.544	101.857	0.256	-0.304
-561.529	-79.310	0.256	0.088
-560.515	-38.286	-0.207	-0.112
-559.500	7.353	0.031	-0.023
-558.485	32.469	-0.103	0.091
-557.471	35.548	-0.096	0.085
-556.456	-200.000	0.015	-0.130
-555.442	498.999	0.088	0.206
-554.427	800.000	0.015	0.053
-553.412	-11.051	-0.235	0.158
-552.398	1.558	0.190	0.139
-551.383	6.341	0.229	-0.173
-550.369	-127.697	-0.160	0.024
-549.354	-143.824	0.120	-0.012
-548.339	-160.973	0.329	0.018
-547.325	66.245	0.047	0.048
-546.310	118.839	-0.049	0.061
-545.296	153.820	0.132	0.183
-544.281	-86.435	0.102	0.032
-543.266	659.829	0.092	0.240
-542.252	428.224	-0.045	-0.098
-541.237	133.244	0.138	-0.181
-540.223	81.604	-0.127	-0.140
-539.208	46.258	0.277	0.261
-538.193	-200.000	0.013	0.635
-537.179	-200.000	-0.015	0.262
-536.164	-124.099	0.196	-0.031
-535.150	-90.928	-0.175	0.051
-534.135	51.625	-0.032	-0.031
-533.121	-84.784	0.128	-0.041
-532.106	309.622	0.069	0.132
-531.091	-44.306	-0.188	0.095
-530.077	-64.401	0.179	-0.074
-529.062	270.761	0.152	0.271
-528.048	81.697	-0.101	0.111
-527.033	-48.230	0.145	-0.071
-526.018	-101.288	-0.167	0.041
-525.004	-200.000	0.054	0.268
-523.989	-170.482	-0.141	-0.005
-522.975	800.000	0.020	-0.076
-521.960	800.000	-0.116	-0.358
-520.945	-95.681	0.207	-0.056
-519.931	9.930	0.236	0.182
-518.916	192.615	-0.124	-0.189
-517.902	694.403	0.043	0.114
-516.887	-115.326	-0.365	0.070
-515.872	-134.149	-0.053	0.007
-514.858	-162.043	0.473	-0.024
-513.843	-200.000	-0.023	-0.263
-512.829	16.283	0.240	-0.192
-511.814	-138.443	-0.110	-0.012
-510.799	-3.252	-0.230	0.162
-509.785	217.781	0.207	0.334
-508.770	9.025	0.069	0.053
-507.756	-88.812	0.023	0.007
-506.741	800.000	0.031	-0.118
-505.726	-84.077	-0.299	0.096
-504.712	-90.599	0.208	0.061
-503.697	356.699	-0.057	0.116
-502.683	115.237	0.103	0.127
-501.668	27.783	0.104	-0.089
-500.653	-200.000	-0.018	-0.244
-499.639	800.000	0.073	0.236
-498.624	252.921	0.088	0.152
-497.610	-78.061	-0.295	-0.103
-496.595	800.000	0.011	0.039
-495.581	1.105	0.148	0.108
-494.566	143.473	-0.253	0.341
-493.551	-106.283	0.121	-0.028
-492.537	-128.040	0.548	-0.080
-491.522	-200.000	0.031	-0.448
-490.508	-200.000	-0.040	0.234
-489.493	286.614	0.027	-0.050
-488.478	4.292	0.125	-0.093
-487.464	-69.322	0.083	0.032
-486.449	507.620	0.090	-0.211
-485.435	396.091	-0.157	0.332
-484.420	-4.820	0.175	0.123
-483.405	-5.348	-0.213	0.148
-482.391	748.738	-0.098	0.267
-481.376	168.388	-0.040	-0.058
-480.362	-90.781	0.094	0.028
-479.347	735.740	-0.083	0.224
-478.332	-47.350	-0.138	0.068
-477.318	-141.300	-0.221	-0.023
-476.303	62.425	-0.059	0.060
-475.289	-200.000	0.051	-0.553
-474.274	-140.742	-0.208	0.022
-473.259	-200.000	-0.044	0.319
-472.245	800.000	-0.054	-0.222
-471.230	194.487	-0.102	0.157
-470.216	572.504	0.082	-0.201
-469.201	201.705	-0.102	0.159
-468.186	-18.822	-0.203	0.128
-467.172	-200.000	-0.058	-0.306
-466.157	236.862	-0.129	0.216
-465.143	470.315	0.047	-0.106
-464.128	-128.691	0.068	-0.010
-463.113	30.788	-0.134	-0.116
-462.099	800.000	-0.046	-0.168
-461.084	8.290	-0.210	0.159
-460.070	-200.000	-0.003	-0.209
-459.055	-68.828	-0.066	-0.026
-458.040	395.800	-0.085	0.179
-457.026	195.463	0.110	-0.169
-456.011	800.000	0.031	0.112
-454.997	-200.000	-0.050	-0.318
-453.982	-200.000	0.030	0.282
-452.968	-128.578	-0.423	-0.061
-451.953	46.245	0.247	-0.232
-450.938	-200.000	0.048	-0.265
-449.924	62.478	0.232	0.234
-448.909	-130.107	-0.267	0.037
-447.895	-177.793	0.276	0.007
-446.880	-200.000	0.008	0.144
-445.865	614.847	-0.070	0.178
-444.851	34.023	0.190	0.167
-443.836	386.736	0.120	0.251
-442.822	-200.000	0.017	0.330
-441.807	-56.470	0.194	-0.087
-440.792	800.000	-0.016	0.045
-439.778	-200.000	0.005	0.245
-438.763	-154.210	0.201	0.014
-437.749	-200.000	0.029	-0.410
-436.734	743.455	0.033	-0.091
-435.719	-147.829	-0.412	0.035
-434.705	98.397	0.172	-0.200
-433.690	480.161	0.099	-0.227
-432.676	-170.278	0.057	-0.002
-431.661	171.499	0.055	-0.079
-430.646	-161.655	-0.564	-0.029
-429.632	79.699	0.215	0.233
-428.617	-37.777	0.247	-0.133
-427.603	150.412	-0.067	-0.092
-426.588	-200.000	0.056	0.291
-425.573	-141.608	0.129	-0.013
-424.559	-200.000	0.008	-0.099
-423.544	-60.587	-0.034	-0.014
-422.530	179.586	-0.169	-0.250
-421.515	38.011	-0.253	-0.227
-420.500	-61.675	0.185	-0.078
-419.486	170.311	0.124	-0.180
-418.471	-200.000	-0.014	0.319
-417.457	-200.000	0.011	0.192
-416.442	800.000	0.083	0.330
-415.428	-200.000	-0.027	0.212
-414.413	-148.102	-0.123	0.010
-413.398	328.509	0.131	0.255
-412.384	112.835	0.064	-0.078
-411.369	-59.828	0.246	-0.106
-410.355	-141.269	0.192	0.020
-409.340	150.353	0.206	0.283
-408.325	800.000	-0.072	-0.230
-407.311	-25.862	0.136	0.081
-406.296	-200.000	0.001	-0.167
-405.282	187.855	0.213	0.321
-404.267	711.752	0.117	0.312
-403.252	-87.350	-0.343	0.105
-402.238	47.621	0.266	0.251
-401.223	346.867	0.037	-0.074
-400.209	-200.000	0.021	0.194
-399.194	800.000	-0.056	-0.183
-398.179	-118.859	-0.105	0.019
-397.165	-39.980	0.089	0.047
-396.150	-200.000	0.037	0.168
-395.136	492.306	-0.060	0.138
-394.121	-83.088	-0.162	-0.053
-393.106	134.057	0.011	0.014
-392.092	-200.000	-0.015	0.180
-391.077	-85.396	0.129	0.041
-390.063	800.000	0.032	0.127
-389.048	140.811	-0.028	0.038
-388.033	200.635	-0.216	-0.335
-387.019	145.685	0.216	-0.293
-386.004	-157.751	-0.290	0.017
-384.990	-90.994	-0.323	-0.094
-383.975	12.308	-0.210	-0.164
-382.960	-200.000	-0.037	-0.212
-381.946	-47.418	0.069	-0.034
-380.931	-200.000	0.009	-0.326
-379.917	-128.182	-0.562	0.081
-378.902	-107.724	-0.233	0.051
-377.888	-102.428	0.072	-0.017
-376.873	-96.586	-0.396	0.105
-375.858	-56.003	0.141	0.063
-374.844	-151.169	0.302	-0.023
-373.829	-200.000	0.022	-0.105
-372.815	148.950	-0.036	0.049
-371.800	-136.842	0.129	-0.015
-370.785	-54.286	-0.380	-0.174
-369.771	41.969	-0.084	0.077
-368.756	20.358	-0.199	-0.162
-367.742	800.000	-0.082	0.326
-366.727	262.786	-0.164	-0.288
-365.712	-73.344	0.076	-0.028
-364.698	177.507	-0.035	-0.052
-363.683	-108.153	0.171	0.037
-362.669	-157.793	-0.267	-0.016
-361.654	190.181	0.093	-0.141
-360.639	-200.000	-0.021	0.153
-359.625	318.678	0.229	0.438
-358.610	-200.000	-0.004	0.237
-357.596	59.026	-0.082	-0.081
-356.581	-200.000	0.000	-0.210
-355.566	800.000	-0.063	-0.233
-354.552	-2.113	-0.083	-0.059
-353.537	-131.397	-0.101	-0.013
-352.523	254.279	-0.036	0.062
-351.508	-6.828	0.273	0.187
-350.493	-193.489	0.097	-0.001
-349.479	-194.868	-0.127	-0.001
-348.464	26.224	-0.125	-0.105
-347.450	-130.174	0.043	-0.006
-346.435	-44.263	-0.293	-0.148
-345.420	-200.000	-0.081	0.377
-344.406	393.931	0.169	0.356
-343.391	-179.419	-0.326	-0.007
-342.377	-72.450	0.119	-0.044
-341.362	220.265	-0.120	0.193
-340.348	-1.283	0.287	-0.204
-339.333	-200.000	-0.000	-0.125
-338.318	49.440	0.133	-0.127
-337.304	250.697	0.079	-0.136
-336.289	379.127	-0.154	-0.318
-335.275	-200.000	0.045	-0.255
-334.260	-200.000	-0.018	-0.145
-333.245	-26.216	-0.224	0.132
-332.231	-200.000	-0.016	-0.184
-331.216	-31.265	-0.066	-0.038
-330.202	23.020	0.031	0.025
-329.187	-39.432	0.149	-0.079
-328.172	-121.246	0.010	-0.002
-327.158	82.921	-0.095	0.105
-326.143	645.479	0.049	0.126
-325.129	294.942	0.229	-0.421
-324.114	123.934	-0.161	0.203
-323.099	-200.000	-0.004	0.099
-322.085	-200.000	-0.052	0.587
-321.070	-125.198	0.331	0.051
-320.056	64.788	-0.353	-0.359
-319.041	33.603	-0.255	0.223
-318.026	800.000	-0.035	-0.127
-317.012	800.000	0.003	0.013
-315.997	-200.000	0.007	-0.047
-314.983	-200.000	0.043	0.286
-313.968	-88.105	-0.143	0.043
-312.953	-200.000	0.039	-0.276
-311.939	230.765	-0.154	-0.254
-310.924	-124.775	-0.235	0.037
-309.910	80.624	0.044	0.048
-308.895	73.001	0.079	0.083
-307.880	195.626	-0.086	0.132
-306.866	147.531	-0.175	0.238
-305.851	289.038	0.071	-0.129
-304.837	760.861	-0.087	-0.238
-303.822	800.000	0.016	-0.066
-302.807	9.560	0.190	-0.145
-301.793	42.563	-0.144	-0.132
-300.778	98.595	0.112	-0.130
-299.764	800.000	-0.046	0.140
-298.749	465.405	-0.061	0.138
-297.735	281.126	-0.139	-0.250
-296.720	-36.541	0.274	-0.149
-295.705	-200.000	0.004	0.119
-294.691	-84.591	0.278	0.088
-293.676	-91.416	0.170	0.049
-292.662	-142.328	-0.199	0.020
-291.647	253.096	-0.042	-0.071
-290.632	-137.828	0.134	0.015
-289.618	164.387	0.117	-0.165
-288.603	194.094	-0.121	0.185
-287.589	-22.662	0.167	-0.101
-286.574	1.205	0.175	-0.126
-285.559	-35.771	0.101	-0.055
-284.545	-200.000	-0.023	0.253
-283.530	-93.515	-0.150	-0.042
-282.516	-87.526	0.084	-0.026
-281.501	61.173	0.162	-0.162
-280.486	-200.000	0.015	-0.068
-279.472	-200.000	-0.011	-0.199
-278.457	-200.000	-0.036	-0.235
-277.443	5.544	0.070	-0.052
-276.428	-24.440	0.222	-0.133
-275.413	-200.000	-0.035	-0.160
-274.399	-35.008	-0.059	-0.032
-273.384	25.638	0.017	-0.014
-272.370	800.000	0.059	0.223
-271.355	-200.000	-0.002	-0.024
-270.340	168.361	0.114	-0.164
-269.326	-123.429	0.167	-0.027
-268.311	-63.261	-0.382	0.158
-267.297	-62.680	-0.123	-0.051
-266.282	-181.370	0.088	-0.002
-265.267	223.332	0.206	-0.333
-264.253	549.739	-0.097	-0.233
-263.238	800.000	0.077	0.330
-262.224	-97.210	-0.237	0.062
-261.209	-200.000	-0.020	0.168
-260.195	-142.761	0.213	-0.021
-259.180	142.647	-0.171	0.228
-258.165	-200.000	-0.017	0.125
-257.151	104.207	-0.081	-0.096
-256.136	-25.804	0.275	-0.163
-255.122	-129.119	-0.156	0.022
-254.107	-70.846	0.097	0.037
-253.092	-122.408	0.238	0.039
-252.078	-46.004	-0.249	0.123
-251.063	800.000	-0.083	-0.287
-250.049	16.293	0.217	0.172
-249.034	51.185	0.165	-0.157
-248.019	17.395	-0.146	-0.116
-247.005	-160.233	0.292	-0.016
-245.990	76.354	-0.053	-0.056
-244.976	185.398	0.160	0.238
-243.961	155.768	0.048	0.067
-242.946	134.338	-0.083	0.108
-241.932	-121.402	0.158	0.026
-240.917	-82.080	-0.196	-0.064
-239.903	637.669	0.065	-0.165
-238.888	-200.000	-0.011	-0.101
-237.873	-21.165	0.199	-0.122
-236.859	-66.342	-0.125	0.050
-235.844	-200.000	0.006	0.152
-234.830	-66.992	-0.129	-0.051
-233.815	471.798	0.041	0.093
-232.800	22.973	-0.242	0.200
-231.786	-130.534	0.214	-0.029
-230.771	155.224	-0.081	0.112
-229.757	-200.000	0.026	0.128
-228.742	-109.101	0.458	0.098
-227.727	108.646	0.173	-0.207
-226.713	-157.584	0.142	0.009
-225.698	636.783	-0.042	0.107
-224.684	-171.037	0.328	0.011
-223.669	-60.994	0.259	0.110
-222.655	-90.607	-0.221	-0.064
-221.640	69.742	-0.139	-0.143
-220.625	192.517	0.103	-0.155
-219.611	43.444	0.117	0.107
-218.596	-135.498	0.214	0.026
-217.582	44.855	-0.250	0.231
-216.567	800.000	0.051	0.212
-215.552	36.033	0.206	-0.182
-214.538	85.044	-0.058	-0.064
-213.523	115.953	0.038	0.046
-212.509	12.373	-0.163	0.126
-211.494	263.392	0.172	-0.300
-210.479	-78.651	-0.211	0.072
-209.465	-200.000	-0.031	-0.291
-208.450	-139.876	-0.311	0.033
-207.436	13.230	-0.250	0.194
-206.421	-4.182	-0.225	0.156
-205.406	77.444	0.106	0.113
-204.392	0.004	-0.290	-0.207
-203.377	-104.744	-0.233	-0.054
-202.363	-154.349	0.147	-0.010
-201.348	0.124	0.186	-0.133
-200.333	-200.000	0.063	0.325
-199.319	800.000	-0.041	-0.169
-198.304	-30.027	0.014	-0.008
-197.290	-164.531	-0.120	-0.005
-196.275	-93.531	-0.298	-0.083
-195.260	-200.000	0.040	0.293
-194.246	-182.049	-0.269	0.005
-193.231	-164.078	0.263	0.012
-192.217	-58.207	-0.147	-0.064
-191.202	-113.177	-0.245	-0.048
-190.187	-200.000	-0.065	-0.463
-189.173	-200.000	-0.014	-0.110
-188.158	6.449	0.331	-0.246
-187.144	800.000	-0.089	-0.252
-186.129	800.000	-0.112	-0.318
-185.114	-200.000	0.021	0.093
-184.100	-167.113	-0.050	-0.002
-183.085	21.567	-0.197	-0.160
-182.071	41.137	0.332	0.300
-181.056	515.271	-0.112	0.262
-180.042	-69.920	0.165	-0.063
-179.027	-200.000	0.027	-0.328
-178.012	800.000	-0.032	-0.109
-176.998	-200.000	-0.012	0.433
-175.983	216.846	-0.061	0.097
-174.969	-87.075	0.118	0.036
-173.954	-18.404	0.190	0.119
-172.939	-200.000	-0.047	-0.222
-171.925	45.343	0.209	-0.193
-170.910	-130.908	0.146	-0.020
-169.896	244.995	-0.068	0.115
-168.881	73.760	-0.049	0.051
-167.866	-7.187	-0.138	0.094
-166.852	202.133	0.100	0.155
-165.837	-200.000	-0.022	-0.406
-164.823	306.028	-0.102	-0.191
-163.808	-118.164	0.128	0.023
-162.793	66.227	0.180	0.183
-161.779	-32.834	-0.274	0.152
-160.764	156.410	0.145	-0.200
-159.750	800.000	0.068	0.201
-158.735	-12.035	-0.230	0.151
-157.720	81.739	-0.094	0.102
-156.706	-144.670	0.202	-0.019
-155.691	-90.405	0.405	0.118
-154.677	-200.000	0.033	-0.256
-153.662	373.527	-0.066	-0.134
-152.647	-115.126	-0.136	0.026
-151.633	-90.899	-0.197	-0.057
-150.618	-62.049	0.300	0.125
-149.604	-115.505	0.151	-0.028
-148.589	143.080	-0.071	-0.095
-147.574	-143.859	0.340	0.032
-146.560	-87.047	0.247	0.075
-145.545	3.205	0.057	0.042
-144.531	306.436	-0.200	0.372
-143.516	-58.671	0.435	0.188
-142.502	-72.040	0.178	-0.066
-141.487	11.032	-0.139	0.106
-140.472	-116.414	0.244	0.045
-139.458	28.470	0.244	0.206
-138.443	-85.102	-0.102	-0.032
-137.429	-97.431	-0.487	-0.127
-136.414	-187.798	0.121	-0.002
-135.399	-86.558	0.200	0.061
-134.385	365.200	0.030	0.060
-133.370	-200.000	0.071	0.392
-132.356	800.000	0.076	-0.235
-131.341	101.130	0.147	0.170
-130.326	-11.547	0.152	-0.100
-129.312	18.847	0.091	0.073
-128.297	505.314	0.083	-0.191
-127.283	94.945	-0.036	-0.041
-126.268	-112.043	-0.276	-0.056
-125.253	-0.705	0.210	0.149
-124.239	-200.000	-0.051	-0.367
-123.224	800.000	-0.017	0.073
-122.210	179.745	-0.161	-0.235
-121.195	203.484	0.205	0.317
-120.180	-75.270	-0.215	0.077
-119.166	87.580	0.134	0.149
-118.151	70.797	0.043	-0.044
-117.137	-70.843	0.305	0.115
-116.122	200.648	0.092	0.141
-115.107	-58.782	0.358	0.155
-114.093	-18.789	0.379	0.236
-113.078	43.490	0.114	0.104
-112.064	-43.370	0.251	-0.127
-111.049	-0.546	0.369	0.262
-110.034	101.905	0.124	-0.144
-109.020	-13.943	0.084	0.054
-108.005	-200.000	0.041	0.340
-106.991	-90.697	0.187	0.054
-105.976	44.454	-0.130	0.120
-104.962	800.000	-0.058	-0.211
-103.947	42.663	-0.248	-0.226
-102.932	-200.000	-0.021	0.296
-101.918	376.633	-0.068	-0.138
-100.903	-127.469	-0.342	0.050
-99.889	-200.000	-0.004	-0.168
-98.874	14.955	-0.302	-0.236
-97.859	-200.000	-0.037	0.345
-96.845	-200.000	0.023	-0.149
-95.830	-93.225	0.219	0.061
-94.816	45.322	-0.019	-0.017
-93.801	-200.000	0.007	-0.099
-92.786	-97.676	-0.037	0.010
-91.772	17.362	0.158	0.125
-90.757	-200.000	-0.033	-0.283
-89.743	-70.524	-0.209	-0.079
-88.728	-43.491	-0.226	-0.114
-87.713	43.386	0.239	0.218
-86.699	22.136	0.076	-0.062
-85.684	147.158	-0.205	0.275
-84.670	203.304	-0.177	0.273
-83.655	-134.574	0.031	-0.004
-82.640	-200.000	0.015	0.145
-81.626	-200.000	0.010	0.215
-80.611	-97.768	0.234	0.060
-79.597	-200.000	-0.015	0.101
-78.582	323.971	0.025	-0.047
-77.567	-24.935	0.150	0.089
-76.553	213.177	0.119	-0.187
-75.538	-200.000	-0.030	-0.223
-74.524	-99.662	-0.151	0.038
-73.509	-200.000	-0.001	-0.067
-72.494	-16.936	0.044	-0.028
-71.480	33.952	-0.253	-0.219
-70.465	114.046	0.066	-0.080
-69.451	800.000	0.052	-0.171
-68.436	50.720	-0.112	0.106
-67.422	284.673	-0.079	0.143
-66.407	121.028	-0.291	-0.362
-65.392	-200.000	0.039	0.182
-64.378	-26.264	-0.067	0.039
-63.363	12.024	-0.254	0.194
-62.349	237.841	-0.066	0.109
-61.334	60.136	-0.743	-0.732
-60.319	-48.395	0.558	0.268
-59.305	-200.000	-0.030	-0.656
-58.290	-21.521	0.476	0.289
-57.276	-200.000	0.182	1.648
-56.261	-200.000	77.130	512.732
-55.246	508.824	1338.673	3098.626
-54.232	145.129	2570.438	3426.551
-53.217	116.082	2235.011	2726.862
-52.203	52.241	1680.725	1596.742
-51.188	44.251	1405.710	1285.124
-50.173	40.687	1359.735	1221.171
-49.159	59.034	1395.397	1367.502
-48.144	65.520	1414.324	1426.216
-47.130	44.649	1376.813	1260.972
-46.115	40.603	1360.282	1220.946
-45.100	40.259	1356.409	1215.309
-44.086	40.342	1353.692	1213.340
-43.071	40.285	1351.555	1211.023
-42.057	40.312	1348.922	1208.785
-41.042	40.283	1347.194	1207.010
-40.027	40.512	1345.399	1206.749
-39.013	40.439	1343.625	1204.664
-37.998	40.447	1341.744	1202.978
-36.984	40.474	1339.742	1201.300
-35.969	40.579	1337.717	1200.070
-34.954	40.625	1335.949	1198.718
-33.940	40.603	1334.851	1197.553
-32.925	40.687	1333.181	1196.509
-31.911	40.682	1331.569	1194.989
-30.896	40.635	1330.612	1193.801
-29.881	40.610	1329.565	1192.659
-28.867	40.594	1327.930	1191.054
-27.852	40.633	1325.972	1189.480
-26.838	40.634	1324.781	1188.373
-25.823	40.612	1323.213	1186.784
-24.809	40.538	1322.286	1185.465
-23.794	40.619	1320.737	1184.514
-22.779	40.570	1318.940	1182.564
-21.765	40.552	1317.609	1181.216
-20.750	40.581	1316.794	1180.611
-19.736	40.401	1315.485	1178.321
-18.721	40.530	1313.566	1177.321
-17.706	40.377	1312.884	1175.751
-16.692	40.413	1312.046	1175.172
-15.677	40.346	1310.948	1173.740
-14.663	40.374	1309.585	1172.645
-13.648	40.395	1308.582	1171.821
-12.633	40.313	1307.582	1170.397
-11.619	40.424	1306.560	1170.091
-10.604	40.468	1305.896	1169.707
-9.590	40.406	1304.587	1168.124
-8.575	40.423	1303.382	1167.096
-7.560	40.440	1302.840	1166.666
-6.546	40.456	1301.590	1165.594
-5.531	40.367	1300.989	1164.486
-4.517	40.441	1299.734	1163.756
-3.502	40.435	1298.805	1162.839
-2.487	40.380	1298.013	1161.761
-1.473	40.489	1293.952	1158.718
-0.458	39.112	1279.102	1137.409
0.556	35.151	1258.495	1093.135
1.571	30.877	1261.799	1071.389
2.586	29.455	1277.035	1075.948
3.600	28.253	1266.629	1060.128
4.615	20.661	1188.634	953.330
5.629	8.342	1103.970	822.271
6.644	2.384	1080.145	774.369
7.659	1.917	1077.417	769.984
8.673	1.805	1075.348	767.876
9.688	1.705	1074.002	766.343
10.702	2.043	1073.067	767.308
11.717	8.838	1083.088	808.793
12.731	20.027	1099.398	877.925
13.746	25.034	1105.313	908.011
14.761	25.293	1105.583	909.463
15.775	25.289	1105.253	909.094
16.790	25.043	1104.303	906.987
17.804	24.896	1103.894	905.828
18.819	25.175	1102.995	906.421
19.834	25.281	1102.597	906.546
20.848	25.217	1102.612	906.157
21.863	25.331	1101.625	905.838
22.877	25.260	1101.208	905.061
23.892	25.210	1100.255	903.943
24.907	25.175	1099.601	903.152
25.921	25.186	1098.510	902.228
26.936	25.104	1097.211	900.670
27.950	25.141	1095.451	899.332
28.965	25.023	1093.871	897.367
29.980	25.103	1091.892	896.061
30.994	25.315	1091.259	896.522
32.009	25.321	1090.141	895.552
33.023	25.085	1089.133	893.469
34.038	25.162	1088.386	893.161
35.053	25.170	1087.906	892.728
36.067	25.118	1087.499	892.057
37.082	25.280	1086.462	891.933
38.096	25.555	1085.644	892.548
39.111	25.543	1084.892	891.790
40.126	25.333	1083.163	889.253
41.140	24.994	1081.437	886.078
42.155	24.753	1080.321	883.895
43.169	24.887	1079.320	883.663
44.184	24.883	1077.884	882.385
45.199	24.683	1077.589	881.079
46.213	24.914	1076.477	881.230
47.228	24.961	1076.060	881.042
48.242	25.008	1074.955	880.290
49.257	25.153	1073.941	880.093
50.271	25.298	1073.341	880.238
51.286	25.376	1072.231	879.629
52.301	25.243	1071.892	878.622
53.315	25.055	1070.944	876.848
54.330	25.096	1069.972	876.176
55.344	25.347	1068.745	876.320
56.359	25.150	1068.386	874.983
57.374	24.884	1067.549	872.924
58.388	24.929	1066.855	872.502
59.403	24.838	1065.957	871.244
60.417	24.714	1064.843	869.655
61.432	24.848	1064.084	869.608
62.447	25.038	1063.635	870.085
63.461	24.929	1063.026	868.983
64.476	24.849	1062.077	867.741
65.490	24.855	1060.625	866.510
66.505	24.978	1060.025	866.539
67.520	24.880	1059.732	865.747
68.534	24.667	1058.587	863.707
69.549	24.311	1057.485	861.013
70.563	24.264	1057.192	860.469
71.578	24.394	1055.765	859.861
72.593	24.308	1054.770	858.558
73.607	24.401	1054.255	858.513
74.622	24.616	1054.157	859.388
75.636	24.736	1053.128	859.051
76.651	24.527	1052.278	857.281
77.666	24.345	1051.751	855.900
78.680	24.557	1051.113	856.322
79.695	24.725	1050.360	856.438
80.709	24.861	1049.010	855.911
81.724	24.796	1048.819	855.367
82.739	24.809	1048.252	854.891
83.753	25.232	1047.597	856.303
84.768	25.484	1046.884	856.845
85.782	25.575	1046.019	856.493
86.797	25.360	1045.378	854.868
87.812	25.296	1044.190	853.517
88.826	25.412	1043.299	853.265
89.841	25.521	1042.211	852.821
90.855	25.531	1041.181	851.946
91.870	25.400	1040.497	850.693
92.884	25.274	1039.149	848.921
93.899	25.279	1038.082	847.995
94.914	25.390	1037.571	848.026
95.928	25.318	1036.402	846.655
96.943	25.082	1035.271	844.544
97.957	24.751	1033.887	841.788
98.972	24.738	1032.572	840.579
99.987	24.976	1032.122	841.255
101.001	25.197	1031.449	841.670
102.016	25.082	1030.804	840.531
103.030	25.126	1029.333	839.461
104.045	24.812	1028.651	837.363
105.060	24.749	1027.137	835.763
106.074	24.799	1027.327	836.077
107.089	25.180	1026.614	837.200
108.103	25.078	1025.251	835.541
109.118	24.877	1024.097	833.591
110.133	24.877	1023.221	832.802
111.147	24.740	1021.993	831.093
112.162	24.681	1021.033	829.964
113.176	24.896	1020.248	830.249
114.191	24.861	1019.741	829.600
115.206	24.440	1018.400	826.489
116.220	24.465	1017.568	825.856
117.235	24.622	1016.970	826.025
118.249	24.587	1016.236	825.194
119.264	24.410	1015.322	823.559
120.279	24.548	1014.709	823.625
121.293	24.585	1013.658	822.874
122.308	24.600	1012.884	822.239
123.322	24.525	1011.584	820.767
124.337	24.410	1010.049	818.921
125.352	23.931	1008.384	815.303
126.366	23.836	1007.563	814.132
127.381	24.568	1007.724	817.544
128.395	25.014	1007.417	819.262
129.410	25.174	1006.386	819.082
130.424	25.093	1005.819	818.178
131.439	25.163	1004.326	817.211
132.454	25.165	1003.619	816.569
133.468	24.979	1002.811	814.995
134.483	25.147	1002.036	815.059
135.497	25.444	1000.977	815.470
136.512	25.392	1000.402	814.695
137.527	25.413	999.689	814.139
138.541	25.371	998.912	813.244
139.556	25.520	997.772	812.917
140.570	25.470	997.498	812.395
141.585	25.480	996.403	811.476
142.600	25.325	995.617	810.067
143.614	25.642	994.615	810.607
144.629	25.724	994.088	810.475
145.643	25.714	992.204	808.821
146.658	25.372	991.035	806.262
147.673	25.365	990.085	805.387
148.687	25.235	989.049	803.892
149.702	25.031	988.481	802.445
150.716	25.123	987.215	801.757
151.731	25.248	986.560	801.714
152.746	25.433	986.275	802.234
153.760	25.609	985.236	802.104
154.775	25.563	984.775	801.454
155.789	25.550	983.831	800.555
156.804	25.362	983.206	799.140
157.819	25.504	982.574	799.189
158.833	25.714	981.786	799.407
159.848	25.637	980.876	798.255
160.862	25.490	979.570	796.468
161.877	25.434	978.654	795.408
162.892	25.470	977.639	794.671
163.906	25.416	976.627	793.540
164.921	25.430	975.595	792.692
165.935	25.578	974.800	792.629
166.950	25.398	974.260	791.328
167.964	25.488	972.928	790.571
168.979	25.377	972.020	789.277
169.994	25.248	971.015	787.823
171.008	25.538	970.413	788.540
172.023	25.606	969.212	787.788
173.037	25.392	968.459	786.173
174.052	25.163	967.968	784.702
175.067	25.310	966.881	784.392
176.081	25.400	966.202	784.167
177.096	25.341	966.248	783.874
178.110	24.980	964.961	781.188
179.125	24.827	964.445	780.035
180.140	24.915	963.535	779.612
181.154	25.059	963.176	779.881
182.169	25.420	963.198	781.399
183.183	25.543	962.783	781.528
184.198	25.392	961.777	779.987
185.213	25.472	961.050	779.674
186.227	25.546	960.082	779.143
187.242	25.487	959.620	778.442
188.256	25.634	958.965	778.478
189.271	25.627	958.263	777.811
190.286	25.377	956.864	775.524
191.300	24.715	955.509	771.506
192.315	23.924	953.606	766.493
193.329	23.837	953.604	766.049
194.344	24.744	954.290	770.442
195.359	25.266	954.427	772.731
196.373	25.301	953.853	772.347
197.388	25.339	953.015	771.765
198.402	25.464	952.191	771.564
199.417	25.372	951.940	770.898
200.432	25.169	950.989	769.188
201.446	24.950	950.136	767.496
202.461	25.088	949.626	767.603
203.475	24.292	947.278	762.236
204.490	23.482	946.048	757.721
205.504	24.354	946.695	761.897
206.519	25.019	946.604	764.597
207.534	24.905	946.502	763.959
208.548	25.241	946.179	765.067
209.563	25.149	945.141	763.764
210.577	25.172	943.918	762.806
211.592	25.632	944.106	764.850
212.607	25.611	943.326	764.061
213.621	25.551	942.561	763.117
214.636	25.658	941.923	762.986
215.650	25.415	941.379	761.450
216.665	25.745	940.298	761.905
217.680	25.653	939.758	761.010
218.694	25.265	938.572	758.345
219.709	25.089	937.923	757.007
220.723	25.260	937.586	757.394
221.738	25.570	936.604	757.839
222.753	25.336	936.570	756.756
223.767	25.556	935.875	757.055
224.782	25.727	935.453	757.365
225.796	25.754	934.816	756.897
226.811	25.019	933.440	752.630
227.826	24.252	932.521	748.603
228.840	24.494	931.889	749.043
229.855	24.582	931.298	748.872
230.869	24.276	929.745	746.275
231.884	24.622	930.400	748.184
232.899	25.399	930.338	751.321
233.913	25.447	929.208	750.540
234.928	25.341	928.908	749.790
235.942	25.314	927.999	748.877
236.957	24.872	927.590	746.640
237.972	25.023	926.962	746.696
238.986	25.124	926.218	746.452
240.001	25.029	925.777	745.634
241.015	25.066	925.267	745.310
242.030	25.484	924.203	746.123
243.045	25.435	924.333	745.959
244.059	25.468	924.172	745.900
245.074	25.384	922.572	744.194
246.088	25.194	921.462	742.446
247.103	25.362	921.507	743.115
248.117	25.851	922.084	745.539
249.132	26.138	921.167	745.916
250.147	26.193	920.744	745.734
251.161	26.404	920.086	746.004
252.176	26.287	919.914	745.318
253.190	26.381	918.928	744.841
254.205	26.424	918.790	744.842
255.220	26.530	918.074	744.628
256.234	26.413	916.999	743.210
257.249	26.193	916.683	741.986
258.263	26.217	916.012	741.475
259.278	26.379	915.147	741.374
260.293	26.443	914.670	741.183
261.307	26.331	913.850	739.996
262.322	25.988	913.339	738.114
263.336	25.324	911.394	733.764
264.351	24.259	909.364	727.718
265.366	24.376	909.068	727.894
266.380	25.427	909.821	732.721
267.395	25.977	909.550	734.681
268.409	25.751	908.927	733.191
269.424	25.997	908.103	733.464
270.439	26.037	907.675	733.214
271.453	26.283	906.781	733.428
272.468	26.331	906.739	733.521
273.482	26.401	906.036	733.172
274.497	26.058	904.882	730.786
275.512	25.528	903.952	727.822
276.526	26.019	903.949	729.745
277.541	26.160	903.705	730.052
278.555	25.945	903.058	728.597
279.570	25.884	901.837	727.299
280.585	25.967	901.516	727.313
281.599	26.115	900.333	726.889
282.614	25.373	899.345	723.040
283.628	25.426	898.637	722.621
284.643	25.843	898.793	724.362
285.657	25.304	897.527	721.110
286.672	25.035	896.454	719.107
287.687	25.580	896.890	721.580
288.701	25.825	895.913	721.711
289.716	25.489	895.213	719.737
290.730	25.362	894.654	718.717
291.745	24.975	893.695	716.338
292.760	25.294	893.787	717.620
293.774	26.358	894.074	722.043
294.789	26.685	893.533	722.846
295.803	26.732	893.023	722.557
296.818	26.765	892.251	721.997
297.833	26.336	890.941	719.168
298.847	26.042	890.504	717.582
299.862	26.434	890.498	719.073
300.876	26.693	890.006	719.643
301.891	26.546	889.190	718.332
302.906	26.284	888.199	716.431
303.920	26.205	888.239	716.087
304.935	26.548	888.111	717.278
305.949	26.530	887.257	716.454
306.964	26.354	886.081	714.748
307.979	26.494	885.684	714.914
308.993	26.762	885.685	715.911
310.008	26.754	884.935	715.211
311.022	26.466	884.076	713.318
312.037	26.474	883.520	712.838
313.052	26.092	882.437	710.398
314.066	25.175	881.201	705.735
315.081	24.997	880.167	704.142
316.095	25.753	880.942	707.675
317.110	26.183	880.742	709.141
318.125	25.380	879.007	704.532
319.139	24.408	877.426	699.394
320.154	24.448	877.135	699.255
321.168	25.289	877.460	702.751
322.183	25.950	877.671	705.445
323.197	26.184	877.348	706.037
324.212	26.410	876.924	706.514
325.227	26.478	876.538	706.409
326.241	26.274	875.664	704.845
327.256	26.146	875.040	703.781
328.270	26.067	874.049	702.615
329.285	26.016	873.483	701.901
330.300	25.789	872.380	700.068
331.314	25.901	872.200	700.297
332.329	26.421	872.422	702.433
333.343	26.464	872.353	702.483
334.358	26.512	871.255	701.721
335.373	26.519	871.111	701.571
336.387	26.798	871.306	702.747
337.402	26.893	870.930	702.752
338.416	26.915	870.263	702.236
339.431	27.084	869.904	702.536
340.446	27.223	870.075	703.149
341.460	26.986	869.489	701.699
342.475	26.808	868.853	700.436
343.489	26.932	868.385	700.475
344.504	27.197	868.064	701.179
345.519	27.371	867.701	701.493
346.533	27.331	867.225	700.893
347.548	27.335	866.544	700.294
348.562	27.277	866.089	699.640
349.577	27.289	865.338	699.018
350.592	27.161	864.851	698.072
351.606	27.192	864.211	697.611
352.621	27.023	863.688	696.482
353.635	27.053	862.223	695.354
354.650	26.427	860.553	691.550
355.665	25.612	859.006	687.135
356.679	25.864	859.038	688.061
357.694	26.249	859.379	689.744
358.708	26.242	858.108	688.636
359.723	26.686	858.006	690.186
360.738	26.737	857.978	690.295
361.752	27.048	857.494	691.028
362.767	27.381	857.113	691.928
363.781	27.731	856.526	692.724
364.796	27.683	856.238	692.245
365.810	27.798	855.818	692.281
366.825	27.785	855.426	691.855
367.840	27.418	854.546	689.691
368.854	26.996	853.695	687.347
369.869	26.944	853.544	686.968
370.883	27.011	852.833	686.587
371.898	26.929	852.713	686.120
372.913	27.042	852.239	686.104
373.927	27.207	851.726	686.254
374.942	27.235	851.637	686.227
375.956	27.501	850.904	686.579
376.971	27.508	850.567	686.272
377.986	27.589	850.087	686.127
379.000	27.616	849.516	685.708
380.015	27.546	848.747	684.764
381.029	27.406	848.488	683.967
382.044	27.552	847.849	683.942
383.059	27.676	847.293	683.897
384.073	27.750	846.427	683.416
385.088	27.688	845.613	682.463
386.102	27.349	845.595	681.123
387.117	27.423	844.524	680.475
388.132	27.018	843.293	677.912
389.146	26.573	842.480	675.537
390.161	27.053	842.335	677.151
391.175	27.391	842.143	678.198
392.190	27.114	841.224	676.367
393.205	25.514	839.614	669.060
394.219	24.177	837.100	662.036
395.234	24.060	837.095	661.537
396.248	25.685	838.598	668.709
397.263	27.152	839.407	674.747
398.278	27.000	839.016	673.810
399.292	26.937	838.118	672.794
400.307	26.913	837.477	672.133
401.321	27.070	837.106	672.354
402.336	27.481	836.949	673.691
403.350	27.850	837.201	675.198
404.365	28.066	836.777	675.596
405.380	28.316	836.699	676.396
406.394	28.445	836.258	676.454
407.409	28.324	835.494	675.330
408.423	28.314	835.131	674.941
409.438	28.346	835.022	674.911
410.453	28.381	834.512	674.569
411.467	28.338	833.553	673.576
412.482	28.306	833.504	673.358
413.496	28.569	833.228	674.042
414.511	28.375	832.582	672.747
415.526	28.307	832.382	672.279
416.540	28.191	831.846	671.358
417.555	27.859	830.925	669.340
418.569	27.915	830.517	669.158
419.584	28.073	829.554	668.900
420.599	27.840	829.126	667.643
421.613	94.988	1267.423	1378.489
422.628	82.077	1331.309	1378.622
