DTS Sentinel unit serial number:	SN413079Multiplexer serial number:	ORYXHardware model number:	OX4-SRSoftware version number:	ORYX F/W v4.00 Oryx Data Collector v3.7.2.0data status	okinstallation	princeton_trtdifferential loss correction	single-endedforward channel	channel 1reverse channel	N/Adate	2019/09/12time	16:20:11forward acquisition time	60.00reverse acquisition time	0.00gamma	496.2192k internal	0.2302k external	0.2302temperature offset calibration	1.0083default loss term (dB/km)	0.3790temperature slope calibration	1.0000multiplexer offset coefficient	1.0000multiplexer slope coefficient	1.0000fibre end	0.00T internal ref (°C)	37.91T ext. ref 1 (°C)	2.48T ext. ref 2 (°C)	30.66length (m)	temperature (°C)	Stokes	anti-Stokes-747.200	-139.381	0.114	-0.012
-746.185	-52.975	-0.054	-0.025
-745.171	-123.731	0.332	0.054
-744.156	224.123	0.203	0.334
-743.142	-200.000	-0.066	-0.374
-742.127	6.172	-0.170	0.128
-741.112	-79.656	0.225	0.077
-740.098	531.469	0.100	-0.240
-739.083	223.174	0.109	-0.179
-738.069	-84.171	0.375	0.121
-737.054	-200.000	-0.063	-0.384
-736.039	-0.482	-0.377	-0.273
-735.025	-200.000	0.005	-0.136
-734.010	-10.707	-0.312	-0.210
-732.996	-59.033	0.212	0.093
-731.981	800.000	-0.026	0.105
-730.966	800.000	0.141	0.545
-729.952	-105.932	-0.128	-0.029
-728.937	11.829	-0.261	-0.204
-727.923	9.967	-0.264	0.204
-726.908	37.980	-0.124	-0.112
-725.894	70.639	-0.075	-0.079
-724.879	-137.772	-0.138	-0.016
-723.864	100.684	-0.135	0.159
-722.850	61.415	-0.075	-0.076
-721.835	-181.767	-0.156	0.003
-720.821	-115.789	0.288	-0.055
-719.806	-55.528	0.125	-0.057
-718.791	-134.565	0.128	-0.016
-717.777	-37.346	0.236	-0.128
-716.762	-102.312	-0.022	0.005
-715.748	-83.272	-0.411	-0.134
-714.733	-18.389	-0.152	0.097
-713.718	-200.000	0.036	0.241
-712.704	268.325	0.048	-0.086
-711.689	126.902	0.112	0.145
-710.675	-119.262	-0.145	0.026
-709.660	-34.057	0.131	-0.073
-708.645	32.722	-0.062	-0.054
-707.631	-200.000	-0.035	-0.181
-706.616	-110.994	0.089	-0.019
-705.602	-4.840	-0.227	0.159
-704.587	800.000	0.086	-0.254
-703.572	800.000	0.088	0.316
-702.558	52.337	-0.079	0.077
-701.543	-138.653	-0.202	-0.022
-700.529	-141.063	-0.133	0.014
-699.514	282.420	-0.230	-0.420
-698.499	335.602	-0.177	-0.349
-697.485	-154.557	-0.119	0.008
-696.470	162.786	-0.013	-0.019
-695.456	800.000	-0.096	-0.329
-694.441	-1.206	-0.333	-0.239
-693.426	614.137	0.128	0.326
-692.412	-89.671	0.056	-0.017
-691.397	25.578	-0.023	0.020
-690.383	292.944	-0.230	-0.427
-689.368	-31.372	0.209	-0.119
-688.354	323.526	0.128	0.248
-687.339	-39.031	0.105	0.056
-686.324	132.549	0.080	0.105
-685.310	252.059	-0.039	0.068
-684.295	307.892	0.141	-0.267
-683.281	-197.606	-0.298	0.002
-682.266	-155.308	0.209	-0.014
-681.251	-83.237	-0.146	0.048
-680.237	507.550	-0.126	0.297
-679.222	208.150	0.199	-0.315
-678.208	800.000	-0.053	0.230
-677.193	-200.000	0.003	0.223
-676.178	314.516	0.081	0.155
-675.164	364.737	0.134	0.274
-674.149	-40.809	-0.355	0.187
-673.135	79.408	-0.234	-0.255
-672.120	-200.000	0.005	-0.030
-671.105	-200.000	0.011	0.079
-670.091	33.477	0.093	0.082
-669.076	181.885	0.134	0.200
-668.062	213.869	0.101	0.162
-667.047	-51.608	0.326	-0.154
-666.032	67.022	-0.195	-0.202
-665.018	-51.419	-0.348	0.165
-664.003	-25.544	-0.294	0.176
-662.989	-175.909	0.447	-0.012
-661.974	-200.000	0.003	0.175
-660.959	-200.000	0.052	-0.366
-659.945	-110.154	-0.508	-0.108
-658.930	-200.000	-0.028	-0.226
-657.916	-95.703	0.092	0.025
-656.901	-93.402	0.318	-0.090
-655.886	437.660	-0.028	-0.061
-654.872	37.472	-0.154	0.139
-653.857	-105.413	0.103	-0.024
-652.843	-200.000	0.039	-0.191
-651.828	628.542	-0.116	0.299
-650.814	-93.305	-0.092	-0.026
-649.799	800.000	0.028	-0.112
-648.784	144.370	0.142	-0.193
-647.770	31.920	-0.221	0.193
-646.755	92.695	-0.145	0.166
-645.741	-98.485	0.182	-0.047
-644.726	800.000	0.059	0.170
-643.711	-200.000	-0.006	-0.025
-642.697	800.000	-0.125	0.417
-641.682	-99.807	-0.326	0.083
-640.668	-163.866	-0.186	0.009
-639.653	-9.902	0.172	-0.116
-638.638	-200.000	0.034	-0.562
-637.624	-200.000	0.019	-0.315
-636.609	-200.000	0.001	-0.028
-635.595	800.000	0.059	-0.245
-634.580	63.308	0.169	-0.172
-633.565	74.153	-0.249	0.265
-632.551	57.198	0.196	-0.194
-631.536	-127.201	0.016	-0.002
-630.522	-15.418	-0.261	-0.169
-629.507	404.626	0.064	0.136
-628.492	-138.999	0.086	-0.009
-627.478	800.000	-0.060	-0.199
-626.463	-200.000	-0.027	0.179
-625.449	417.349	-0.041	-0.088
-624.434	33.477	-0.201	0.177
-623.419	-149.878	0.060	-0.005
-622.405	-200.000	-0.014	-0.069
-621.390	-73.909	-0.175	0.064
-620.376	800.000	0.036	0.145
-619.361	-146.675	0.111	-0.010
-618.346	69.079	0.087	0.091
-617.332	-29.712	0.188	-0.109
-616.317	-10.277	-0.323	-0.218
-615.303	-200.000	0.004	-0.041
-614.288	190.641	-0.058	0.088
-613.273	630.639	0.168	0.431
-612.259	1.026	0.266	0.194
-611.244	800.000	0.035	0.114
-610.230	-39.727	0.208	-0.110
-609.215	-116.600	-0.161	0.030
-608.201	-54.151	0.126	-0.058
-607.186	-200.000	-0.003	0.330
-606.171	-200.000	0.051	0.268
-605.157	98.338	0.091	-0.106
-604.142	-139.318	-0.356	-0.039
-603.128	-200.000	0.030	0.194
-602.113	21.133	-0.163	0.134
-601.098	-200.000	0.030	0.134
-600.084	177.594	0.106	-0.156
-599.069	86.479	0.151	0.169
-598.055	387.587	0.047	-0.099
-597.040	703.257	0.121	0.324
-596.025	-157.580	-0.330	0.020
-595.011	46.312	0.221	0.208
-593.996	88.484	0.339	0.382
-592.982	-154.161	-0.245	0.017
-591.967	9.141	-0.036	0.028
-590.952	-127.445	0.167	-0.025
-589.938	800.000	0.039	0.140
-588.923	63.460	-0.148	-0.151
-587.909	-34.930	0.048	-0.027
-586.894	800.000	-0.036	-0.154
-585.879	-200.000	0.033	0.321
-584.865	266.652	-0.116	-0.206
-583.850	30.383	-0.272	0.236
-582.836	-200.000	-0.011	-0.196
-581.821	100.750	-0.148	-0.174
-580.806	-12.086	-0.119	-0.079
-579.792	-80.650	0.246	0.083
-578.777	-200.000	0.465	0.000
-577.763	-200.000	0.015	0.083
-576.748	-130.390	-0.450	-0.062
-575.733	-0.378	-0.091	-0.065
-574.719	-200.000	0.012	0.176
-573.704	-200.000	0.030	0.330
-572.690	-37.674	0.340	0.183
-571.675	-200.000	-0.097	-0.464
-570.661	344.568	-0.080	-0.158
-569.646	-25.306	-0.091	-0.055
-568.631	-7.694	0.266	0.182
-567.617	-142.290	-0.169	0.017
-566.602	-103.045	-0.249	-0.060
-565.588	-107.948	-0.220	-0.048
-564.573	-120.311	-0.380	0.066
-563.558	-41.344	0.328	0.171
-562.544	-200.000	0.013	0.258
-561.529	257.070	0.201	-0.349
-560.515	76.114	-0.162	-0.173
-559.500	222.779	-0.091	-0.148
-558.485	800.000	0.040	0.124
-557.471	-200.000	-0.038	-0.388
-556.456	-200.000	-0.005	-0.042
-555.442	-7.111	-0.157	0.108
-554.427	-142.354	0.135	-0.014
-553.412	-66.048	0.093	0.038
-552.398	758.044	0.096	0.263
-551.383	-95.052	0.086	0.023
-550.369	-5.438	0.216	0.150
-549.354	186.977	0.244	0.368
-548.339	-44.612	-0.146	0.074
-547.325	769.534	0.123	-0.339
-546.310	-8.753	-0.064	0.043
-545.296	-65.679	0.212	-0.086
-544.281	296.739	0.089	-0.165
-543.266	-144.818	-0.369	0.034
-542.252	118.257	0.073	0.091
-541.237	317.116	0.149	-0.284
-540.223	291.391	-0.145	-0.266
-539.208	-133.500	-0.223	0.028
-538.193	-31.563	-0.223	-0.127
-537.179	-113.843	0.367	0.072
-536.164	800.000	0.042	-0.156
-535.150	-72.468	0.297	-0.111
-534.135	16.057	-0.186	0.149
-533.121	-200.000	-0.000	-0.334
-532.106	-103.260	0.340	-0.081
-531.091	286.702	0.183	0.335
-530.077	-200.000	0.024	-0.179
-529.062	-127.809	0.181	0.026
-528.048	1.322	0.102	-0.074
-527.033	-63.104	-0.093	-0.039
-526.018	-38.959	-0.165	-0.088
-525.004	-134.792	0.087	-0.011
-523.989	-200.000	-0.016	-0.229
-522.975	-142.513	-0.311	0.031
-521.960	366.408	0.213	0.434
-520.945	37.253	0.184	0.165
-519.931	800.000	0.014	0.045
-518.916	-200.000	0.002	-0.081
-517.902	306.220	-0.093	0.174
-516.887	-200.000	-0.015	0.162
-515.872	800.000	0.059	-0.200
-514.858	-200.000	-0.010	0.193
-513.843	4.253	-0.212	-0.157
-512.829	800.000	-0.015	0.060
-511.814	-158.521	-0.512	-0.030
-510.799	-17.301	0.138	-0.088
-509.785	168.137	-0.105	-0.151
-508.770	-200.000	0.012	0.167
-507.756	-74.409	-0.062	0.022
-506.741	106.351	0.024	0.029
-505.726	-7.884	0.258	-0.176
-504.712	-158.731	-0.189	0.011
-503.697	301.952	0.370	0.691
-502.683	21.873	0.153	0.126
-501.668	-138.324	-0.192	-0.021
-500.653	-102.170	-0.464	0.113
-499.639	186.911	0.120	0.181
-498.624	171.049	-0.178	0.258
-497.610	332.660	0.041	-0.080
-496.595	-12.533	0.206	0.136
-495.581	-85.848	-0.055	-0.017
-494.566	79.773	0.106	-0.115
-493.551	289.895	-0.185	-0.339
-492.537	221.157	-0.133	-0.215
-491.522	-119.973	-0.179	0.031
-490.508	515.831	-0.053	0.124
-489.493	1.491	0.141	-0.102
-488.478	177.865	-0.092	-0.135
-487.464	-200.000	-0.020	-0.234
-486.449	-200.000	-0.014	0.104
-485.435	34.628	0.055	-0.048
-484.420	270.279	-0.140	-0.248
-483.405	-114.303	0.170	-0.033
-482.391	-58.899	-0.289	0.126
-481.376	-167.826	-0.310	-0.012
-480.362	637.015	-0.044	-0.112
-479.347	95.862	-0.138	0.159
-478.332	-155.189	0.263	-0.017
-477.318	-151.121	-0.323	-0.024
-476.303	-93.592	0.203	-0.057
-475.289	800.000	-0.053	0.199
-474.274	-200.000	-0.024	0.317
-473.259	43.594	-0.108	0.100
-472.245	-91.859	-0.055	0.016
-471.230	-105.678	-0.140	-0.032
-470.216	146.667	-0.170	0.230
-469.201	-25.440	0.212	-0.126
-468.186	-156.706	-0.299	-0.019
-467.172	-97.566	-0.113	0.030
-466.157	-148.847	0.487	0.040
-465.143	189.457	-0.089	0.134
-464.128	-41.010	-0.324	-0.169
-463.113	-200.000	-0.022	-0.224
-462.099	800.000	0.044	0.159
-461.084	-200.000	0.024	-0.134
-460.070	-75.272	0.469	0.169
-459.055	-200.000	0.029	0.188
-458.040	6.114	-0.190	0.142
-457.026	-111.274	0.087	-0.018
-456.011	91.046	-0.073	-0.082
-454.997	-137.145	0.302	-0.035
-453.982	-4.144	0.115	0.080
-452.968	-113.119	0.136	-0.027
-451.953	-200.000	-0.060	0.444
-450.938	67.246	0.143	-0.147
-449.924	-106.019	-0.284	0.064
-448.909	312.835	-0.139	0.263
-447.895	629.695	0.107	0.274
-446.880	-9.302	-0.262	0.176
-445.865	384.293	0.062	-0.128
-444.851	-71.498	0.208	0.078
-443.836	146.621	0.132	0.179
-442.822	-58.493	-0.137	0.060
-441.807	-150.667	-0.353	0.027
-440.792	39.450	0.128	0.116
-439.778	-200.000	0.001	-0.052
-438.763	-200.000	-0.089	-0.450
-437.749	-63.076	-0.067	-0.028
-436.734	-200.000	0.029	-0.232
-435.719	-129.845	0.273	0.038
-434.705	-92.897	0.286	-0.080
-433.690	-78.056	0.159	0.055
-432.676	176.854	0.148	-0.216
-431.661	465.916	-0.017	-0.038
-430.646	800.000	0.141	-0.461
-429.632	-141.331	-0.060	0.006
-428.617	-161.512	-0.272	-0.014
-427.603	112.066	-0.193	-0.235
-426.588	111.404	-0.157	-0.190
-425.573	-68.431	0.154	0.060
-424.559	-101.719	0.137	0.033
-423.544	-38.020	0.199	0.107
-422.530	-200.000	-0.007	-0.291
-421.515	-200.000	-0.009	0.155
-420.500	-200.000	-0.040	0.326
-419.486	800.000	0.093	-0.323
-418.471	-200.000	0.044	-0.325
-417.457	213.889	0.269	0.428
-416.442	-200.000	-0.008	-0.102
-415.428	-74.778	0.181	-0.066
-414.413	-3.024	0.232	-0.163
-413.398	-3.910	-0.227	0.159
-412.384	225.846	-0.090	-0.146
-411.369	22.730	0.159	0.131
-410.355	-146.911	-0.070	0.006
-409.340	367.908	0.020	0.041
-408.325	11.085	0.112	-0.086
-407.311	153.701	-0.075	-0.103
-406.296	-200.000	-0.010	0.141
-405.282	225.999	0.051	0.084
-404.267	-40.076	0.364	0.191
-403.252	-200.000	-0.002	-0.613
-402.238	38.841	-0.199	0.179
-401.223	128.199	0.196	0.251
-400.209	302.768	0.141	0.263
-399.194	-200.000	-0.045	0.282
-398.179	-58.717	0.250	0.109
-397.165	135.932	0.162	-0.212
-396.150	-200.000	0.019	-0.152
-395.136	-139.110	0.222	0.024
-394.121	7.147	0.231	-0.174
-393.106	-0.465	0.150	-0.107
-392.092	754.778	-0.018	0.048
-391.077	-20.139	-0.103	-0.064
-390.063	29.463	-0.262	-0.224
-389.048	-121.675	-0.192	0.032
-388.033	452.032	0.168	0.374
-387.019	-18.998	-0.251	0.157
-386.004	-115.035	0.081	-0.015
-384.990	35.164	-0.325	-0.286
-383.975	776.194	0.050	-0.136
-382.960	800.000	-0.046	-0.149
-381.946	425.581	0.021	0.045
-380.931	-200.000	0.011	0.182
-379.917	-84.226	-0.149	-0.047
-378.902	-109.983	0.255	-0.054
-377.888	-195.586	-0.285	0.002
-376.873	10.786	-0.059	-0.045
-375.858	133.693	0.144	-0.187
-374.844	-200.000	0.024	0.208
-373.829	130.870	0.012	0.015
-372.815	800.000	0.128	-0.443
-371.800	547.761	-0.048	-0.116
-370.785	240.886	0.127	-0.214
-369.771	800.000	0.089	0.302
-368.756	550.319	-0.037	-0.089
-367.742	-200.000	0.007	0.193
-366.727	-200.000	0.040	-0.255
-365.712	-40.247	-0.159	0.083
-364.698	466.241	-0.155	-0.348
-363.683	-37.493	-0.100	-0.054
-362.669	235.156	-0.046	0.076
-361.654	16.248	0.273	0.216
-360.639	-42.056	-0.089	0.046
-359.625	23.720	0.063	-0.052
-358.610	-37.035	-0.371	0.199
-357.596	23.210	-0.094	0.077
-356.581	-200.000	0.007	0.217
-355.566	289.035	-0.025	-0.045
-354.552	49.868	-0.136	0.128
-353.537	-200.000	-0.025	0.244
-352.523	137.923	0.133	0.175
-351.508	-200.000	0.020	0.087
-350.493	20.627	0.182	0.148
-349.479	-200.000	-0.030	-0.342
-348.464	800.000	-0.072	-0.245
-347.450	323.850	0.078	-0.150
-346.435	650.902	0.178	-0.458
-345.420	58.588	-0.005	0.005
-344.406	63.055	0.060	0.061
-343.391	289.810	-0.044	0.080
-342.377	-200.000	0.023	-0.158
-341.362	368.425	0.148	0.299
-340.348	-200.000	-0.032	-0.229
-339.333	61.197	-0.196	-0.196
-338.318	-200.000	0.024	0.278
-337.304	-137.228	-0.070	0.008
-336.289	-159.341	-0.157	-0.009
-335.275	32.079	0.319	0.276
-334.260	-200.000	0.027	0.178
-333.245	96.400	0.147	-0.168
-332.231	-146.244	0.040	0.003
-331.216	-121.741	-0.203	0.034
-330.202	-105.053	0.354	0.081
-329.187	589.727	-0.129	-0.319
-328.172	25.889	-0.249	0.208
-327.158	101.062	0.116	-0.136
-326.143	-200.000	0.075	-0.355
-325.129	-75.252	0.041	-0.015
-324.114	54.381	0.104	-0.101
-323.099	62.881	0.160	-0.160
-322.085	-6.571	-0.041	-0.028
-321.070	216.770	-0.097	0.155
-320.056	189.049	0.150	0.225
-319.041	92.013	-0.143	-0.161
-318.026	-39.768	-0.344	0.180
-317.012	84.726	0.077	-0.084
-315.997	84.655	0.070	0.077
-314.983	-59.386	-0.174	-0.075
-313.968	-57.391	0.585	0.258
-312.953	191.852	-0.108	0.164
-311.939	800.000	-0.023	0.066
-310.924	69.265	0.109	0.113
-309.910	88.770	0.275	-0.306
-308.895	485.265	0.067	0.154
-307.880	-200.000	0.028	0.201
-306.866	-147.759	-0.272	-0.023
-305.851	800.000	0.103	0.341
-304.837	-139.798	0.102	-0.011
-303.822	1.053	0.035	-0.025
-302.807	-131.199	-0.187	-0.025
-301.793	-200.000	0.034	0.160
-300.778	553.278	0.069	-0.165
-299.764	-124.421	-0.147	-0.023
-298.749	800.000	-0.052	-0.192
-297.735	-200.000	0.032	-0.147
-296.720	324.237	-0.048	0.091
-295.705	800.000	-0.035	0.128
-294.691	153.746	-0.151	0.207
-293.676	-157.711	-0.176	0.010
-292.662	800.000	0.125	-0.379
-291.647	70.209	0.226	-0.233
-290.632	52.355	-0.201	0.192
-289.618	-37.666	-0.333	0.178
-288.603	-200.000	-0.013	0.092
-287.589	359.744	-0.144	0.287
-286.574	800.000	0.068	-0.216
-285.559	11.973	-0.117	0.090
-284.545	-200.000	0.005	-0.239
-283.530	800.000	-0.051	-0.199
-282.516	174.676	-0.174	0.253
-281.501	92.323	0.218	-0.246
-280.486	160.069	0.188	0.262
-279.472	793.643	0.084	-0.230
-278.457	-200.000	0.022	0.238
-277.443	362.872	0.203	-0.407
-276.428	428.665	0.119	-0.258
-275.413	132.368	-0.242	0.312
-274.399	164.356	0.070	0.098
-273.384	128.279	-0.197	-0.251
-272.370	100.360	-0.143	-0.166
-271.355	-94.906	-0.298	0.081
-270.340	-200.000	0.018	-0.191
-269.326	-3.787	-0.367	-0.255
-268.311	-64.635	-0.047	0.019
-267.297	-112.648	-0.222	0.044
-266.282	-81.278	0.171	0.056
-265.267	288.343	0.060	0.109
-264.253	-200.000	0.014	-0.177
-263.238	434.131	0.029	-0.062
-262.224	48.857	-0.274	0.258
-261.209	-15.906	-0.256	-0.163
-260.195	-10.165	-0.141	-0.094
-259.180	264.148	0.068	-0.119
-258.165	-200.000	0.050	0.335
-257.151	140.736	0.161	0.212
-256.136	-105.306	-0.312	-0.071
-255.122	128.006	0.133	-0.170
-254.107	357.008	0.152	0.302
-253.092	-82.949	0.351	0.113
-252.078	14.768	-0.224	0.175
-251.063	800.000	0.094	-0.293
-250.049	139.038	-0.115	-0.152
-249.034	-28.179	-0.131	-0.076
-248.019	-85.802	-0.151	-0.047
-247.005	-23.776	0.267	0.160
-245.990	39.431	-0.035	-0.031
-244.976	98.540	-0.107	0.124
-243.961	781.887	0.070	0.193
-242.946	148.244	0.172	-0.232
-241.932	-200.000	-0.055	-0.355
-240.917	58.742	0.336	-0.330
-239.903	-50.143	0.068	-0.032
-238.888	265.119	0.107	-0.187
-237.873	20.932	-0.032	0.026
-236.859	752.570	-0.094	-0.253
-235.844	-200.000	-0.016	-0.242
-234.830	-200.000	0.078	-0.409
-233.815	-200.000	0.017	-0.491
-232.800	-200.000	-0.027	0.161
-231.786	-200.000	-0.015	0.184
-230.771	-200.000	-0.015	0.412
-229.757	-200.000	-0.005	0.103
-228.742	68.083	-0.101	0.103
-227.727	-200.000	0.008	0.124
-226.713	-200.000	-0.077	-0.356
-225.698	-43.542	0.430	0.217
-224.684	-31.089	-0.370	-0.208
-223.669	800.000	-0.073	0.318
-222.655	-65.559	-0.238	-0.095
-221.640	115.286	0.107	0.131
-220.625	89.242	0.092	-0.103
-219.611	-200.000	-0.041	-0.299
-218.596	-200.000	0.010	0.071
-217.582	-30.778	-0.148	0.083
-216.567	-48.902	-0.234	-0.112
-215.552	-200.000	0.041	-0.258
-214.538	41.293	-0.070	0.063
-213.523	530.752	0.030	-0.071
-212.509	70.309	-0.114	0.118
-211.494	800.000	-0.041	0.124
-210.479	-63.652	0.109	0.045
-209.465	-106.199	0.197	-0.044
-208.450	-84.649	-0.234	-0.073
-207.436	105.399	0.162	0.191
-206.421	-110.109	-0.251	0.052
-205.406	-36.439	0.507	0.273
-204.392	-200.000	0.006	0.212
-203.377	92.265	0.082	0.092
-202.363	-64.959	-0.095	-0.038
-201.348	177.409	-0.172	-0.250
-200.333	103.772	-0.273	0.320
-199.319	-200.000	0.038	-0.179
-198.304	316.938	0.003	0.006
-197.290	-116.466	0.270	0.050
-196.275	-200.000	-0.069	0.406
-195.260	800.000	-0.049	0.181
-194.246	-70.925	0.170	-0.064
-193.231	6.311	-0.290	-0.215
-192.217	62.944	0.202	-0.202
-191.202	-132.911	-0.185	-0.023
-190.187	-84.321	-0.176	0.055
-189.173	-121.533	0.095	0.016
-188.158	-67.046	0.236	0.093
-187.144	800.000	0.043	0.131
-186.129	-200.000	-0.024	0.116
-185.114	104.395	-0.091	0.107
-184.100	-67.701	-0.046	0.018
-183.085	800.000	0.104	0.403
-182.071	-151.668	-0.365	-0.027
-181.056	99.524	0.209	-0.242
-180.042	704.318	0.178	-0.468
-179.027	54.225	0.068	-0.065
-178.012	8.349	-0.410	-0.307
-176.998	-72.109	0.211	0.078
-175.983	-55.935	0.358	0.159
-174.969	-161.582	0.102	-0.005
-173.954	-112.239	0.243	-0.049
-172.939	-200.000	-0.016	-0.201
-171.925	40.300	-0.006	0.005
-170.910	47.193	-0.084	-0.078
-169.896	57.829	0.078	-0.076
-168.881	-21.698	-0.177	-0.108
-167.866	-106.939	0.251	-0.055
-166.852	44.703	-0.132	0.121
-165.837	-200.000	0.016	0.195
-164.823	37.946	0.259	0.230
-163.808	800.000	-0.054	-0.179
-162.793	800.000	-0.053	-0.155
-161.779	113.706	-0.166	0.201
-160.764	-27.839	-0.227	0.131
-159.750	-60.583	-0.046	0.019
-158.735	62.987	0.026	-0.026
-157.720	122.307	0.132	0.164
-156.706	244.170	-0.132	0.220
-155.691	800.000	0.006	-0.025
-154.677	-104.034	0.250	-0.058
-153.662	190.590	0.227	-0.340
-152.647	-162.730	-0.256	0.012
-151.633	800.000	-0.068	-0.211
-150.618	-176.408	0.098	0.003
-149.604	800.000	0.051	-0.143
-148.589	155.770	0.104	0.143
-147.574	-7.607	0.024	-0.016
-146.560	94.292	-0.192	0.217
-145.545	75.954	-0.174	-0.183
-144.531	471.719	-0.091	-0.203
-143.516	-112.672	0.333	0.066
-142.502	-78.058	0.483	-0.166
-141.487	800.000	0.108	-0.312
-140.472	-200.000	-0.069	-0.325
-139.458	-62.407	0.519	-0.215
-138.443	-17.786	0.109	-0.068
-137.429	-200.000	0.000	-0.178
-136.414	379.880	0.008	0.017
-135.399	98.007	-0.135	-0.155
-134.385	-97.963	0.088	0.023
-133.370	-18.732	-0.356	-0.221
-132.356	122.949	0.139	0.173
-131.341	-21.355	0.329	0.200
-130.326	158.249	-0.159	-0.220
-129.312	590.593	-0.183	0.448
-128.297	-111.473	0.175	0.035
-127.283	198.756	0.180	-0.274
-126.268	-108.557	-0.367	-0.079
-125.253	-157.477	-0.133	0.008
-124.239	392.164	0.095	-0.196
-123.224	254.942	0.207	-0.352
-122.210	-162.088	0.324	0.016
-121.195	143.200	0.251	-0.332
-120.180	239.844	0.065	-0.107
-119.166	-155.461	-0.158	0.010
-118.151	-200.000	-0.018	-0.299
-117.137	-37.150	0.213	-0.113
-116.122	12.354	-0.122	0.093
-115.107	16.258	0.232	0.182
-114.093	-200.000	0.032	0.383
-113.078	-200.000	-0.007	0.178
-112.064	-160.486	-0.095	0.005
-111.049	7.199	0.421	-0.312
-110.034	207.307	-0.021	-0.032
-109.020	-82.929	-0.253	-0.081
-108.005	800.000	-0.034	0.122
-106.991	299.402	0.049	-0.090
-105.976	-82.154	0.233	0.075
-104.962	336.032	0.037	-0.071
-103.947	-200.000	-0.008	-0.105
-102.932	-1.686	0.121	0.085
-101.918	49.116	0.264	-0.246
-100.903	544.208	-0.083	0.197
-99.889	282.761	0.077	0.137
-98.874	800.000	-0.033	0.104
-97.859	-167.222	0.295	-0.012
-96.845	-107.552	-0.446	0.097
-95.830	173.288	-0.135	0.194
-94.816	169.446	-0.179	0.254
-93.801	-200.000	0.023	0.143
-92.786	800.000	0.074	0.204
-91.772	248.111	-0.094	-0.158
-90.757	-22.267	-0.128	-0.077
-89.743	800.000	0.075	-0.246
-88.728	-93.065	-0.193	-0.054
-87.713	-200.000	0.037	0.194
-86.699	-110.880	0.359	0.073
-85.684	292.007	-0.136	-0.246
-84.670	14.346	-0.432	-0.334
-83.655	107.900	0.130	-0.154
-82.640	-180.705	0.392	0.008
-81.626	36.533	0.230	-0.202
-80.611	8.631	0.157	-0.117
-79.597	-200.000	0.003	-0.070
-78.582	86.080	0.126	-0.137
-77.567	-8.159	0.259	0.173
-76.553	791.391	0.066	0.180
-75.538	171.568	0.092	-0.131
-74.524	-76.073	0.192	-0.067
-73.509	522.010	0.020	-0.046
-72.494	-200.000	-0.008	-0.065
-71.480	-200.000	0.005	0.280
-70.465	-101.271	0.130	0.031
-69.451	589.284	-0.074	-0.180
-68.436	123.559	0.110	0.137
-67.422	-106.110	-0.466	0.104
-66.407	255.487	0.164	0.279
-65.392	309.652	-0.103	0.192
-64.378	85.321	0.259	0.282
-63.363	252.890	0.182	-0.308
-62.349	-200.000	-0.018	-0.105
-61.334	17.416	-0.864	-0.681
-60.319	-200.000	0.089	0.409
-59.305	-200.000	-0.045	-0.930
-58.290	800.000	0.254	0.935
-57.276	198.890	0.919	1.397
-56.261	-200.000	87.840	501.124
-55.246	480.876	1371.652	3087.690
-54.232	149.750	2578.903	3467.562
-53.217	113.336	2192.282	2639.098
-52.203	48.896	1649.035	1535.321
-51.188	41.323	1382.971	1240.654
-50.173	38.118	1339.433	1182.182
-49.159	57.131	1383.880	1338.752
-48.144	62.123	1402.460	1387.360
-47.130	41.853	1358.733	1221.951
-46.115	38.131	1341.412	1183.820
-45.100	37.749	1337.163	1177.713
-44.086	37.796	1333.960	1175.130
-43.071	37.760	1332.015	1173.152
-42.057	37.791	1329.739	1171.286
-41.042	37.808	1327.996	1169.810
-40.027	37.750	1326.869	1168.422
-39.013	37.792	1325.105	1167.072
-37.998	37.738	1322.823	1164.694
-36.984	37.847	1320.942	1163.641
-35.969	37.842	1319.276	1162.097
-34.954	37.925	1317.474	1160.959
-33.940	37.940	1315.817	1159.544
-32.925	37.969	1314.787	1158.758
-31.911	38.022	1313.303	1157.722
-30.896	37.986	1311.762	1156.103
-29.881	38.088	1310.520	1155.565
-28.867	37.925	1309.219	1153.408
-27.852	37.967	1307.490	1152.088
-26.838	38.017	1306.204	1151.207
-25.823	38.047	1304.929	1150.210
-24.809	38.019	1303.140	1148.427
-23.794	37.983	1301.928	1147.098
-22.779	38.107	1300.087	1146.160
-21.765	37.987	1299.033	1144.481
-20.750	38.003	1298.115	1143.721
-19.736	37.877	1296.930	1141.893
-18.721	37.886	1295.130	1140.315
-17.706	37.926	1294.106	1139.603
-16.692	37.855	1292.931	1138.111
-15.677	37.894	1291.996	1137.467
-14.663	37.811	1290.582	1135.694
-13.648	37.813	1289.641	1134.831
-12.633	37.892	1288.435	1134.184
-11.619	37.875	1287.307	1133.047
-10.604	37.819	1286.479	1131.952
-9.590	37.790	1285.839	1131.177
-8.575	37.900	1284.456	1130.553
-7.560	37.781	1284.482	1129.841
-6.546	37.813	1283.069	1128.737
-5.531	37.922	1282.072	1128.448
-4.517	37.851	1281.335	1127.342
-3.502	37.840	1280.527	1126.522
-2.487	37.881	1279.106	1125.461
-1.473	37.614	1275.871	1121.035
-0.458	35.840	1258.760	1095.865
0.556	31.685	1237.267	1046.679
1.571	26.811	1240.224	1021.699
2.586	25.469	1254.168	1025.442
3.600	24.385	1242.547	1009.720
4.615	17.706	1168.395	913.709
5.629	7.510	1089.716	800.895
6.644	2.877	1067.642	761.662
7.659	2.505	1064.928	757.816
8.673	2.268	1063.391	755.486
9.688	2.261	1061.839	754.280
10.702	2.613	1060.974	755.332
11.717	8.737	1069.709	791.846
12.731	18.928	1084.370	853.470
13.746	24.656	1090.849	887.008
14.761	25.735	1092.944	893.996
15.775	25.945	1092.256	894.397
16.790	25.775	1091.747	893.054
17.804	25.605	1090.859	891.408
18.819	25.755	1090.591	891.852
19.834	25.856	1090.140	891.905
20.848	25.920	1089.589	891.691
21.863	25.787	1089.685	891.034
22.877	25.934	1088.354	890.594
23.892	25.571	1088.197	888.594
24.907	25.907	1087.053	889.237
25.921	25.857	1085.758	887.852
26.936	25.746	1084.736	886.393
27.950	25.785	1083.134	885.197
28.965	25.727	1080.647	882.802
29.980	25.781	1079.577	882.112
30.994	25.984	1078.988	882.546
32.009	25.805	1078.166	880.920
33.023	25.853	1076.402	879.638
34.038	25.791	1076.496	879.336
35.053	25.784	1076.105	878.903
36.067	26.028	1074.584	878.772
37.082	25.950	1073.910	877.762
38.096	26.137	1073.281	878.081
39.111	26.105	1072.769	877.430
40.126	25.930	1071.610	875.552
41.140	25.584	1070.040	872.517
42.155	25.439	1068.012	870.082
43.169	25.470	1067.348	869.614
44.184	25.584	1066.557	869.444
45.199	25.279	1065.810	867.283
46.213	25.415	1064.472	866.773
47.228	25.591	1064.086	867.234
48.242	25.573	1063.178	866.328
49.257	25.841	1062.436	866.939
50.271	25.943	1061.313	866.436
51.286	25.836	1060.470	865.158
52.301	25.923	1059.912	865.041
53.315	25.754	1058.938	863.363
54.330	25.779	1058.218	862.814
55.344	25.853	1057.112	862.195
56.359	25.773	1056.593	861.309
57.374	25.603	1055.601	859.615
58.388	25.583	1055.020	858.967
59.403	25.505	1054.186	857.840
60.417	25.418	1053.115	856.479
61.432	25.397	1052.859	856.094
62.447	25.598	1051.813	856.123
63.461	25.655	1051.069	855.714
64.476	25.601	1050.093	854.588
65.490	25.520	1048.782	853.063
66.505	25.527	1048.368	852.684
67.520	25.504	1048.067	852.253
68.534	25.293	1046.636	850.016
69.549	25.014	1045.590	847.772
70.563	25.048	1044.770	847.192
71.578	25.048	1043.831	846.356
72.593	24.875	1043.042	844.822
73.607	24.928	1042.648	844.681
74.622	25.330	1042.456	846.346
75.636	25.423	1041.041	845.561
76.651	25.278	1040.435	844.311
77.666	25.085	1039.631	842.675
78.680	25.195	1039.363	842.899
79.695	25.454	1038.287	843.169
80.709	25.426	1037.836	842.598
81.724	25.343	1037.085	841.526
82.739	25.485	1036.219	841.412
83.753	25.718	1036.064	842.304
84.768	26.006	1034.959	842.675
85.782	26.163	1034.160	842.683
86.797	26.053	1032.992	841.143
87.812	25.983	1031.666	839.664
88.826	25.903	1031.354	838.965
89.841	26.167	1030.290	839.250
90.855	26.047	1029.429	837.919
91.870	26.033	1028.773	837.246
92.884	25.914	1027.593	835.657
93.899	25.886	1026.480	834.550
94.914	26.107	1025.437	834.649
95.928	25.937	1024.553	833.071
96.943	25.587	1023.580	830.591
97.957	25.383	1022.328	828.560
98.972	25.329	1021.436	827.516
99.987	25.603	1020.590	828.018
101.001	25.818	1019.876	828.354
102.016	25.984	1018.555	827.969
103.030	25.657	1017.744	825.738
104.045	25.544	1016.772	824.359
105.060	25.331	1016.002	822.683
106.074	25.557	1015.291	823.071
107.089	25.799	1014.974	823.850
108.103	25.760	1013.767	822.617
109.118	25.537	1012.121	820.193
110.133	25.531	1011.626	819.691
111.147	25.249	1010.066	817.071
112.162	25.221	1009.223	816.188
113.176	25.470	1008.923	817.007
114.191	25.375	1008.414	816.092
115.206	25.048	1007.115	813.480
116.220	25.024	1006.489	812.796
117.235	25.259	1005.230	812.772
118.249	25.170	1004.436	811.653
119.264	25.081	1003.852	810.709
120.279	25.168	1003.170	810.478
121.293	25.267	1002.133	810.018
122.308	25.209	1001.810	809.425
123.322	25.074	1000.402	807.604
124.337	24.938	998.990	805.781
125.352	24.537	997.313	802.558
126.366	24.518	996.384	801.654
127.381	25.251	996.174	804.698
128.395	25.683	996.372	806.729
129.410	25.802	995.119	806.172
130.424	25.825	993.919	805.232
131.439	25.734	993.290	804.246
132.454	25.700	992.666	803.517
133.468	25.547	992.047	802.261
134.483	25.885	990.982	802.834
135.497	26.009	990.107	802.610
136.512	25.907	989.881	801.900
137.527	26.048	988.381	801.242
138.541	26.183	987.390	800.964
139.556	25.963	986.973	799.582
140.570	26.268	985.897	799.991
141.585	26.027	985.520	798.544
142.600	26.016	984.508	797.605
143.614	26.260	983.494	797.790
144.629	26.278	982.923	797.339
145.643	26.198	981.478	795.740
146.658	25.876	980.408	793.385
147.673	26.003	978.981	792.721
148.687	25.819	978.119	791.143
149.702	25.710	977.314	789.946
150.716	25.694	976.485	789.135
151.731	25.885	975.482	789.089
152.746	26.119	975.187	789.804
153.760	26.137	974.486	789.246
154.775	26.085	974.116	788.649
155.789	26.057	973.643	788.073
156.804	26.086	972.271	787.023
157.819	26.221	971.352	786.796
158.833	26.231	971.084	786.555
159.848	26.431	969.501	786.069
160.862	26.107	968.664	783.916
161.877	26.095	967.442	782.804
162.892	26.115	966.722	782.239
163.906	26.168	965.434	781.356
164.921	25.959	964.707	779.795
165.935	26.185	963.570	779.786
166.950	26.183	962.910	779.172
167.964	26.071	962.167	778.018
168.979	26.057	960.768	776.761
169.994	25.883	960.134	775.430
171.008	26.186	959.760	776.364
172.023	26.172	958.594	775.290
173.037	26.076	957.426	773.864
174.052	25.900	956.908	772.625
175.067	25.987	955.782	772.018
176.081	25.939	955.482	771.501
177.096	25.900	955.306	771.126
178.110	25.527	954.315	768.664
179.125	25.426	953.174	767.245
180.140	25.515	952.957	767.382
181.154	25.731	952.838	768.140
182.169	25.958	952.712	768.937
183.183	26.161	952.516	769.578
184.198	25.970	951.488	767.865
185.213	26.095	950.510	767.542
186.227	26.076	950.108	767.066
187.242	26.118	949.066	766.336
188.256	26.187	948.628	766.210
189.271	26.267	947.869	765.864
190.286	25.910	946.603	763.265
191.300	25.252	945.148	759.239
192.315	24.528	943.341	754.664
193.329	24.433	943.015	753.935
194.344	25.310	943.605	758.043
195.359	25.927	943.639	760.609
196.373	26.043	942.886	760.422
197.388	26.016	942.336	759.798
198.402	25.903	942.087	759.056
199.417	26.086	941.450	759.245
200.432	25.874	940.044	757.153
201.446	25.535	939.573	755.281
202.461	25.640	938.839	755.068
203.475	24.818	937.051	750.119
204.490	23.974	935.914	745.607
205.504	24.884	936.232	749.606
206.519	25.681	936.059	752.736
207.534	25.773	935.183	752.349
208.548	26.233	935.265	754.270
209.563	25.910	934.356	752.123
210.577	25.768	933.858	751.060
211.592	26.360	933.347	753.052
212.607	26.158	932.698	751.621
213.621	26.155	932.142	751.096
214.636	26.187	931.733	750.830
215.650	26.180	930.630	749.846
216.665	26.245	930.104	749.625
217.680	26.221	929.471	748.951
218.694	25.823	927.769	745.865
219.709	25.805	927.251	745.306
220.723	25.934	927.135	745.682
221.738	25.933	926.846	745.380
222.753	25.977	926.132	744.922
223.767	25.972	925.493	744.319
224.782	26.373	925.156	745.638
225.796	26.318	924.639	744.930
226.811	25.718	923.068	741.128
227.826	24.960	922.219	737.262
228.840	25.121	921.519	737.297
229.855	25.153	920.749	736.750
230.869	24.953	919.471	734.842
231.884	25.360	919.770	736.685
232.899	25.942	919.826	739.050
233.913	25.948	918.909	738.272
234.928	25.797	918.596	737.340
235.942	25.916	917.977	737.264
236.957	25.468	917.279	734.806
237.972	25.439	916.439	733.951
238.986	25.709	915.940	734.586
240.001	25.630	915.263	733.656
241.015	25.765	914.790	733.765
242.030	26.021	914.099	734.187
243.045	25.880	914.634	733.977
244.059	26.103	913.457	733.874
245.074	25.877	912.890	732.435
246.088	25.706	911.389	730.472
247.103	25.897	911.169	731.008
248.117	26.436	911.645	733.510
249.132	26.830	910.523	734.137
250.147	26.753	910.681	733.889
251.161	26.862	910.106	733.798
252.176	26.899	908.998	732.992
253.190	26.921	908.760	732.822
254.205	27.124	908.409	733.296
255.220	27.081	907.706	732.489
256.234	26.993	906.932	731.447
257.249	26.798	906.371	730.143
258.263	26.902	905.595	729.874
259.278	26.937	904.507	729.073
260.293	26.991	904.194	728.971
261.307	26.849	903.819	728.035
262.322	26.686	902.864	726.546
263.336	25.945	900.474	721.596
264.351	25.002	898.989	716.570
265.366	25.088	898.334	716.329
266.380	26.200	899.003	721.245
267.395	26.547	899.098	722.643
268.409	26.368	898.556	721.427
269.424	26.688	897.992	722.188
270.439	26.695	897.404	721.677
271.453	26.722	896.642	721.110
272.468	27.018	896.013	721.715
273.482	27.040	895.789	721.560
274.497	26.530	894.682	718.580
275.512	26.124	893.756	716.161
276.526	26.549	893.937	717.927
277.541	26.867	893.402	718.695
278.555	26.633	892.469	716.954
279.570	26.468	891.917	715.795
280.585	26.546	891.460	715.675
281.599	26.531	890.363	714.669
282.614	26.060	888.876	711.557
283.628	25.971	888.551	710.882
284.643	26.248	888.734	712.059
285.657	25.879	887.481	709.537
286.672	25.631	886.495	707.712
287.687	26.236	886.509	710.039
288.701	26.404	885.447	709.786
289.716	25.872	885.226	707.458
290.730	25.848	884.689	706.871
291.745	25.551	883.606	704.783
292.760	25.964	883.363	706.141
293.774	26.959	883.689	710.236
294.789	27.216	883.629	711.132
295.803	27.165	883.112	710.450
296.818	27.354	882.209	710.402
297.833	26.879	881.162	707.642
298.847	26.651	880.427	706.102
299.862	27.081	880.190	707.523
300.876	27.359	880.034	708.418
301.891	27.229	878.918	706.951
302.906	26.839	877.930	704.580
303.920	26.896	878.182	704.938
304.935	27.388	877.728	706.423
305.949	27.213	876.642	704.809
306.964	26.920	876.302	703.338
307.979	26.983	875.923	703.214
308.993	27.417	875.544	704.528
310.008	27.508	874.653	704.099
311.022	26.982	874.537	701.912
312.037	26.832	873.887	700.747
313.052	26.647	872.428	698.803
314.066	25.849	871.059	694.568
315.081	25.364	870.641	692.306
316.095	26.427	870.538	696.259
317.110	26.824	870.930	698.036
318.125	26.045	868.755	693.242
319.139	24.949	867.575	688.030
320.154	24.868	867.316	687.452
321.168	25.860	867.642	691.459
322.183	26.592	867.881	694.397
323.197	26.796	867.593	694.886
324.212	26.974	867.001	695.030
325.227	26.895	866.481	694.253
326.241	26.900	865.700	693.584
327.256	26.819	865.002	692.655
328.270	26.815	864.009	691.781
329.285	26.552	863.761	690.519
330.300	26.169	862.691	688.142
331.314	26.490	862.461	689.121
332.329	27.002	862.298	690.880
333.343	27.058	861.910	690.719
334.358	27.051	861.633	690.409
335.373	27.100	861.492	690.423
336.387	27.429	861.527	691.641
337.402	27.524	861.379	691.822
338.416	27.380	860.850	690.788
339.431	27.611	860.329	691.184
340.446	27.713	860.231	691.432
341.460	27.707	859.327	690.620
342.475	27.378	858.993	689.045
343.489	27.472	858.637	689.054
344.504	27.811	858.269	689.980
345.519	28.054	857.908	690.547
346.533	27.976	857.542	689.898
347.548	27.775	856.788	688.472
348.562	27.806	856.522	688.312
349.577	27.828	855.724	687.695
350.592	27.873	854.855	687.103
351.606	27.948	853.925	686.577
352.621	27.766	853.585	685.560
353.635	27.657	852.561	684.268
354.650	27.052	851.093	680.761
355.665	26.025	849.681	675.727
356.679	26.463	849.513	677.174
357.694	26.975	848.838	678.492
358.708	26.844	848.253	677.475
359.723	27.230	848.364	678.943
360.738	27.566	848.126	679.946
361.752	27.732	847.649	680.123
362.767	27.977	847.281	680.682
363.781	28.297	846.981	681.572
364.796	28.270	846.640	681.136
365.810	28.250	846.432	680.834
366.825	28.315	845.694	680.422
367.840	27.932	845.390	678.696
368.854	27.608	844.237	676.504
369.869	27.669	843.422	676.020
370.883	27.679	843.279	675.883
371.898	27.549	842.827	674.978
372.913	27.632	842.785	675.193
373.927	27.733	842.028	674.901
374.942	27.819	841.801	674.976
375.956	27.958	841.622	675.287
376.971	28.128	841.102	675.438
377.986	28.243	840.754	675.524
379.000	28.059	840.282	674.405
380.015	28.096	838.875	673.353
381.029	28.151	838.558	673.241
382.044	28.272	838.276	673.399
383.059	28.270	837.746	672.907
384.073	28.204	836.971	671.983
385.088	28.134	836.714	671.460
386.102	27.997	835.638	670.035
387.117	27.906	835.063	669.180
388.132	27.485	834.149	666.849
389.146	27.017	832.971	664.134
390.161	27.576	833.020	666.159
391.175	27.910	832.926	667.247
392.190	27.607	831.656	665.064
393.205	26.365	829.558	658.805
394.219	24.675	827.777	651.184
395.234	24.554	827.748	650.661
396.248	26.162	829.007	657.453
397.263	27.723	829.937	663.820
398.278	27.664	829.313	663.046
399.292	27.413	828.958	661.790
400.307	27.405	828.552	661.381
401.321	27.656	827.874	661.691
402.336	28.008	827.698	662.768
403.350	28.428	827.759	664.279
404.365	28.591	827.713	664.777
405.380	28.882	827.365	665.492
406.394	28.990	826.583	665.194
407.409	28.849	825.940	664.108
408.423	28.938	825.804	664.261
409.438	28.933	825.553	663.982
410.453	28.981	824.972	663.630
411.467	28.915	824.394	662.869
412.482	28.892	824.134	662.518
413.496	29.178	823.699	663.139
414.511	28.976	823.503	662.195
415.526	29.037	822.702	661.714
416.540	28.800	822.117	660.332
417.555	28.643	821.431	659.159
418.569	28.544	821.268	658.614
419.584	28.515	820.645	657.953
420.599	28.347	820.027	656.797
421.613	103.067	1278.291	1419.565
422.628	89.128	1345.072	1419.689
