DTS Sentinel unit serial number:	SN413079Multiplexer serial number:	ORYXHardware model number:	OX4-SRSoftware version number:	ORYX F/W v4.00 Oryx Data Collector v3.7.2.0data status	okinstallation	princeton_trtdifferential loss correction	single-endedforward channel	channel 1reverse channel	N/Adate	2019/09/16time	20:06:35forward acquisition time	60.00reverse acquisition time	0.00gamma	496.2192k internal	0.2322k external	0.2322temperature offset calibration	0.9950default loss term (dB/km)	0.3790temperature slope calibration	1.0000multiplexer offset coefficient	1.0000multiplexer slope coefficient	1.0000fibre end	0.00T internal ref (°C)	33.19T ext. ref 1 (°C)	0.03T ext. ref 2 (°C)	26.64length (m)	temperature (°C)	Stokes	anti-Stokes-747.200	-200.000	-0.000	0.142
-746.185	-200.000	-0.082	0.371
-745.171	155.446	0.036	-0.050
-744.156	-100.458	-0.054	-0.014
-743.142	3.608	0.281	-0.207
-742.127	-58.285	0.039	0.017
-741.112	13.160	0.142	0.111
-740.098	26.894	-0.035	0.030
-739.083	475.108	0.058	0.132
-738.069	-79.014	0.145	0.050
-737.054	-175.717	0.075	0.002
-736.039	478.943	-0.082	-0.188
-735.025	800.000	0.067	0.267
-734.010	245.420	-0.031	-0.052
-732.996	430.623	0.037	-0.081
-731.981	-39.895	-0.312	-0.164
-730.966	-200.000	-0.026	-0.202
-729.952	617.584	0.137	-0.346
-728.937	630.497	0.050	0.129
-727.923	-66.272	0.094	0.038
-726.908	-166.651	0.077	0.003
-725.894	-200.000	0.041	-0.374
-724.879	-111.353	-0.270	0.056
-723.864	-12.077	0.262	-0.173
-722.850	-38.485	-0.198	-0.106
-721.835	-13.689	-0.187	-0.122
-720.821	-141.543	0.351	0.036
-719.806	-200.000	-0.004	0.099
-718.791	-157.304	0.031	0.002
-717.777	645.127	0.088	-0.226
-716.762	381.786	0.039	-0.081
-715.748	-200.000	0.021	-0.339
-714.733	21.044	0.335	0.275
-713.718	-200.000	0.055	0.330
-712.704	-200.000	-0.027	-0.177
-711.689	-140.884	-0.281	0.029
-710.675	-200.000	-0.038	-0.185
-709.660	334.003	-0.146	-0.285
-708.645	-10.557	-0.348	-0.233
-707.631	-29.429	0.202	-0.117
-706.616	-124.654	0.165	-0.026
-705.602	46.492	0.195	-0.183
-704.587	-185.733	0.115	0.002
-703.572	121.669	-0.094	-0.118
-702.558	-113.792	-0.192	0.038
-701.543	-200.000	0.001	0.192
-700.529	-142.312	0.095	0.009
-699.514	800.000	0.066	-0.194
-698.499	-64.986	0.147	-0.060
-697.485	800.000	0.148	-0.416
-696.470	-200.000	0.061	0.304
-695.456	615.058	0.055	0.139
-694.441	66.519	-0.060	-0.061
-693.426	-85.298	-0.383	-0.121
-692.412	88.868	0.195	-0.219
-691.397	-39.004	0.276	0.146
-690.383	149.646	0.173	0.236
-689.368	-67.534	-0.225	0.089
-688.354	14.317	-0.121	-0.095
-687.339	154.956	0.159	-0.221
-686.324	-121.062	-0.125	0.021
-685.310	-192.727	-0.140	0.001
-684.295	-200.000	-0.004	0.221
-683.281	-56.615	0.553	-0.247
-682.266	393.669	-0.113	-0.238
-681.251	-66.250	-0.264	0.106
-680.237	-132.153	-0.156	0.020
-679.222	-142.281	0.293	-0.029
-678.208	172.700	-0.081	-0.118
-677.193	78.956	0.123	0.133
-676.178	-94.632	0.369	0.101
-675.164	136.705	0.071	-0.093
-674.149	-84.745	-0.156	-0.049
-673.135	92.826	0.302	-0.343
-672.120	-200.000	-0.023	0.292
-671.105	-200.000	-0.074	-0.400
-670.091	760.956	0.033	-0.090
-669.076	-77.775	-0.098	0.034
-668.062	-181.429	-0.186	0.004
-667.047	200.818	0.063	0.097
-666.032	299.044	0.036	0.067
-665.018	-200.000	0.042	-0.260
-664.003	-200.000	-0.000	-0.150
-662.989	-69.045	-0.312	0.121
-661.974	-66.182	0.301	0.121
-660.959	-200.000	0.001	0.067
-659.945	105.047	0.176	0.209
-658.930	-200.000	0.062	-0.425
-657.916	-0.722	-0.115	0.082
-656.901	-200.000	-0.038	-0.425
-655.886	354.086	0.123	-0.246
-654.872	800.000	-0.083	-0.344
-653.857	144.581	-0.175	-0.236
-652.843	-139.370	0.118	0.013
-651.828	800.000	-0.041	0.159
-650.814	60.174	-0.185	-0.184
-649.799	-200.000	0.010	-0.227
-648.784	-34.045	0.243	-0.134
-647.770	799.285	-0.111	-0.307
-646.755	-83.897	0.125	-0.040
-645.741	-200.000	-0.009	-0.108
-644.726	35.181	-0.221	-0.195
-643.711	-179.382	0.125	0.003
-642.697	3.885	0.180	0.133
-641.682	92.719	0.161	-0.183
-640.668	88.922	0.166	-0.186
-639.653	-36.261	0.138	0.075
-638.638	-200.000	-0.021	-0.142
-637.624	-0.975	0.237	0.169
-636.609	200.716	-0.016	-0.025
-635.595	1.368	-0.088	0.063
-634.580	-115.660	-0.152	-0.029
-633.565	-98.861	0.362	0.092
-632.551	-1.438	-0.157	0.111
-631.536	278.924	0.093	-0.167
-630.522	-108.788	-0.079	0.017
-629.507	26.075	0.155	0.130
-628.492	-200.000	-0.045	0.299
-627.478	-150.448	-0.274	0.021
-626.463	31.518	0.076	0.066
-625.449	-121.660	-0.137	-0.023
-624.434	331.507	0.148	-0.287
-623.419	70.255	-0.062	-0.064
-622.405	800.000	0.037	0.113
-621.390	-44.753	-0.224	0.113
-620.376	37.294	-0.230	0.205
-619.361	-200.000	-0.085	-0.410
-618.346	26.802	0.147	0.124
-617.332	229.195	0.064	0.105
-616.317	249.789	-0.106	-0.181
-615.303	-200.000	-0.063	-0.411
-614.288	28.109	-0.122	-0.104
-613.273	-68.752	-0.248	0.096
-612.259	800.000	-0.099	-0.371
-611.244	229.047	0.183	-0.300
-610.230	8.075	-0.114	0.086
-609.215	-3.473	-0.241	-0.169
-608.201	-25.806	0.085	0.051
-607.186	97.637	0.113	0.130
-606.171	-42.436	0.315	-0.161
-605.157	73.318	0.266	-0.280
-604.142	217.265	-0.101	0.161
-603.128	-184.008	-0.483	0.008
-602.113	-124.999	0.127	0.020
-601.098	-83.702	-0.305	-0.098
-600.084	-200.000	-0.015	-0.158
-599.069	800.000	0.030	-0.098
-598.055	800.000	-0.095	-0.296
-597.040	-168.511	-0.111	0.004
-596.025	800.000	0.073	0.255
-595.011	179.673	0.240	-0.353
-593.996	785.903	0.007	-0.021
-592.982	-21.694	0.111	0.068
-591.967	800.000	-0.115	0.402
-590.952	1.890	0.108	-0.078
-589.938	-54.075	-0.282	0.129
-588.923	-200.000	0.015	0.089
-587.909	-200.000	-0.029	0.271
-586.894	-200.000	-0.016	0.371
-585.879	118.278	-0.036	-0.044
-584.865	-74.435	0.112	0.041
-583.850	-19.161	-0.232	0.145
-582.836	61.478	-0.200	-0.200
-581.821	247.746	0.056	0.095
-580.806	-128.451	-0.215	0.031
-579.792	-106.212	0.057	-0.013
-578.777	-106.717	-0.430	-0.096
-577.763	-116.276	0.203	0.038
-576.748	-119.835	-0.122	0.021
-575.733	800.000	0.053	0.214
-574.719	218.035	0.117	-0.188
-573.704	407.116	0.061	-0.130
-572.690	-119.513	0.285	0.050
-571.675	84.011	0.236	-0.259
-570.661	55.667	-0.225	-0.219
-569.646	346.183	-0.129	0.254
-568.631	106.627	0.156	-0.186
-567.617	-200.000	0.016	0.086
-566.602	-2.843	0.075	-0.053
-565.588	-85.582	0.246	0.077
-564.573	239.850	0.041	-0.069
-563.558	20.397	-0.264	-0.214
-562.544	112.312	-0.036	-0.043
-561.529	644.578	-0.072	0.185
-560.515	17.335	-0.121	0.097
-559.500	-200.000	0.026	0.177
-558.485	-42.966	0.135	-0.069
-557.471	39.281	0.168	0.151
-556.456	129.664	0.125	-0.161
-555.442	98.417	-0.145	-0.168
-554.427	-71.003	0.143	-0.054
-553.412	-200.000	-0.000	-0.004
-552.398	-87.233	0.124	0.038
-551.383	3.787	-0.205	-0.150
-550.369	320.841	0.194	-0.369
-549.354	-200.000	-0.025	0.269
-548.339	-185.914	-0.297	0.004
-547.325	-52.343	-0.161	-0.075
-546.310	-110.053	0.029	-0.006
-545.296	-200.000	0.019	-0.318
-544.281	56.584	-0.017	-0.016
-543.266	800.000	-0.078	0.267
-542.252	69.178	0.131	-0.135
-541.237	-44.729	0.056	0.028
-540.223	292.676	0.119	-0.218
-539.208	800.000	0.075	-0.219
-538.193	176.775	-0.140	0.204
-537.179	-9.089	0.200	-0.134
-536.164	19.664	-0.090	-0.073
-535.150	70.335	-0.273	-0.282
-534.135	137.753	-0.165	0.216
-533.121	-153.417	-0.269	-0.019
-532.106	13.113	0.089	-0.069
-531.091	-100.414	-0.233	-0.058
-530.077	-148.459	0.197	0.016
-529.062	-78.501	-0.373	0.128
-528.048	279.730	0.065	0.116
-527.033	18.778	-0.127	0.102
-526.018	80.086	0.092	0.099
-525.004	732.216	-0.054	-0.144
-523.989	-200.000	-0.002	0.040
-522.975	-20.408	0.291	0.179
-521.960	166.019	0.189	0.268
-520.945	408.641	-0.049	-0.104
-519.931	-123.610	0.139	-0.022
-518.916	457.120	0.130	-0.288
-517.902	549.623	-0.120	0.288
-516.887	50.691	0.200	-0.190
-515.872	-124.407	0.177	-0.028
-514.858	165.481	-0.053	0.075
-513.843	278.720	0.121	0.217
-512.829	-180.091	0.198	-0.004
-511.814	113.694	-0.065	-0.079
-510.799	102.053	0.347	0.406
-509.785	800.000	-0.042	0.154
-508.770	65.558	-0.183	0.185
-507.756	770.294	0.038	-0.103
-506.741	-200.000	0.022	-0.126
-505.726	-79.375	0.259	-0.088
-504.712	800.000	0.029	-0.117
-503.697	-33.206	-0.039	0.021
-502.683	249.454	0.077	0.130
-501.668	12.331	-0.187	0.144
-500.653	-73.496	0.286	-0.104
-499.639	-118.922	0.232	0.041
-498.624	71.349	-0.200	0.207
-497.610	-200.000	0.005	-0.104
-496.595	-116.921	-0.433	0.079
-495.581	-33.340	0.165	0.091
-494.566	-143.964	-0.385	-0.036
-493.551	-200.000	-0.012	0.157
-492.537	-122.360	-0.058	-0.010
-491.522	-132.705	-0.333	0.043
-490.508	800.000	-0.126	0.355
-489.493	800.000	-0.083	-0.271
-488.478	65.800	-0.270	-0.274
-487.464	124.360	0.214	-0.269
-486.449	209.150	-0.241	-0.377
-485.435	-81.369	0.152	-0.050
-484.420	-107.298	0.256	0.056
-483.405	226.129	-0.158	-0.256
-482.391	-200.000	-0.028	-0.133
-481.376	-127.527	0.067	0.010
-480.362	-200.000	0.060	0.495
-479.347	-200.000	0.038	0.311
-478.332	-200.000	-0.031	0.183
-477.318	-200.000	-0.005	-0.258
-476.303	-120.627	-0.276	0.047
-475.289	800.000	-0.067	0.204
-474.274	-73.712	0.186	0.068
-473.259	-33.462	0.081	0.045
-472.245	304.342	0.125	-0.232
-471.230	-20.253	0.076	-0.047
-470.216	800.000	-0.058	0.205
-469.201	-200.000	-0.005	-0.561
-468.186	187.852	0.209	-0.311
-467.172	-61.558	-0.092	-0.039
-466.157	130.157	0.122	0.157
-465.143	-200.000	-0.041	0.254
-464.128	-17.908	0.251	0.157
-463.113	-131.271	0.061	0.008
-462.099	183.511	-0.009	-0.014
-461.084	-111.932	-0.244	0.049
-460.070	89.428	-0.201	0.224
-459.055	-12.567	0.236	-0.154
-458.040	26.756	0.150	0.125
-457.026	326.906	0.208	0.399
-456.011	512.703	0.135	-0.315
-454.997	-200.000	0.054	0.339
-453.982	419.518	0.088	0.189
-452.968	-200.000	-0.011	-0.128
-451.953	-80.499	-0.220	-0.073
-450.938	-36.402	-0.324	-0.174
-449.924	15.665	0.184	0.144
-448.909	-200.000	-0.057	0.281
-447.895	308.197	0.113	0.211
-446.880	-114.687	-0.130	0.025
-445.865	125.547	0.088	-0.111
-444.851	751.939	0.077	-0.207
-443.836	800.000	-0.084	-0.289
-442.822	53.800	-0.300	0.287
-441.807	176.122	0.083	-0.121
-440.792	-47.281	-0.296	-0.144
-439.778	-200.000	0.061	0.276
-438.763	-108.332	-0.273	0.059
-437.749	43.647	0.129	-0.118
-436.734	11.697	-0.253	-0.194
-435.719	-6.724	0.201	-0.137
-434.705	-200.000	0.016	0.116
-433.690	669.860	-0.184	0.476
-432.676	1.758	0.273	-0.196
-431.661	150.500	-0.110	0.149
-430.646	7.284	-0.009	-0.006
-429.632	-159.120	0.069	-0.004
-428.617	-183.654	-0.289	-0.005
-427.603	179.252	0.037	-0.055
-426.588	-200.000	-0.001	-0.244
-425.573	493.174	0.076	-0.173
-424.559	-111.132	-0.178	0.036
-423.544	-200.000	0.008	-0.351
-422.530	-86.628	-0.162	-0.049
-421.515	50.100	0.063	0.059
-420.500	-200.000	0.021	-0.154
-419.486	800.000	0.071	0.216
-418.471	495.427	0.048	0.109
-417.457	-143.951	0.203	-0.019
-416.442	-157.341	-0.142	0.009
-415.428	22.680	-0.278	0.227
-414.413	123.115	0.142	0.178
-413.398	767.217	-0.077	0.209
-412.384	-55.315	0.243	0.109
-411.369	-200.000	0.004	0.188
-410.355	-200.000	-0.010	-0.199
-409.340	-200.000	0.055	-0.261
-408.325	-0.640	-0.107	0.076
-407.311	800.000	0.075	-0.292
-406.296	-22.676	-0.228	-0.137
-405.282	76.672	-0.059	0.062
-404.267	-117.218	-0.109	-0.020
-403.252	-101.434	0.225	-0.055
-402.238	800.000	-0.008	0.025
-401.223	237.783	-0.122	0.202
-400.209	372.606	-0.044	0.090
-399.194	-200.000	-0.287	0.001
-398.179	288.871	0.054	0.097
-397.165	-45.239	0.057	0.028
-396.150	-96.081	0.127	0.034
-395.136	-200.000	-0.021	-0.224
-394.121	534.189	-0.078	-0.185
-393.106	9.302	-0.162	0.122
-392.092	137.464	-0.095	0.124
-391.077	-34.814	0.304	-0.166
-390.063	162.660	-0.190	0.266
-389.048	-98.160	-0.133	-0.034
-388.033	239.540	-0.200	0.332
-387.019	124.031	0.020	0.026
-386.004	800.000	0.128	0.401
-384.990	81.724	0.280	-0.302
-383.975	136.497	-0.024	-0.032
-382.960	800.000	0.039	0.116
-381.946	67.902	0.057	-0.058
-380.931	800.000	-0.097	-0.337
-379.917	-27.150	0.004	-0.002
-378.902	33.412	-0.155	-0.134
-377.888	31.357	-0.138	-0.118
-376.873	-169.850	-0.040	0.001
-375.858	-98.841	0.159	-0.040
-374.844	102.769	-0.068	0.079
-373.829	286.607	-0.206	-0.371
-372.815	153.386	-0.256	-0.349
-371.800	-84.112	-0.221	0.070
-370.785	12.610	-0.277	0.213
-369.771	85.318	-0.117	-0.128
-368.756	202.526	0.177	0.272
-367.742	-75.739	0.048	0.017
-366.727	-200.000	0.003	0.020
-365.712	-200.000	0.027	0.262
-364.698	-123.177	0.095	-0.015
-363.683	-200.000	0.038	-0.242
-362.669	33.804	0.098	0.085
-361.654	117.311	0.053	-0.064
-360.639	-144.365	0.415	-0.038
-359.625	22.845	-0.129	0.105
-358.610	93.531	0.067	0.076
-357.596	-34.775	0.265	0.144
-356.581	148.445	0.057	0.077
-355.566	8.911	0.270	-0.203
-354.552	-200.000	0.028	0.342
-353.537	71.411	-0.116	0.120
-352.523	800.000	0.027	0.111
-351.508	43.342	0.027	-0.025
-350.493	-94.711	-0.275	0.074
-349.479	-183.440	0.161	0.003
-348.464	-0.751	-0.145	-0.103
-347.450	322.785	0.164	-0.310
-346.435	26.358	-0.187	-0.156
-345.420	272.372	-0.055	-0.096
-344.406	59.257	-0.113	-0.111
-343.391	357.675	0.096	-0.190
-342.377	-42.136	-0.252	0.128
-341.362	-44.813	0.216	0.107
-340.348	-64.690	-0.130	0.052
-339.333	22.495	0.184	0.150
-338.318	-200.000	0.065	0.338
-337.304	-200.000	0.043	-0.211
-336.289	63.904	0.231	0.231
-335.275	800.000	-0.055	0.166
-334.260	-200.000	-0.087	0.396
-333.245	800.000	0.040	-0.157
-332.231	-154.805	0.240	-0.016
-331.216	-200.000	-0.008	-0.154
-330.202	151.923	0.175	-0.237
-329.187	800.000	0.044	-0.128
-328.172	-100.513	0.219	-0.054
-327.158	-106.001	0.238	-0.053
-326.143	109.862	0.151	-0.180
-325.129	799.501	0.238	0.652
-324.114	-89.988	-0.408	-0.118
-323.099	-59.052	0.189	-0.081
-322.085	22.280	-0.129	-0.105
-321.070	-133.301	0.118	-0.015
-320.056	608.048	0.053	-0.131
-319.041	202.607	0.098	-0.150
-318.026	-81.977	0.486	-0.158
-317.012	-43.451	-0.312	0.157
-315.997	-102.655	0.237	0.056
-314.983	-74.376	-0.291	0.105
-313.968	-169.265	0.254	0.009
-312.953	800.000	-0.066	0.286
-311.939	93.238	0.107	-0.120
-310.924	394.885	0.043	0.090
-309.910	27.377	-0.105	0.088
-308.895	-125.062	0.075	0.011
-307.880	149.694	0.144	0.194
-306.866	-49.153	-0.150	-0.071
-305.851	-160.873	0.249	0.013
-304.837	800.000	0.050	-0.182
-303.822	48.435	-0.077	0.071
-302.807	211.941	0.024	0.037
-301.793	-126.051	-0.307	-0.046
-300.778	-48.479	0.029	-0.014
-299.764	65.433	0.123	-0.123
-298.749	-200.000	0.002	0.393
-297.735	-154.073	-0.122	-0.008
-296.720	108.179	0.087	0.103
-295.705	54.521	0.108	0.104
-294.691	0.416	0.218	-0.155
-293.676	26.783	0.101	-0.084
-292.662	715.108	0.024	0.064
-291.647	626.729	-0.053	0.132
-290.632	220.941	0.070	-0.111
-289.618	-20.696	0.473	-0.288
-288.603	-129.489	0.009	-0.001
-287.589	-200.000	0.009	0.217
-286.574	319.387	-0.042	0.079
-285.559	35.438	-0.139	0.121
-284.545	57.137	0.101	-0.098
-283.530	11.892	-0.146	-0.111
-282.516	-200.000	0.052	0.323
-281.501	-48.560	0.048	0.023
-280.486	339.905	0.122	0.237
-279.472	-1.432	-0.274	-0.192
-278.457	45.450	0.128	-0.118
-277.443	273.555	-0.029	0.051
-276.428	800.000	0.072	0.296
-275.413	48.070	0.073	0.067
-274.399	-75.212	-0.407	-0.144
-273.384	-200.000	0.021	0.249
-272.370	-70.695	-0.336	-0.126
-271.355	12.838	0.206	0.158
-270.340	132.501	0.174	-0.223
-269.326	72.730	-0.189	0.196
-268.311	-154.159	-0.202	-0.014
-267.297	-80.039	-0.084	-0.028
-266.282	462.992	0.029	-0.065
-265.267	800.000	0.066	0.185
-264.253	-71.481	-0.239	0.089
-263.238	93.332	-0.177	-0.199
-262.224	-131.718	0.277	0.036
-261.209	259.080	-0.157	0.268
-260.195	-59.742	-0.121	0.051
-259.180	-138.905	-0.136	0.015
-258.165	-200.000	0.001	-0.239
-257.151	-0.462	-0.235	-0.165
-256.136	800.000	0.007	0.021
-255.122	109.229	-0.027	0.032
-254.107	-110.156	0.012	0.002
-253.092	800.000	0.032	0.105
-252.078	19.454	0.238	0.189
-251.063	-48.286	-0.089	-0.042
-250.049	207.429	0.127	-0.196
-249.034	-200.000	-0.005	-0.569
-248.019	-148.715	0.233	-0.019
-247.005	800.000	0.019	0.059
-245.990	98.535	-0.141	-0.161
-244.976	31.251	0.147	-0.125
-243.961	3.517	0.180	0.130
-242.946	303.197	0.073	0.134
-241.932	194.301	0.103	-0.154
-240.917	-35.062	-0.187	-0.101
-239.903	800.000	0.070	0.263
-238.888	68.279	-0.099	0.101
-237.873	175.835	-0.096	0.137
-236.859	89.126	0.111	-0.122
-235.844	-125.888	0.219	-0.033
-234.830	-200.000	-0.019	-0.145
-233.815	-200.000	0.017	0.141
-232.800	-200.000	0.014	0.144
-231.786	800.000	-0.093	-0.317
-230.771	800.000	0.078	0.315
-229.757	55.109	-0.214	-0.204
-228.742	-69.580	0.093	-0.035
-227.727	82.512	-0.088	0.095
-226.713	570.187	-0.036	0.086
-225.698	-10.886	-0.228	0.149
-224.684	7.869	-0.280	-0.208
-223.669	66.444	-0.193	-0.194
-222.655	-30.820	-0.310	-0.174
-221.640	-64.121	-0.443	0.179
-220.625	800.000	-0.084	0.260
-219.611	-86.549	-0.124	-0.038
-218.596	-149.041	-0.264	0.021
-217.582	-117.770	-0.221	-0.039
-216.567	230.846	0.070	-0.113
-215.552	-200.000	0.094	-0.474
-214.538	17.504	0.139	0.110
-213.523	-38.736	-0.447	0.233
-212.509	-20.533	0.260	-0.158
-211.494	-42.503	0.127	0.064
-210.479	524.755	-0.131	0.305
-209.465	95.516	0.243	-0.274
-208.450	54.933	-0.379	-0.362
-207.436	100.648	0.194	0.223
-206.421	-200.000	0.020	-0.261
-205.406	384.072	-0.100	-0.203
-204.392	146.750	0.180	-0.240
-203.377	8.191	0.234	0.174
-202.363	-162.258	0.213	0.011
-201.348	-117.550	-0.154	-0.028
-200.333	384.814	0.081	0.166
-199.319	800.000	0.128	0.368
-198.304	-200.000	-0.001	-0.105
-197.290	-3.730	0.146	0.101
-196.275	3.794	-0.037	-0.026
-195.260	-81.044	0.172	0.056
-194.246	-17.502	-0.194	0.121
-193.231	155.599	0.379	0.516
-192.217	63.470	0.123	0.122
-191.202	-200.000	-0.009	0.443
-190.187	214.869	-0.068	-0.107
-189.173	761.293	0.034	0.092
-188.158	-171.073	0.282	0.009
-187.144	-121.868	0.239	0.039
-186.129	232.621	-0.136	0.221
-185.114	-16.046	-0.361	-0.227
-184.100	-135.613	0.270	-0.032
-183.085	103.417	0.148	0.171
-182.071	120.877	0.097	0.120
-181.056	237.568	-0.177	0.290
-180.042	800.000	0.040	0.121
-179.027	-200.000	-0.041	-0.185
-178.012	-200.000	-0.054	-0.365
-176.998	109.914	0.119	-0.142
-175.983	236.891	0.137	0.225
-174.969	-44.165	0.207	0.103
-173.954	378.515	-0.132	-0.268
-172.939	231.173	0.122	0.198
-171.925	-76.956	-0.464	-0.160
-170.910	112.448	-0.221	0.264
-169.896	-39.697	-0.158	-0.082
-168.881	-143.825	0.241	0.023
-167.866	-118.179	0.190	-0.033
-166.852	-51.639	-0.073	-0.034
-165.837	-146.630	0.021	-0.002
-164.823	-200.000	0.060	0.261
-163.808	-200.000	0.037	-0.191
-162.793	-200.000	-0.037	-0.334
-161.779	37.449	-0.010	-0.009
-160.764	-110.484	-0.185	-0.038
-159.750	-49.933	0.075	0.035
-158.735	-200.000	-0.007	0.159
-157.720	139.073	0.142	-0.184
-156.706	-111.165	-0.218	-0.044
-155.691	344.850	0.107	-0.206
-154.677	-96.696	-0.078	-0.020
-153.662	-65.492	0.219	-0.087
-152.647	800.000	-0.054	0.171
-151.633	515.642	0.142	-0.326
-150.618	-200.000	0.017	0.082
-149.604	218.143	-0.150	-0.236
-148.589	37.944	0.182	0.160
-147.574	-43.335	-0.231	0.115
-146.560	-148.021	0.461	-0.038
-145.545	22.458	0.163	-0.132
-144.531	58.666	0.038	-0.036
-143.516	569.725	-0.038	-0.092
-142.502	47.832	0.127	0.117
-141.487	800.000	0.044	-0.169
-140.472	87.094	-0.248	0.271
-139.458	-161.135	0.094	0.005
-138.443	800.000	-0.029	-0.113
-137.429	-8.811	0.090	0.060
-136.414	-59.453	0.288	0.122
-135.399	429.742	-0.211	0.451
-134.385	-200.000	0.012	0.255
-133.370	50.395	0.025	0.024
-132.356	420.281	-0.130	-0.274
-131.341	-52.565	0.085	-0.039
-130.326	640.252	-0.147	0.369
-129.312	-105.722	-0.302	-0.067
-128.297	-163.352	0.105	-0.005
-127.283	51.591	0.197	0.184
-126.268	800.000	-0.032	0.121
-125.253	319.834	0.198	0.370
-124.239	112.089	-0.185	0.220
-123.224	0.695	0.249	0.176
-122.210	-23.838	0.149	-0.088
-121.195	-200.000	-0.039	-0.169
-120.180	-114.919	-0.242	-0.045
-119.166	-70.555	0.331	0.124
-118.151	-9.220	0.134	-0.088
-117.137	-53.651	-0.172	-0.077
-116.122	800.000	-0.024	-0.091
-115.107	114.780	-0.134	0.161
-114.093	152.360	-0.202	0.271
-113.078	-78.900	-0.183	-0.062
-112.064	24.310	-0.060	0.049
-111.049	14.395	0.215	-0.166
-110.034	103.199	-0.044	0.050
-109.020	558.504	0.186	-0.442
-108.005	-186.377	0.055	-0.001
-106.991	-200.000	0.052	-0.251
-105.976	101.493	0.207	0.238
-104.962	-200.000	-0.009	-0.071
-103.947	-126.710	0.304	-0.044
-102.932	-200.000	-0.029	0.137
-101.918	-179.623	-0.175	-0.004
-100.903	-200.000	0.050	0.264
-99.889	176.074	0.176	0.252
-98.874	-200.000	-0.013	0.061
-97.859	-200.000	0.081	-0.513
-96.845	65.702	-0.124	-0.123
-95.830	-200.000	-0.038	0.268
-94.816	510.580	-0.151	0.345
-93.801	113.066	-0.263	-0.314
-92.786	-54.079	-0.015	0.007
-91.772	324.031	0.127	-0.240
-90.757	-23.197	-0.157	-0.093
-89.743	-162.098	0.215	0.011
-88.728	-120.195	0.203	-0.034
-87.713	-126.162	-0.012	-0.002
-86.699	800.000	0.014	-0.060
-85.684	-57.787	-0.276	-0.119
-84.670	-98.695	-0.122	-0.031
-83.655	-50.532	0.256	-0.119
-82.640	-200.000	-0.015	0.239
-81.626	-36.442	0.320	-0.170
-80.611	-132.650	0.247	-0.031
-79.597	-75.820	0.400	0.140
-78.582	287.955	0.103	0.184
-77.567	99.781	-0.119	0.136
-76.553	-83.037	0.279	0.088
-75.538	176.345	-0.182	-0.261
-74.524	-103.177	0.308	-0.072
-73.509	232.238	0.040	0.064
-72.494	19.039	0.125	-0.099
-71.480	-200.000	-0.010	0.165
-70.465	-182.917	0.179	-0.003
-69.451	-200.000	-0.002	-0.078
-68.436	175.019	0.182	-0.260
-67.422	-80.332	-0.374	0.123
-66.407	164.508	0.104	0.145
-65.392	-200.000	0.066	0.296
-64.378	337.798	-0.057	-0.110
-63.363	-200.000	0.019	-0.277
-62.349	242.907	-0.037	0.061
-61.334	147.084	-0.739	-0.978
-60.319	-41.206	0.557	0.283
-59.305	700.400	-0.436	-1.129
-58.290	92.444	0.798	0.885
-57.276	556.832	0.762	1.806
-56.261	-200.000	93.167	559.923
-55.246	561.651	1361.781	3239.139
-54.232	164.120	2528.741	3503.632
-53.217	113.964	2141.872	2561.744
-52.203	44.940	1607.352	1455.578
-51.188	36.782	1345.650	1169.515
-50.173	33.453	1304.293	1113.993
-49.159	55.892	1349.888	1287.425
-48.144	57.999	1367.502	1316.744
-47.130	36.983	1326.725	1154.083
-46.115	33.374	1309.685	1117.955
-45.100	33.285	1304.341	1112.823
-44.086	33.084	1302.230	1109.802
-43.071	33.138	1299.723	1107.935
-42.057	33.049	1297.926	1105.842
-41.042	33.165	1296.384	1105.162
-40.027	33.116	1294.652	1103.353
-39.013	33.170	1292.298	1101.616
-37.998	33.196	1290.879	1100.514
-36.984	33.131	1289.270	1098.725
-35.969	33.201	1287.356	1097.455
-34.954	33.196	1285.615	1095.896
-33.940	33.268	1284.281	1095.133
-32.925	33.310	1283.173	1094.388
-31.911	33.303	1281.536	1092.909
-30.896	33.262	1280.391	1091.651
-29.881	33.231	1279.208	1090.420
-28.867	33.289	1277.490	1089.245
-27.852	33.289	1276.101	1088.017
-26.838	33.306	1274.769	1086.940
-25.823	33.337	1273.766	1086.221
-24.809	33.300	1272.298	1084.713
-23.794	33.261	1270.698	1083.081
-22.779	33.218	1269.702	1081.942
-21.765	33.215	1268.429	1080.797
-20.750	33.235	1267.006	1079.656
-19.736	33.096	1266.167	1078.106
-18.721	33.137	1264.652	1077.010
-17.706	33.056	1263.545	1075.558
-16.692	33.037	1262.618	1074.620
-15.677	33.113	1261.561	1074.109
-14.663	33.117	1259.920	1072.695
-13.648	33.181	1258.804	1072.064
-12.633	33.132	1258.282	1071.299
-11.619	33.189	1257.425	1070.851
-10.604	33.189	1256.345	1069.887
-9.590	33.173	1255.408	1068.957
-8.575	33.089	1254.743	1067.874
-7.560	33.189	1253.647	1067.461
-6.546	33.035	1253.018	1066.016
-5.531	33.147	1251.763	1065.538
-4.517	33.147	1251.171	1064.993
-3.502	33.097	1250.798	1064.352
-2.487	33.065	1249.549	1063.062
-1.473	33.037	1245.280	1059.233
-0.458	31.294	1229.462	1036.080
0.556	25.470	1211.401	995.368
1.571	21.436	1216.417	976.919
2.586	20.454	1231.073	983.044
3.600	19.889	1220.867	971.639
4.615	14.700	1147.677	885.849
5.629	5.206	1069.961	778.638
6.644	0.494	1048.650	739.993
7.659	-0.043	1046.931	736.086
8.673	-0.086	1045.372	734.714
9.688	-0.233	1044.592	733.384
10.702	0.241	1042.595	734.228
11.717	5.669	1050.293	766.184
12.731	14.582	1061.680	818.315
13.746	17.849	1065.146	836.959
14.761	17.040	1063.170	831.371
15.775	15.925	1060.959	824.119
16.790	14.873	1059.216	817.547
17.804	14.306	1057.129	813.098
18.819	13.874	1056.060	810.094
19.834	13.552	1055.596	808.095
20.848	13.339	1054.028	805.790
21.863	13.065	1053.480	803.962
22.877	12.967	1052.655	802.787
23.892	13.002	1052.217	802.552
24.907	12.957	1051.429	801.663
25.921	13.005	1050.707	801.270
26.936	13.013	1049.839	800.577
27.950	12.996	1049.153	799.902
28.965	13.192	1047.872	799.804
29.980	13.074	1046.729	798.290
30.994	13.199	1045.555	797.928
32.009	13.335	1044.888	798.003
33.023	13.394	1043.545	797.190
34.038	13.168	1043.174	795.750
35.053	13.175	1041.895	794.737
36.067	13.145	1040.856	793.730
37.082	13.203	1040.347	793.552
38.096	13.151	1039.797	792.813
39.111	13.240	1039.027	792.582
40.126	13.217	1037.465	791.209
41.140	13.024	1036.559	789.526
42.155	12.958	1035.909	788.643
43.169	12.953	1034.602	787.554
44.184	12.967	1033.478	786.697
45.199	12.938	1032.464	785.719
46.213	13.049	1031.143	785.172
47.228	12.957	1030.658	784.293
48.242	13.009	1029.297	783.437
49.257	13.026	1028.521	782.858
50.271	13.017	1028.140	782.454
51.286	13.169	1026.792	782.079
52.301	13.040	1026.168	780.926
53.315	13.006	1024.895	779.725
54.330	13.109	1023.393	779.000
55.344	13.029	1022.655	777.994
56.359	13.053	1021.971	777.517
57.374	12.969	1021.144	776.426
58.388	13.001	1020.166	775.761
59.403	12.976	1019.390	774.987
60.417	12.990	1018.753	774.500
61.432	12.776	1018.238	773.034
62.447	12.760	1017.585	772.395
63.461	12.842	1016.392	771.807
64.476	12.878	1015.382	771.136
65.490	12.856	1014.708	770.456
66.505	12.933	1014.153	770.326
67.520	12.990	1013.381	769.939
68.534	12.810	1013.218	768.904
69.549	12.925	1012.034	768.476
70.563	12.926	1011.203	767.779
71.578	12.818	1010.472	766.656
72.593	12.831	1009.998	766.287
73.607	12.767	1009.162	765.286
74.622	12.856	1008.687	765.275
75.636	12.781	1007.743	764.143
76.651	12.934	1006.742	764.025
77.666	12.815	1006.549	763.257
78.680	12.887	1005.916	763.046
79.695	12.781	1005.432	762.118
80.709	13.044	1003.836	762.055
81.724	12.904	1003.820	761.332
82.739	13.058	1002.974	761.332
83.753	13.082	1002.203	760.792
84.768	13.146	1001.369	760.386
85.782	13.086	1000.509	759.386
86.797	13.156	999.558	758.922
87.812	13.045	998.658	757.662
88.826	13.066	997.744	756.996
89.841	13.030	997.232	756.377
90.855	13.194	995.802	755.974
91.870	13.100	995.277	755.078
92.884	13.004	994.749	754.175
93.899	13.167	993.987	754.272
94.914	13.289	992.619	753.727
95.928	13.165	992.019	752.640
96.943	13.192	991.361	752.196
97.957	13.176	990.364	751.298
98.972	13.150	989.640	750.565
99.987	13.143	988.710	749.763
101.001	13.217	987.535	749.141
102.016	13.253	986.931	748.778
103.030	13.266	986.133	748.165
104.045	13.156	985.240	746.925
105.060	13.172	984.331	746.244
106.074	13.165	983.194	745.283
107.089	12.980	982.348	743.740
108.103	12.871	981.798	742.770
109.118	13.000	980.778	742.510
110.133	13.035	979.801	741.861
111.147	13.082	978.814	741.262
112.162	13.005	978.508	740.619
113.176	13.097	977.524	740.220
114.191	13.274	976.554	740.213
115.206	13.135	975.945	739.062
116.220	13.203	974.967	738.562
117.235	13.079	974.285	737.427
118.249	12.988	973.740	736.543
119.264	13.015	972.654	735.778
120.279	12.965	972.186	735.132
121.293	12.989	971.742	734.840
122.308	13.011	970.378	733.842
123.322	13.108	969.021	733.181
124.337	13.031	968.596	732.451
125.352	12.974	967.471	731.286
126.366	13.078	966.400	730.873
127.381	13.054	965.518	730.032
128.395	13.051	964.846	729.445
129.410	13.181	963.792	729.161
130.424	13.066	962.771	727.817
131.439	13.168	961.844	727.501
132.454	13.189	961.661	727.388
133.468	13.101	960.750	726.250
134.483	13.118	959.672	725.446
135.497	13.130	958.912	724.858
136.512	13.246	957.997	724.612
137.527	13.155	957.648	723.883
138.541	13.159	956.705	723.125
139.556	13.200	955.798	722.554
140.570	13.248	954.970	722.075
141.585	13.311	954.530	721.952
142.600	13.351	953.578	721.342
143.614	13.285	952.773	720.382
144.629	13.139	952.211	719.259
145.643	13.229	951.369	718.949
146.658	13.294	949.705	717.911
147.673	13.177	949.015	716.819
148.687	13.250	947.974	716.286
149.702	13.164	947.338	715.370
150.716	13.135	946.744	714.731
151.731	13.123	946.061	714.099
152.746	13.266	945.269	714.057
153.760	13.276	944.577	713.516
154.775	13.360	944.195	713.524
155.789	13.369	943.446	712.938
156.804	13.292	942.636	711.930
157.819	13.466	941.882	712.045
158.833	13.393	941.586	711.443
159.848	13.431	941.029	711.124
160.862	13.367	939.688	709.771
161.877	13.360	938.982	709.147
162.892	13.299	937.932	708.031
163.906	13.228	936.845	706.843
164.921	13.145	936.290	706.007
165.935	13.424	935.025	706.182
166.950	13.316	934.648	705.375
167.964	13.366	933.709	704.817
168.979	13.462	932.526	704.269
169.994	13.444	931.789	703.575
171.008	13.391	931.196	702.837
172.023	13.481	930.621	702.723
173.037	13.452	930.058	702.114
174.052	13.436	929.572	701.618
175.067	13.340	928.776	700.547
176.081	13.445	927.974	700.323
177.096	13.370	927.771	699.793
178.110	13.428	927.018	699.407
179.125	13.513	926.282	699.148
180.140	13.440	925.914	698.502
181.154	13.550	924.901	698.141
182.169	13.609	924.612	698.106
183.183	13.623	924.258	697.836
184.198	13.683	923.426	697.400
185.213	13.801	922.532	697.159
186.227	13.766	921.940	696.504
187.242	13.728	921.291	695.792
188.256	13.939	920.505	696.020
189.271	13.700	919.898	694.502
190.286	13.607	919.220	693.536
191.300	13.431	918.771	692.401
192.315	13.560	917.885	692.210
193.329	13.495	917.233	691.386
194.344	13.482	916.915	691.029
195.359	13.647	916.007	690.974
196.373	13.650	915.671	690.673
197.388	13.810	915.212	690.933
198.402	13.884	914.596	690.711
199.417	13.771	914.133	689.833
200.432	13.873	913.617	689.807
201.446	14.038	912.625	689.679
202.461	13.977	912.550	689.308
203.475	13.974	911.770	688.645
204.490	13.921	911.086	687.850
205.504	13.866	910.183	686.877
206.519	13.891	909.405	686.335
207.534	13.814	909.083	685.714
208.548	13.968	908.109	685.554
209.563	13.995	907.406	685.075
210.577	13.880	906.978	684.215
211.592	14.000	906.329	684.158
212.607	14.063	905.213	683.514
213.621	14.015	904.212	682.502
214.636	14.032	903.890	682.267
215.650	14.053	903.129	681.719
216.665	14.087	902.581	681.386
217.680	14.147	902.257	681.327
218.694	14.186	901.435	680.805
219.709	14.274	900.612	680.482
220.723	14.141	899.988	679.407
221.738	14.112	899.460	678.830
222.753	14.221	898.352	678.379
223.767	14.310	898.062	678.461
224.782	14.321	897.502	678.023
225.796	14.166	897.426	677.274
226.811	14.287	896.632	677.108
227.826	14.117	895.925	675.822
228.840	14.103	895.596	675.458
229.855	14.195	894.606	675.026
230.869	14.214	893.878	674.492
231.884	14.328	893.054	674.272
232.899	14.159	892.229	672.907
233.913	14.140	891.785	672.438
234.928	14.225	891.134	672.229
235.942	14.178	890.517	671.516
236.957	14.210	890.080	671.257
237.972	14.170	889.579	670.655
238.986	14.394	888.388	670.600
240.001	14.142	888.292	669.456
241.015	14.265	887.438	669.245
242.030	14.334	887.018	669.149
243.045	14.306	886.314	668.444
244.059	14.370	885.641	668.135
245.074	14.455	884.860	667.827
246.088	14.366	884.651	667.255
247.103	14.373	883.817	666.592
248.117	14.463	883.648	666.768
249.132	14.481	882.801	666.143
250.147	14.612	882.127	666.096
251.161	14.704	881.121	665.645
252.176	14.715	881.009	665.545
253.190	14.723	880.276	664.965
254.205	14.672	879.913	664.428
255.220	14.732	878.668	663.668
256.234	14.834	878.346	663.772
257.249	14.843	877.154	662.846
258.263	14.870	876.563	662.448
259.278	14.733	876.584	661.864
260.293	14.901	875.437	661.602
261.307	14.889	875.062	661.213
262.322	15.006	874.153	660.929
263.336	14.867	873.767	660.031
264.351	14.944	872.635	659.423
265.366	14.976	872.486	659.378
266.380	14.983	871.709	658.758
267.395	14.885	871.184	657.919
268.409	15.059	870.098	657.725
269.424	14.967	869.769	657.055
270.439	14.890	868.948	656.076
271.453	14.910	868.495	655.755
272.468	14.854	867.884	655.016
273.482	14.997	867.311	655.086
274.497	14.966	866.661	654.413
275.512	14.954	866.155	653.927
276.526	15.063	865.791	654.021
277.541	15.215	864.643	653.689
278.555	15.144	864.444	653.202
279.570	15.244	863.864	653.098
280.585	15.252	862.965	652.393
281.599	15.160	862.138	651.350
282.614	15.125	861.343	650.557
283.628	15.207	861.033	650.584
284.643	15.261	860.313	650.189
285.657	15.171	859.762	649.366
286.672	15.170	859.305	648.962
287.687	15.254	858.421	648.560
288.701	15.311	857.890	648.322
289.716	15.292	857.147	647.629
290.730	15.227	856.959	647.181
291.745	15.204	856.595	646.758
292.760	15.344	856.020	646.809
293.774	15.427	855.065	646.349
294.789	15.390	854.289	645.561
295.803	15.297	853.486	644.543
296.818	15.423	852.969	644.578
297.833	15.388	852.088	643.720
298.847	15.418	851.973	643.692
299.862	15.454	850.920	642.978
300.876	15.352	850.710	642.372
301.891	15.475	850.333	642.500
302.906	15.348	849.878	641.614
303.920	15.409	849.228	641.300
304.935	15.649	848.695	641.756
305.949	15.520	847.867	640.581
306.964	15.422	847.508	639.880
307.979	15.655	846.760	640.147
308.993	15.763	846.164	640.048
310.008	15.544	845.763	638.856
311.022	15.654	844.809	638.499
312.037	15.609	844.189	637.803
313.052	15.608	844.022	637.616
314.066	15.494	843.303	636.583
315.081	15.541	842.816	636.336
316.095	15.546	842.153	635.801
317.110	15.503	841.899	635.390
318.125	15.573	841.592	635.367
319.139	15.704	840.826	635.228
320.154	15.703	840.054	634.583
321.168	15.645	839.621	633.982
322.183	15.635	839.398	633.720
323.197	15.789	838.450	633.528
324.212	15.605	838.087	632.502
325.227	15.663	837.456	632.190
326.241	15.638	836.804	631.546
327.256	15.687	836.464	631.421
328.270	15.647	836.167	630.989
329.285	15.609	835.363	630.185
330.300	15.754	834.545	630.057
331.314	15.738	834.173	629.660
332.329	15.756	833.879	629.450
333.343	15.753	833.762	629.293
334.358	15.757	832.811	628.535
335.373	15.750	832.752	628.409
336.387	15.863	832.053	628.248
337.402	15.936	832.268	628.628
338.416	16.006	831.469	628.226
339.431	16.111	830.968	628.185
340.446	16.044	830.512	627.533
341.460	16.022	830.087	627.078
342.475	16.076	829.898	627.078
343.489	15.980	829.436	626.319
344.504	16.242	828.926	626.849
345.519	16.205	828.277	626.168
346.533	16.134	828.091	625.709
347.548	16.267	827.273	625.525
348.562	16.104	826.564	624.331
349.577	16.105	826.212	624.014
350.592	16.107	825.599	623.504
351.606	16.024	825.394	622.987
352.621	16.097	824.199	622.300
353.635	16.133	823.647	621.962
354.650	16.106	822.888	621.232
355.665	16.138	822.318	620.865
356.679	16.090	821.905	620.323
357.694	16.067	821.461	619.847
358.708	16.228	820.806	619.888
359.723	16.306	820.011	619.520
360.738	16.347	819.171	618.980
361.752	16.411	818.546	618.687
362.767	16.347	818.197	618.135
363.781	16.359	817.782	617.811
364.796	16.533	817.620	618.271
365.810	16.485	817.183	617.710
366.825	16.471	816.792	617.311
367.840	16.401	816.622	616.870
368.854	16.504	815.870	616.624
369.869	16.619	815.087	616.395
370.883	16.547	815.067	616.065
371.898	16.448	814.837	615.474
372.913	16.634	814.078	615.522
373.927	16.690	813.477	615.220
374.942	16.717	813.227	615.075
375.956	16.750	812.593	614.661
376.971	16.642	812.157	613.882
377.986	16.706	811.661	613.686
379.000	16.744	811.407	613.577
380.015	16.679	811.343	613.238
381.029	16.792	810.457	612.924
382.044	16.807	809.929	612.525
383.059	16.803	809.027	611.774
384.073	16.804	808.666	611.451
385.088	16.620	807.968	610.205
386.102	16.770	807.729	610.513
387.117	16.718	807.446	610.057
388.132	16.710	806.700	609.408
389.146	16.715	805.900	608.770
390.161	16.729	805.815	608.702
391.175	16.950	804.626	608.543
392.190	16.855	804.461	608.024
393.205	16.867	804.063	607.710
394.219	16.948	803.549	607.561
395.234	16.845	803.326	606.969
396.248	16.775	802.745	606.225
397.263	16.738	802.448	605.814
398.278	16.717	802.229	605.522
399.292	16.850	801.530	605.416
400.307	16.724	801.163	604.633
401.321	16.942	800.562	604.904
402.336	16.872	800.328	604.426
403.350	16.777	800.004	603.788
404.365	17.022	799.425	604.169
405.380	17.129	798.738	603.978
406.394	17.125	798.106	603.433
407.409	17.176	797.883	603.392
408.423	17.050	797.827	602.849
409.438	17.144	797.499	602.881
410.453	17.226	796.914	602.676
411.467	17.141	796.484	601.994
412.482	17.217	796.181	601.984
413.496	17.112	795.804	601.272
414.511	17.263	795.240	601.329
415.526	17.286	794.688	600.939
416.540	17.378	794.435	601.020
417.555	17.189	793.897	599.891
418.569	17.324	793.250	599.827
419.584	17.279	793.056	599.466
420.599	17.336	792.569	599.248
421.613	106.933	1287.198	1455.655
422.628	91.751	1359.267	1455.758
