DTS Sentinel unit serial number:	SN413079Multiplexer serial number:	ORYXHardware model number:	OX4-SRSoftware version number:	ORYX F/W v4.00 Oryx Data Collector v3.7.2.0data status	okinstallation	princeton_trtdifferential loss correction	single-endedforward channel	channel 1reverse channel	N/Adate	2019/09/19time	08:22:35forward acquisition time	60.00reverse acquisition time	0.00gamma	496.2192k internal	0.2343k external	0.2343temperature offset calibration	1.0009default loss term (dB/km)	0.3790temperature slope calibration	1.0000multiplexer offset coefficient	1.0000multiplexer slope coefficient	1.0000fibre end	0.00T internal ref (°C)	20.44T ext. ref 1 (°C)	0.57T ext. ref 2 (°C)	16.02length (m)	temperature (°C)	Stokes	anti-Stokes-747.200	-156.403	-0.218	0.014
-746.185	-200.000	0.052	0.311
-745.171	-81.128	-0.174	-0.058
-744.156	-95.785	0.174	-0.047
-743.142	82.358	-0.176	-0.191
-742.127	800.000	0.175	0.508
-741.112	-65.682	-0.077	-0.031
-740.098	512.867	-0.142	0.330
-739.083	-115.089	0.230	-0.044
-738.069	355.533	0.018	-0.037
-737.054	-200.000	0.006	-0.222
-736.039	33.965	-0.052	0.046
-735.025	-72.417	0.383	0.142
-734.010	-45.326	0.097	-0.048
-732.996	26.691	-0.157	-0.131
-731.981	108.879	0.169	-0.203
-730.966	-39.071	-0.245	-0.129
-729.952	54.113	-0.228	0.219
-728.937	-122.560	-0.263	0.043
-727.923	-200.000	0.030	-0.339
-726.908	-95.776	-0.124	0.033
-725.894	-116.384	0.113	-0.021
-724.879	-120.904	-0.111	-0.019
-723.864	217.783	-0.073	-0.116
-722.850	39.433	-0.059	0.053
-721.835	652.553	-0.027	0.068
-720.821	-3.875	-0.230	-0.160
-719.806	75.658	-0.038	-0.041
-718.791	208.166	-0.222	0.347
-717.777	-200.000	0.040	-0.354
-716.762	66.584	0.177	-0.180
-715.748	-110.140	0.166	-0.035
-714.733	-8.076	0.150	0.101
-713.718	-125.410	-0.283	-0.043
-712.704	225.345	0.004	-0.007
-711.689	-8.091	0.075	-0.050
-710.675	-39.810	-0.113	-0.059
-709.660	-200.000	0.024	-0.173
-708.645	-151.462	0.342	0.025
-707.631	94.695	-0.124	0.141
-706.616	-200.000	-0.055	0.434
-705.602	-200.000	-0.031	-0.272
-704.587	-43.981	-0.180	-0.091
-703.572	-200.000	0.011	-0.186
-702.558	-97.909	-0.101	-0.026
-701.543	-19.674	-0.332	-0.205
-700.529	61.210	0.200	-0.199
-699.514	-200.000	-0.022	0.253
-698.499	92.708	-0.238	0.268
-697.485	-3.600	0.179	0.124
-696.470	130.367	0.111	-0.142
-695.456	-140.658	-0.226	-0.023
-694.441	800.000	-0.073	-0.314
-693.426	-95.472	0.238	0.064
-692.412	4.587	0.098	-0.072
-691.397	2.951	-0.198	-0.144
-690.383	-200.000	-0.012	-0.151
-689.368	113.746	0.119	-0.145
-688.354	-16.823	0.165	0.104
-687.339	800.000	-0.118	-0.324
-686.324	-166.631	0.314	-0.013
-685.310	280.982	-0.097	-0.173
-684.295	-200.000	0.018	0.169
-683.281	-190.099	-0.087	0.001
-682.266	46.561	-0.301	-0.279
-681.251	181.960	-0.152	-0.224
-680.237	-57.689	0.166	-0.072
-679.222	275.626	-0.171	0.303
-678.208	17.406	0.154	0.122
-677.193	5.972	-0.251	0.186
-676.178	-200.000	0.060	-0.439
-675.164	-200.000	0.023	-0.150
-674.149	-200.000	0.036	-0.250
-673.135	800.000	-0.075	-0.235
-672.120	139.652	-0.136	0.179
-671.105	22.243	-0.284	0.232
-670.091	49.700	-0.152	0.143
-669.076	-109.404	-0.394	-0.083
-668.062	-109.534	0.204	0.043
-667.047	-71.421	-0.207	-0.078
-666.032	16.760	0.272	-0.214
-665.018	-200.000	-0.020	0.322
-664.003	548.527	-0.037	-0.089
-662.989	-81.080	-0.179	0.059
-661.974	9.835	-0.257	-0.194
-660.959	-118.067	0.049	0.009
-659.945	-200.000	-0.016	0.309
-658.930	-11.366	-0.128	0.084
-657.916	-90.848	-0.085	-0.024
-656.901	200.886	0.062	0.096
-655.886	-200.000	-0.006	-0.061
-654.872	-200.000	-0.064	-0.355
-653.857	-200.000	0.005	0.052
-652.843	186.301	0.028	-0.041
-651.828	534.770	0.044	-0.103
-650.814	800.000	-0.085	-0.290
-649.799	409.799	0.124	-0.262
-648.784	-200.000	0.035	-0.260
-647.770	-200.000	-0.038	0.271
-646.755	-76.190	-0.231	-0.081
-645.741	85.552	-0.152	0.167
-644.726	108.270	-0.127	0.151
-643.711	-18.264	-0.028	-0.018
-642.697	-200.000	-0.039	-0.277
-641.682	800.000	-0.102	0.314
-640.668	-129.372	-0.155	-0.021
-639.653	718.203	-0.074	-0.195
-638.638	51.350	-0.143	0.136
-637.624	800.000	0.037	0.137
-636.609	495.783	0.026	0.060
-635.595	-117.836	0.056	0.010
-634.580	-37.063	-0.190	-0.102
-633.565	-200.000	0.024	0.216
-632.551	56.581	-0.219	0.212
-631.536	-150.387	0.129	-0.010
-630.522	-121.902	0.146	-0.024
-629.507	584.653	-0.079	0.194
-628.492	268.693	-0.047	-0.082
-627.478	-45.057	-0.100	0.050
-626.463	572.192	-0.104	0.253
-625.449	101.029	-0.138	-0.160
-624.434	-200.000	0.021	0.229
-623.419	569.557	0.090	0.218
-622.405	52.558	-0.164	0.156
-621.390	-75.261	-0.255	0.091
-620.376	-161.514	-0.361	0.018
-619.361	-158.248	-0.273	-0.016
-618.346	-200.000	-0.085	-0.438
-617.332	800.000	0.150	-0.452
-616.317	98.519	-0.227	-0.261
-615.303	-200.000	0.077	-0.342
-614.288	43.644	0.263	0.240
-613.273	-74.001	0.419	0.151
-612.259	-200.000	-0.001	0.076
-611.244	515.577	-0.110	-0.255
-610.230	179.799	-0.180	0.262
-609.215	800.000	0.045	-0.187
-608.201	-99.386	0.427	-0.107
-607.186	12.863	-0.169	-0.130
-606.171	-200.000	0.016	-0.367
-605.157	134.294	-0.011	0.014
-604.142	800.000	0.051	0.189
-603.128	800.000	-0.054	-0.151
-602.113	19.750	-0.143	0.115
-601.098	-0.697	-0.171	0.121
-600.084	165.086	-0.112	0.158
-599.069	-200.000	0.003	0.048
-598.055	-200.000	-0.076	-0.371
-597.040	306.983	0.251	0.465
-596.025	800.000	-0.068	0.245
-595.011	59.881	0.056	-0.056
-593.996	-123.976	0.320	0.050
-592.982	-2.505	-0.272	-0.190
-591.967	58.963	0.188	-0.184
-590.952	-85.882	0.260	0.080
-589.938	800.000	0.025	0.098
-588.923	-21.845	-0.059	-0.035
-587.909	327.873	-0.115	-0.220
-586.894	206.566	-0.069	0.106
-585.879	-5.458	0.205	-0.140
-584.865	-200.000	-0.008	0.052
-583.850	46.179	0.060	0.055
-582.836	800.000	-0.071	-0.289
-581.821	-64.755	0.458	-0.185
-580.806	800.000	-0.061	0.189
-579.792	-107.810	-0.341	-0.074
-578.777	158.534	-0.125	0.173
-577.763	262.112	-0.133	-0.229
-576.748	131.586	-0.040	-0.051
-575.733	-200.000	-0.040	0.219
-574.719	-43.185	-0.168	0.085
-573.704	-2.177	-0.225	0.157
-572.690	-51.682	-0.259	-0.120
-571.675	457.406	0.084	-0.185
-570.661	100.394	-0.192	0.221
-569.646	43.504	-0.030	-0.027
-568.631	299.465	-0.127	0.233
-567.617	-30.197	0.276	0.156
-566.602	800.000	-0.032	-0.108
-565.588	65.212	-0.104	-0.104
-564.573	-22.770	0.163	0.098
-563.558	-24.969	-0.230	0.135
-562.544	-200.000	0.056	-0.482
-561.529	800.000	0.083	0.274
-560.515	-30.977	0.355	-0.199
-559.500	-102.844	-0.185	0.044
-558.485	0.950	-0.033	0.024
-557.471	-200.000	-0.001	-0.169
-556.456	800.000	0.042	0.152
-555.442	-200.000	-0.031	-0.150
-554.427	11.738	-0.121	0.092
-553.412	-126.904	0.340	-0.050
-552.398	800.000	0.021	0.059
-551.383	69.961	-0.115	-0.118
-550.369	800.000	-0.064	0.214
-549.354	-119.258	-0.012	-0.002
-548.339	-86.483	0.482	0.147
-547.325	-62.697	-0.265	0.109
-546.310	-200.000	0.041	-0.501
-545.296	-200.000	0.028	0.259
-544.281	-122.218	0.162	-0.026
-543.266	-113.654	0.166	-0.032
-542.252	-200.000	0.003	-0.173
-541.237	237.907	-0.091	0.150
-540.223	-183.890	-0.238	-0.004
-539.208	-138.092	0.243	-0.027
-538.193	468.818	-0.058	0.129
-537.179	-1.782	-0.030	-0.021
-536.164	122.598	0.098	-0.122
-535.150	-200.000	-0.019	0.223
-534.135	-44.680	0.312	0.155
-533.121	-200.000	0.028	0.443
-532.106	-19.454	0.155	0.095
-531.091	-161.000	0.064	0.003
-530.077	-132.654	0.238	-0.030
-529.062	-200.000	0.017	-0.188
-528.048	800.000	0.057	0.159
-527.033	-45.558	-0.141	-0.069
-526.018	187.424	0.213	0.315
-525.004	800.000	-0.011	0.031
-523.989	578.713	-0.086	-0.208
-522.975	128.446	0.109	-0.137
-521.960	-200.000	0.009	-0.153
-520.945	-200.000	0.006	0.377
-519.931	554.090	-0.069	0.164
-518.916	283.349	0.055	0.097
-517.902	-163.204	0.309	0.015
-516.887	137.656	-0.112	0.145
-515.872	269.275	0.110	-0.192
-514.858	237.374	-0.104	0.171
-513.843	-4.900	0.101	-0.069
-512.829	-143.304	0.227	-0.022
-511.814	101.158	0.008	0.010
-510.799	-200.000	-0.003	-0.249
-509.785	66.085	0.296	0.299
-508.770	92.291	-0.165	0.185
-507.756	-7.678	0.269	-0.180
-506.741	549.695	0.022	0.052
-505.726	-177.629	0.135	-0.003
-504.712	-200.000	0.014	-0.281
-503.697	-57.713	0.193	-0.084
-502.683	744.049	0.161	0.429
-501.668	169.693	0.269	-0.382
-500.653	-51.530	-0.293	0.136
-499.639	-200.000	-0.097	-0.575
-498.624	-13.307	-0.142	0.092
-497.610	-70.982	0.074	-0.027
-496.595	259.347	-0.116	0.199
-495.581	-71.351	0.292	0.109
-494.566	-31.453	-0.205	0.114
-493.551	-35.539	0.203	0.109
-492.537	-59.713	0.231	-0.098
-491.522	-200.000	-0.023	0.130
-490.508	526.741	0.036	0.085
-489.493	-101.570	0.330	-0.080
-488.478	-8.926	0.276	-0.183
-487.464	140.747	0.033	-0.043
-486.449	-70.436	0.168	0.063
-485.435	-200.000	0.005	-0.076
-484.420	-51.818	-0.125	0.058
-483.405	-142.455	0.326	0.032
-482.391	-200.000	0.024	0.319
-481.376	215.620	-0.120	-0.189
-480.362	-26.464	0.103	-0.060
-479.347	800.000	0.063	0.192
-478.332	-50.327	0.289	0.135
-477.318	-31.851	-0.321	0.178
-476.303	14.945	0.025	-0.019
-475.289	204.281	0.150	0.231
-474.274	-83.414	0.175	-0.056
-473.259	242.738	0.204	-0.339
-472.245	420.677	-0.075	0.158
-471.230	-118.596	0.142	0.025
-470.216	-108.188	-0.122	0.026
-469.201	-67.959	-0.164	-0.063
-468.186	148.229	0.090	-0.120
-467.172	-200.000	-0.004	0.130
-466.157	-200.000	0.042	-0.222
-465.143	-28.617	0.247	0.141
-464.128	154.086	-0.278	-0.378
-463.113	800.000	0.076	-0.240
-462.099	-33.712	0.237	-0.130
-461.084	72.843	0.229	-0.237
-460.070	456.035	0.101	0.222
-459.055	-12.269	0.091	-0.059
-458.040	26.719	0.392	-0.325
-457.026	-69.355	0.246	0.094
-456.011	-149.374	0.269	-0.021
-454.997	-200.000	-0.020	0.142
-453.982	108.252	-0.273	-0.322
-452.968	800.000	-0.095	0.284
-451.953	800.000	0.029	0.112
-450.938	-43.800	-0.307	0.153
-449.924	800.000	-0.042	-0.146
-448.909	800.000	-0.054	0.167
-447.895	14.188	-0.183	0.141
-446.880	402.993	-0.076	0.158
-445.865	800.000	-0.093	0.259
-444.851	-200.000	0.048	0.260
-443.836	-72.629	-0.280	-0.102
-442.822	-68.930	-0.277	0.106
-441.807	15.652	0.231	-0.180
-440.792	254.943	-0.149	0.252
-439.778	-200.000	0.044	0.267
-438.763	-200.000	-0.004	0.099
-437.749	-180.280	0.083	0.002
-436.734	215.516	-0.108	0.169
-435.719	800.000	-0.050	0.181
-434.705	-75.133	0.342	0.121
-433.690	201.975	0.191	0.292
-432.676	22.392	-0.186	-0.150
-431.661	800.000	0.033	0.102
-430.646	-92.560	-0.443	0.123
-429.632	-3.341	0.161	0.111
-428.617	-200.000	0.002	0.231
-427.603	35.965	-0.062	-0.054
-426.588	-200.000	-0.028	-0.264
-425.573	-28.603	-0.172	-0.098
-424.559	10.264	0.266	-0.200
-423.544	-135.740	0.233	-0.027
-422.530	175.861	-0.084	-0.121
-421.515	-104.400	-0.561	-0.128
-420.500	800.000	-0.103	0.316
-419.486	16.253	0.197	-0.154
-418.471	168.350	0.128	-0.181
-417.457	-32.174	-0.204	0.113
-416.442	465.199	-0.061	-0.134
-415.428	203.325	-0.216	0.330
-414.413	-200.000	-0.013	0.138
-413.398	800.000	0.033	-0.113
-412.384	-75.264	-0.226	-0.080
-411.369	153.057	-0.252	0.341
-410.355	0.599	-0.247	-0.175
-409.340	800.000	-0.059	-0.183
-408.325	-45.978	0.154	0.075
-407.311	-200.000	-0.022	-0.165
-406.296	5.606	0.163	-0.119
-405.282	-17.136	-0.138	0.086
-404.267	27.349	0.087	0.072
-403.252	-5.632	0.014	-0.009
-402.238	-110.404	0.171	0.035
-401.223	102.773	0.113	-0.131
-400.209	800.000	0.081	-0.346
-399.194	-200.000	-0.025	-0.356
-398.179	325.214	0.058	0.110
-397.165	-42.931	0.195	0.098
-396.150	-37.468	0.191	0.101
-395.136	4.156	0.119	-0.086
-394.121	-13.697	-0.120	-0.077
-393.106	636.229	-0.011	0.028
-392.092	-200.000	0.054	0.420
-391.077	36.095	0.053	0.046
-390.063	238.537	0.107	-0.175
-389.048	79.241	0.136	0.143
-388.033	-118.192	-0.289	0.051
-387.019	-83.776	0.354	-0.111
-386.004	228.938	-0.144	0.232
-384.990	-41.882	0.336	0.170
-383.975	401.410	-0.077	0.159
-382.960	104.546	0.267	-0.311
-381.946	-76.672	0.218	-0.076
-380.931	-125.168	-0.006	-0.001
-379.917	-110.471	-0.161	-0.033
-378.902	-167.445	-0.306	0.012
-377.888	-23.057	0.227	-0.135
-376.873	-200.000	0.018	-0.218
-375.858	38.425	-0.183	-0.161
-374.844	166.398	0.254	0.355
-373.829	452.342	-0.056	0.122
-372.815	12.268	-0.208	-0.158
-371.800	320.534	0.028	0.052
-370.785	-200.000	-0.051	-0.275
-369.771	-146.483	-0.131	0.011
-368.756	800.000	-0.076	-0.273
-367.742	-55.895	-0.135	0.060
-366.727	-15.595	0.173	0.109
-365.712	74.270	-0.185	-0.192
-364.698	73.083	-0.108	0.112
-363.683	326.359	-0.034	0.064
-362.669	-200.000	-0.009	-0.348
-361.654	320.331	-0.174	0.325
-360.639	800.000	0.018	0.056
-359.625	-125.895	-0.120	-0.018
-358.610	-200.000	-0.054	0.367
-357.596	-70.688	0.075	-0.028
-356.581	555.152	-0.094	0.223
-355.566	-200.000	-0.010	0.346
-354.552	692.019	0.008	0.020
-353.537	-163.386	-0.180	-0.008
-352.523	190.927	0.131	0.194
-351.508	684.711	0.066	0.169
-350.493	800.000	0.092	-0.299
-349.479	-71.884	-0.112	-0.041
-348.464	-66.388	-0.206	0.081
-347.450	800.000	-0.060	0.200
-346.435	103.113	-0.185	-0.214
-345.420	-200.000	0.007	0.391
-344.406	-15.075	0.194	0.123
-343.391	86.078	-0.218	-0.237
-342.377	-123.169	-0.093	-0.015
-341.362	-200.000	0.023	0.129
-340.348	473.795	-0.116	0.258
-339.333	-200.000	-0.065	-0.319
-338.318	-21.532	0.145	-0.087
-337.304	-200.000	0.005	0.518
-336.289	45.599	-0.201	-0.183
-335.275	-14.409	-0.156	-0.099
-334.260	-200.000	-0.042	0.381
-333.245	-57.170	0.183	0.080
-332.231	568.681	0.022	0.052
-331.216	800.000	-0.008	0.031
-330.202	443.233	-0.019	-0.040
-329.187	-11.477	-0.276	0.179
-328.172	-200.000	0.017	0.151
-327.158	-119.577	-0.139	-0.024
-326.143	49.279	0.144	-0.134
-325.129	-200.000	0.006	-0.134
-324.114	252.236	0.019	0.032
-323.099	624.272	-0.048	0.118
-322.085	114.630	0.193	0.231
-321.070	55.054	0.044	0.042
-320.056	-80.660	-0.186	0.061
-319.041	354.412	-0.088	-0.172
-318.026	-200.000	-0.015	0.298
-317.012	224.032	0.147	0.234
-315.997	-200.000	0.012	-0.561
-314.983	173.608	0.132	0.188
-313.968	-120.053	-0.123	0.021
-312.953	554.932	-0.056	0.132
-311.939	322.275	-0.188	0.353
-310.924	-200.000	0.004	-0.153
-309.910	-52.591	0.294	-0.134
-308.895	216.458	0.117	0.183
-307.880	39.536	0.150	0.132
-306.866	-17.448	0.314	0.194
-305.851	-185.374	0.083	-0.001
-304.837	-51.462	0.284	-0.131
-303.822	-200.000	0.005	0.031
-302.807	800.000	-0.102	0.407
-301.793	800.000	-0.062	0.262
-300.778	283.958	0.106	0.188
-299.764	89.801	-0.102	0.112
-298.749	-200.000	0.012	-0.309
-297.735	43.444	0.181	0.163
-296.720	316.637	-0.041	0.077
-295.705	-14.937	-0.395	-0.249
-294.691	-87.448	-0.290	-0.087
-293.676	-33.996	-0.087	-0.047
-292.662	-85.452	-0.137	0.042
-291.647	17.423	0.128	0.100
-290.632	-96.089	-0.246	-0.064
-289.618	442.237	0.053	-0.114
-288.603	155.617	0.178	-0.242
-287.589	-81.030	-0.432	0.141
-286.574	14.427	0.355	0.273
-285.559	76.599	0.122	0.127
-284.545	-153.111	0.456	-0.031
-283.530	-17.712	0.144	-0.089
-282.516	281.484	-0.129	-0.227
-281.501	-162.788	0.178	-0.009
-280.486	-106.057	0.267	0.059
-279.472	84.169	-0.127	-0.136
-278.457	-169.700	0.212	-0.008
-277.443	398.463	-0.084	-0.174
-276.428	249.386	-0.030	0.050
-275.413	18.397	0.184	-0.144
-274.399	-101.754	-0.194	-0.046
-273.384	-113.649	-0.290	0.056
-272.370	-200.000	-0.005	0.107
-271.355	-17.711	-0.216	-0.133
-270.340	-66.608	-0.349	-0.136
-269.326	553.118	0.097	-0.229
-268.311	214.123	0.208	-0.324
-267.297	112.174	0.121	0.144
-266.282	305.497	-0.242	-0.442
-265.267	-61.646	0.383	-0.158
-264.253	800.000	-0.028	-0.093
-263.238	-123.304	-0.340	-0.053
-262.224	595.948	0.223	-0.544
-261.209	-68.513	-0.179	0.068
-260.195	81.790	-0.225	0.239
-259.180	-174.768	0.398	-0.011
-258.165	-190.194	-0.122	-0.001
-257.151	-28.629	0.125	-0.071
-256.136	-53.113	-0.068	-0.031
-255.122	17.155	0.048	-0.037
-254.107	308.493	0.147	-0.270
-253.092	79.047	-0.131	0.138
-252.078	5.772	-0.176	0.128
-251.063	309.524	0.058	-0.107
-250.049	29.032	0.107	0.089
-249.034	800.000	-0.015	0.059
-248.019	90.805	-0.211	-0.232
-247.005	-200.000	0.013	-0.087
-245.990	-45.064	-0.204	0.100
-244.976	-64.750	-0.066	0.026
-243.961	56.726	-0.225	-0.215
-242.946	44.317	0.087	-0.078
-241.932	-186.010	0.442	0.006
-240.917	34.890	-0.228	-0.196
-239.903	92.215	0.018	-0.019
-238.888	-27.410	-0.212	-0.121
-237.873	445.055	0.087	-0.188
-236.859	164.464	-0.260	0.360
-235.844	800.000	0.028	0.099
-234.830	199.416	0.242	-0.364
-233.815	-77.563	-0.163	0.056
-232.800	178.296	-0.170	-0.244
-231.786	39.879	-0.084	0.074
-230.771	-71.208	-0.414	0.153
-229.757	-200.000	-0.009	-0.109
-228.742	-35.740	0.240	-0.128
-227.727	-52.446	-0.321	0.146
-226.713	694.668	0.027	-0.068
-225.698	-62.044	-0.227	0.093
-224.684	53.541	-0.218	0.205
-223.669	190.979	0.080	0.118
-222.655	248.826	0.158	0.262
-221.640	141.085	-0.142	-0.184
-220.625	-110.620	-0.230	0.047
-219.611	-200.000	0.041	0.196
-218.596	800.000	0.061	0.168
-217.582	-107.264	-0.101	-0.022
-216.567	-72.231	0.120	0.044
-215.552	-200.000	-0.015	-0.168
-214.538	-74.607	-0.163	0.058
-213.523	800.000	-0.063	-0.200
-212.509	800.000	-0.067	-0.255
-211.494	800.000	-0.068	-0.286
-210.479	-71.215	-0.273	-0.100
-209.465	800.000	-0.072	-0.247
-208.450	-12.153	0.109	0.070
-207.436	114.469	-0.075	-0.090
-206.421	358.245	-0.106	0.207
-205.406	587.514	0.149	-0.359
-204.392	-70.388	0.025	0.009
-203.377	-144.786	-0.402	-0.036
-202.363	-85.323	-0.138	-0.042
-201.348	445.084	0.077	0.166
-200.333	-5.689	0.154	-0.104
-199.319	75.748	0.131	0.136
-198.304	-115.384	-0.064	-0.012
-197.290	145.367	-0.073	0.096
-196.275	179.786	0.129	0.185
-195.260	-64.178	-0.356	-0.142
-194.246	8.854	0.094	-0.070
-193.231	-73.138	-0.134	-0.048
-192.217	47.022	0.140	-0.128
-191.202	-200.000	0.043	-0.227
-190.187	156.438	0.158	-0.214
-189.173	-198.525	-0.532	-0.003
-188.158	337.187	0.111	-0.212
-187.144	-103.865	0.163	-0.037
-186.129	142.878	0.394	-0.513
-185.114	-71.532	0.211	-0.077
-184.100	-200.000	-0.014	-0.191
-183.085	-101.926	0.444	0.105
-182.071	92.377	0.097	-0.107
-181.056	233.602	-0.185	-0.299
-180.042	-100.881	0.355	0.086
-179.027	109.666	0.216	0.253
-178.012	-24.257	-0.279	-0.163
-176.998	800.000	-0.048	0.155
-175.983	-9.181	0.365	-0.239
-174.969	-83.087	0.391	-0.123
-173.954	-114.904	0.367	0.068
-172.939	-90.473	-0.392	-0.111
-171.925	800.000	-0.052	-0.222
-170.910	800.000	-0.031	0.123
-169.896	-70.559	0.006	0.002
-168.881	51.260	-0.111	-0.103
-167.866	136.460	-0.084	0.108
-166.852	566.346	0.051	-0.121
-165.837	36.020	0.165	0.142
-164.823	-45.005	0.079	-0.038
-163.808	-200.000	-0.013	-0.100
-162.793	800.000	-0.143	0.461
-161.779	-24.503	0.037	0.021
-160.764	-200.000	-0.035	-0.251
-159.750	-141.299	0.087	0.009
-158.735	-102.666	-0.170	-0.040
-157.720	542.236	0.065	-0.152
-156.706	316.473	0.048	-0.088
-155.691	800.000	-0.060	0.217
-154.677	27.417	-0.122	-0.100
-153.662	-192.944	-0.160	0.001
-152.647	-19.618	0.206	-0.125
-151.633	-67.035	-0.246	0.095
-150.618	-100.502	-0.261	-0.063
-149.604	800.000	-0.017	-0.064
-148.589	800.000	-0.085	-0.293
-147.574	800.000	0.146	0.477
-146.560	12.891	-0.385	-0.291
-145.545	-185.790	-0.076	-0.001
-144.531	367.794	0.147	0.290
-143.516	-120.552	0.220	0.036
-142.502	12.430	-0.099	-0.075
-141.487	166.010	-0.152	-0.211
-140.472	299.301	0.223	0.402
-139.458	264.507	-0.120	-0.205
-138.443	43.415	0.169	0.151
-137.429	-113.624	0.056	-0.011
-136.414	-200.000	-0.043	-0.400
-135.399	279.597	-0.039	0.067
-134.385	800.000	-0.088	0.292
-133.370	-129.730	0.340	0.046
-132.356	-125.620	-0.156	0.023
-131.341	-78.919	0.068	0.023
-130.326	800.000	-0.013	-0.037
-129.312	171.956	0.044	0.062
-128.297	179.681	0.048	0.068
-127.283	-101.631	0.363	0.086
-126.268	-88.590	0.094	0.027
-125.253	-64.546	0.196	0.078
-124.239	-60.375	0.357	0.148
-123.224	-200.000	0.012	-0.363
-122.210	-123.341	0.113	0.018
-121.195	-200.000	-0.002	0.108
-120.180	123.788	0.067	0.083
-119.166	-29.015	-0.130	0.073
-118.151	-104.802	0.326	-0.073
-117.137	-146.090	-0.108	-0.009
-116.122	-200.000	0.070	0.393
-115.107	-200.000	-0.046	-0.252
-114.093	89.210	0.108	-0.118
-113.078	800.000	0.024	0.089
-112.064	362.377	0.180	-0.353
-111.049	800.000	0.086	-0.258
-110.034	63.197	-0.046	0.045
-109.020	-200.000	0.088	-0.513
-108.005	-75.483	-0.249	-0.087
-106.991	2.936	-0.132	0.094
-105.976	166.880	-0.113	0.157
-104.962	-140.129	-0.144	0.015
-103.947	-21.246	-0.191	0.114
-102.932	-28.705	0.414	-0.233
-101.918	224.691	0.204	-0.322
-100.903	-81.149	0.093	-0.030
-99.889	-69.719	0.120	-0.045
-98.874	-200.000	-0.030	0.149
-97.859	-61.919	0.149	-0.061
-96.845	33.490	-0.205	0.174
-95.830	-81.242	-0.065	0.021
-94.816	289.614	-0.108	0.192
-93.801	275.859	0.065	-0.112
-92.786	18.491	-0.070	0.054
-91.772	60.259	-0.084	0.081
-90.757	344.959	0.154	-0.296
-89.743	5.959	0.235	0.170
-88.728	55.886	0.091	-0.086
-87.713	199.657	0.006	-0.009
-86.699	17.087	-0.055	0.042
-85.684	187.709	-0.115	-0.168
-84.670	49.598	-0.204	0.187
-83.655	621.802	-0.059	-0.146
-82.640	16.759	-0.169	-0.131
-81.626	-121.751	0.224	-0.036
-80.611	800.000	-0.116	-0.436
-79.597	79.834	-0.267	0.280
-78.582	800.000	-0.016	0.067
-77.567	-143.208	0.407	0.038
-76.553	800.000	-0.154	-0.443
-75.538	-41.847	0.165	-0.082
-74.524	-200.000	-0.001	0.107
-73.509	101.787	0.038	0.044
-72.494	-90.847	-0.246	0.069
-71.480	-155.031	-0.153	-0.010
-70.465	-93.737	0.459	0.123
-69.451	38.446	-0.219	0.190
-68.436	-200.000	-0.023	-0.418
-67.422	681.302	0.072	0.183
-66.407	-135.995	0.139	-0.016
-65.392	83.221	-0.081	0.086
-64.378	-200.000	0.034	-0.333
-63.363	-41.927	0.036	0.018
-62.349	191.000	0.066	0.097
-61.334	-13.872	-1.161	-0.731
-60.319	68.562	0.727	0.727
-59.305	800.000	-0.508	-1.560
-58.290	190.711	1.035	1.517
-57.276	800.000	0.445	1.506
-56.261	-200.000	133.296	673.214
-55.246	326.577	1681.684	3139.941
-54.232	132.224	2817.220	3537.517
-53.217	86.383	2184.159	2346.188
-52.203	31.814	1611.572	1352.249
-51.188	23.792	1358.812	1091.085
-50.173	21.471	1322.600	1048.074
-49.159	49.370	1396.987	1280.598
-48.144	45.677	1405.866	1265.921
-47.130	23.754	1352.958	1085.979
-46.115	20.529	1333.797	1051.087
-45.100	20.340	1328.400	1045.650
-44.086	20.350	1325.799	1043.626
-43.071	20.323	1323.720	1041.785
-42.057	20.226	1321.534	1039.442
-41.042	20.247	1319.909	1038.246
-40.027	20.281	1318.596	1037.378
-39.013	20.380	1316.171	1036.016
-37.998	20.305	1314.817	1034.467
-36.984	20.482	1312.814	1033.903
-35.969	20.433	1311.134	1032.247
-34.954	20.460	1309.806	1031.317
-33.940	20.464	1308.385	1030.183
-32.925	20.399	1307.144	1028.780
-31.911	20.429	1305.541	1027.655
-30.896	20.543	1304.058	1027.119
-29.881	20.660	1302.181	1026.294
-28.867	20.609	1301.062	1025.070
-27.852	20.574	1299.740	1023.779
-26.838	20.602	1298.341	1022.804
-25.823	20.562	1296.775	1021.296
-24.809	20.506	1295.946	1020.273
-23.794	20.642	1294.158	1019.622
-22.779	20.528	1292.711	1017.770
-21.765	20.482	1291.793	1016.738
-20.750	20.447	1290.762	1015.681
-19.736	20.459	1289.260	1014.530
-18.721	20.401	1288.650	1013.671
-17.706	20.499	1287.072	1012.963
-16.692	20.333	1286.479	1011.491
-15.677	20.381	1285.165	1010.695
-14.663	20.336	1283.762	1009.287
-13.648	20.442	1282.636	1008.981
-12.633	20.494	1281.329	1008.213
-11.619	20.345	1281.178	1007.191
-10.604	20.441	1280.024	1006.801
-9.590	20.228	1279.440	1005.065
-8.575	20.264	1278.421	1004.434
-7.560	20.267	1277.339	1003.564
-6.546	20.343	1276.751	1003.496
-5.531	20.336	1275.784	1002.661
-4.517	20.418	1274.849	1002.356
-3.502	20.318	1274.295	1001.304
-2.487	20.377	1272.984	1000.575
-1.473	20.447	1268.168	997.154
-0.458	19.176	1253.777	978.577
0.556	15.157	1239.308	945.256
1.571	11.822	1248.696	933.342
2.586	11.236	1264.757	941.879
3.600	11.379	1251.530	932.765
4.615	8.484	1179.141	863.120
5.629	3.096	1108.697	784.075
6.644	0.755	1092.646	760.880
7.659	0.534	1091.164	758.672
8.673	0.422	1090.191	757.364
9.688	0.560	1088.264	756.648
10.702	0.681	1086.213	755.763
11.717	3.840	1090.008	774.174
12.731	10.270	1098.406	812.423
13.746	15.201	1105.168	842.197
14.761	17.025	1106.743	852.493
15.775	16.454	1105.096	848.286
16.790	15.441	1103.437	841.858
17.804	14.822	1101.802	837.437
18.819	14.366	1100.733	834.266
19.834	14.290	1099.523	832.894
20.848	13.956	1098.615	830.461
21.863	13.729	1097.788	828.628
22.877	13.617	1096.932	827.354
23.892	13.662	1095.566	826.475
24.907	13.433	1095.314	825.069
25.921	13.580	1094.811	825.350
26.936	13.607	1093.939	824.753
27.950	13.663	1092.725	824.042
28.965	13.788	1091.384	823.580
29.980	13.587	1090.825	822.090
30.994	13.664	1089.795	821.618
32.009	13.725	1088.459	820.841
33.023	13.850	1087.116	820.374
34.038	13.685	1086.065	818.694
35.053	13.691	1085.042	817.882
36.067	13.652	1084.644	817.318
37.082	13.715	1083.662	816.815
38.096	13.798	1082.892	816.571
39.111	13.665	1082.195	815.315
40.126	13.621	1080.689	813.893
41.140	13.733	1079.233	813.276
42.155	13.574	1078.458	811.841
43.169	13.597	1077.583	811.224
44.184	13.467	1076.708	809.854
45.199	13.575	1075.478	809.389
46.213	13.468	1074.655	808.175
47.228	13.527	1073.512	807.532
48.242	13.596	1072.045	806.691
49.257	13.646	1070.949	806.039
50.271	13.718	1070.181	805.741
51.286	13.611	1069.497	804.633
52.301	13.696	1068.298	804.072
53.315	13.645	1067.156	802.895
54.330	13.631	1066.272	802.090
55.344	13.567	1065.267	800.953
56.359	13.559	1064.490	800.261
57.374	13.624	1063.646	799.870
58.388	13.429	1063.251	798.562
59.403	13.578	1061.956	798.233
60.417	13.536	1061.106	797.325
61.432	13.393	1060.542	796.140
62.447	13.472	1059.766	795.868
63.461	13.562	1058.227	795.072
64.476	13.493	1057.768	794.327
65.490	13.475	1056.561	793.262
66.505	13.507	1056.046	792.960
67.520	13.497	1055.323	792.299
68.534	13.626	1054.441	792.182
69.549	13.471	1053.763	790.866
70.563	13.627	1052.401	790.516
71.578	13.432	1051.888	789.133
72.593	13.412	1051.466	788.651
73.607	13.527	1050.502	788.404
74.622	13.431	1050.012	787.511
75.636	13.456	1049.425	787.119
76.651	13.431	1048.651	786.352
77.666	13.462	1048.073	785.995
78.680	13.517	1047.091	785.448
79.695	13.441	1046.714	784.736
80.709	13.529	1045.995	784.543
81.724	13.425	1045.408	783.545
82.739	13.606	1044.599	783.722
83.753	13.696	1043.717	783.418
84.768	13.706	1042.942	782.813
85.782	13.669	1042.122	781.953
86.797	13.626	1040.821	780.708
87.812	13.539	1039.691	779.382
88.826	13.591	1038.830	778.912
89.841	13.714	1037.942	778.756
90.855	13.721	1037.286	778.227
91.870	13.768	1036.048	777.449
92.884	13.716	1035.902	777.025
93.899	13.686	1034.668	775.891
94.914	13.716	1033.600	775.161
95.928	13.770	1032.986	774.884
96.943	13.788	1032.002	774.163
97.957	13.786	1031.239	773.514
98.972	13.849	1030.019	772.823
99.987	13.663	1029.206	771.278
101.001	13.764	1028.337	771.026
102.016	13.685	1027.155	769.708
103.030	13.806	1026.625	769.804
104.045	13.782	1025.908	769.087
105.060	13.707	1024.750	767.804
106.074	13.637	1023.917	766.788
107.089	13.608	1022.973	765.880
108.103	13.688	1021.552	765.115
109.118	13.678	1020.714	764.372
110.133	13.618	1020.116	763.580
111.147	13.640	1019.183	762.918
112.162	13.644	1017.920	761.921
113.176	13.590	1017.312	761.153
114.191	13.748	1016.767	761.403
115.206	13.757	1015.642	760.534
116.220	13.719	1014.850	759.702
117.235	13.631	1014.200	758.743
118.249	13.725	1013.051	758.247
119.264	13.713	1012.530	757.737
120.279	13.636	1011.793	756.765
121.293	13.661	1010.729	756.016
122.308	13.793	1009.702	755.783
123.322	13.642	1009.213	754.661
124.337	13.667	1007.681	753.563
125.352	13.481	1007.056	752.185
126.366	13.736	1005.583	752.173
127.381	13.585	1004.858	750.881
128.395	13.652	1003.922	750.418
129.410	13.701	1002.959	749.852
130.424	13.648	1001.906	748.762
131.439	13.620	1001.425	748.209
132.454	13.574	1000.364	747.142
133.468	13.614	999.814	746.844
134.483	13.596	998.568	745.767
135.497	13.731	997.287	745.352
136.512	13.761	996.908	745.138
137.527	13.836	995.584	744.420
138.541	13.856	995.066	744.053
139.556	13.641	994.941	742.931
140.570	13.874	993.921	743.148
141.585	13.838	992.825	742.100
142.600	13.843	991.840	741.324
143.614	13.881	991.029	740.821
144.629	13.965	990.203	740.513
145.643	13.802	989.669	739.318
146.658	13.804	988.739	738.568
147.673	13.895	987.281	737.820
148.687	13.695	987.195	736.799
149.702	13.829	985.612	736.149
150.716	13.869	984.981	735.791
151.731	13.847	984.572	735.320
152.746	13.877	983.230	734.387
153.760	13.901	982.802	734.109
154.775	13.993	982.155	733.967
155.789	14.034	981.492	733.586
156.804	14.042	980.831	733.064
157.819	14.079	979.787	732.379
158.833	14.019	979.313	731.697
159.848	14.123	978.482	731.468
160.862	13.998	977.698	730.271
161.877	13.935	977.090	729.474
162.892	13.921	976.056	728.577
163.906	13.895	975.029	727.629
164.921	13.920	974.363	727.180
165.935	13.916	973.404	726.379
166.950	13.962	972.084	725.535
167.964	14.031	971.183	725.096
168.979	13.991	970.283	724.189
169.994	14.041	969.454	723.724
171.008	14.040	969.448	723.651
172.023	13.946	968.548	722.502
173.037	14.087	967.758	722.465
174.052	14.167	966.633	721.905
175.067	14.073	966.445	721.294
176.081	14.056	965.592	720.523
177.096	14.128	965.029	720.350
178.110	14.233	964.346	720.232
179.125	14.080	963.885	719.158
180.140	14.202	963.590	719.406
181.154	14.180	963.073	718.858
182.169	14.264	962.471	718.709
183.183	14.222	961.728	717.909
184.198	14.207	960.825	717.109
185.213	14.303	959.787	716.684
186.227	14.371	959.454	716.661
187.242	14.377	958.591	715.979
188.256	14.430	957.941	715.660
189.271	14.402	957.324	715.014
190.286	14.186	956.395	713.331
191.300	14.335	955.582	713.301
192.315	14.073	955.479	712.039
193.329	14.293	954.457	712.153
194.344	14.269	953.868	711.550
195.359	14.339	953.582	711.574
196.373	14.375	952.530	710.879
197.388	14.384	952.218	710.620
198.402	14.317	951.825	709.977
199.417	14.382	951.392	709.871
200.432	14.568	950.231	709.732
201.446	14.462	949.774	708.877
202.461	14.405	949.427	708.312
203.475	14.549	948.697	708.318
204.490	14.602	947.727	707.756
205.504	14.570	946.811	706.875
206.519	14.553	946.065	706.183
207.534	14.491	945.470	705.411
208.548	14.551	944.847	705.138
209.563	14.585	944.681	705.097
210.577	14.578	943.378	704.031
211.592	14.613	942.414	703.400
212.607	14.724	941.897	703.415
213.621	14.659	941.285	702.624
214.636	14.588	940.608	701.759
215.650	14.626	939.981	701.389
216.665	14.766	939.175	701.312
217.680	14.676	938.804	700.596
218.694	14.726	938.237	700.321
219.709	14.767	937.283	699.719
220.723	14.801	936.532	699.239
221.738	14.747	936.041	698.583
222.753	14.817	934.932	697.986
223.767	14.820	934.525	697.632
224.782	14.805	934.130	697.214
225.796	14.900	933.373	696.983
226.811	14.943	932.685	696.588
227.826	14.917	931.771	695.734
228.840	14.872	930.950	694.872
229.855	14.883	930.202	694.301
230.869	14.825	929.359	693.368
231.884	14.860	928.893	693.105
232.899	14.857	928.313	692.598
233.913	14.971	927.176	692.160
234.928	14.864	926.547	691.189
235.942	14.836	926.240	690.782
236.957	14.906	925.340	690.336
237.972	15.037	924.864	690.460
238.986	14.945	924.162	689.498
240.001	14.911	923.838	689.054
241.015	15.097	922.733	688.933
242.030	14.933	922.593	688.095
243.045	15.054	921.762	687.909
244.059	15.173	920.992	687.766
245.074	15.035	920.407	686.699
246.088	14.994	919.788	686.008
247.103	15.068	919.053	685.702
248.117	15.110	918.701	685.551
249.132	15.105	918.206	685.104
250.147	15.347	916.941	685.085
251.161	15.255	916.570	684.374
252.176	15.255	915.959	683.855
253.190	15.391	914.895	683.553
254.205	15.535	914.142	683.519
255.220	15.467	913.679	682.836
256.234	15.388	913.017	681.960
257.249	15.400	912.548	681.598
258.263	15.442	911.561	680.970
259.278	15.385	910.941	680.216
260.293	15.548	910.862	680.758
261.307	15.491	910.440	680.151
262.322	15.553	909.292	679.485
263.336	15.582	908.855	679.215
264.351	15.556	908.086	678.475
265.366	15.687	907.319	678.369
266.380	15.651	906.606	677.632
267.395	15.627	906.114	677.106
268.409	15.568	905.142	676.085
269.424	15.506	904.433	675.243
270.439	15.688	903.489	675.210
271.453	15.633	903.057	674.609
272.468	15.537	902.854	674.012
273.482	15.490	902.320	673.362
274.497	15.695	901.338	673.393
275.512	15.773	900.697	673.167
276.526	15.711	900.376	672.620
277.541	15.787	899.621	672.301
278.555	15.669	899.043	671.336
279.570	15.714	898.443	671.010
280.585	15.892	897.571	671.007
281.599	15.738	897.042	669.941
282.614	15.793	896.292	669.539
283.628	15.947	895.292	669.344
284.643	15.777	895.426	668.709
285.657	15.952	894.428	668.599
286.672	15.805	893.755	667.456
287.687	15.828	893.049	666.960
288.701	15.881	892.796	666.923
289.716	16.027	891.676	666.603
290.730	15.866	891.413	665.712
291.745	15.960	890.659	665.462
292.760	15.977	890.344	665.235
293.774	16.075	889.507	664.934
294.789	16.121	888.668	664.430
295.803	16.038	888.259	663.741
296.818	16.028	887.412	663.009
297.833	16.001	886.755	662.352
298.847	16.021	886.098	661.883
299.862	16.154	885.469	661.878
300.876	16.151	884.852	661.344
301.891	16.213	884.351	661.153
302.906	16.144	883.939	660.516
303.920	16.351	882.701	660.342
304.935	16.318	882.288	659.845
305.949	16.255	881.849	659.213
306.964	16.372	881.300	659.203
307.979	16.307	881.028	658.685
308.993	16.275	880.306	657.963
310.008	16.184	879.526	656.967
311.022	16.194	879.215	656.717
312.037	16.280	878.460	656.431
313.052	16.423	877.533	656.235
314.066	16.148	877.300	654.935
315.081	16.266	876.816	654.974
316.095	16.325	875.823	654.400
317.110	16.227	875.422	653.663
318.125	16.194	874.997	653.161
319.139	16.217	874.379	652.732
320.154	16.372	873.955	652.956
321.168	16.314	873.426	652.280
322.183	16.338	872.592	651.692
323.197	16.371	872.417	651.630
324.212	16.538	871.441	651.485
325.227	16.405	871.145	650.696
326.241	16.423	870.352	650.117
327.256	16.530	869.684	649.970
328.270	16.449	869.259	649.284
329.285	16.478	868.774	648.974
330.300	16.484	867.948	648.326
331.314	16.442	867.404	647.699
332.329	16.517	867.147	647.738
333.343	16.473	867.071	647.453
334.358	16.644	866.196	647.399
335.373	16.550	865.872	646.739
336.387	16.486	865.829	646.404
337.402	16.705	865.317	646.802
338.416	16.563	865.224	646.131
339.431	16.744	864.540	646.257
340.446	16.789	863.779	645.802
341.460	16.799	863.793	645.792
342.475	16.828	863.093	645.324
343.489	16.660	862.732	644.358
344.504	16.626	862.519	644.012
345.519	16.686	861.779	643.631
346.533	16.756	861.265	643.456
347.548	16.722	860.733	642.872
348.562	16.842	859.779	642.556
349.577	16.675	859.532	641.684
350.592	16.729	858.985	641.420
351.606	16.752	858.281	640.928
352.621	16.762	857.510	640.333
353.635	16.700	857.531	640.057
354.650	16.933	856.312	639.971
355.665	16.930	855.431	639.244
356.679	16.969	854.790	638.853
357.694	16.962	854.324	638.425
358.708	16.956	853.529	637.749
359.723	16.940	853.293	637.458
360.738	17.089	852.509	637.375
361.752	16.858	851.974	636.052
362.767	16.990	851.522	636.152
363.781	16.990	850.699	635.482
364.796	16.961	850.619	635.256
365.810	17.173	849.687	635.297
366.825	17.171	849.235	634.894
367.840	17.119	848.877	634.380
368.854	17.117	848.837	634.284
369.869	17.185	847.825	633.724
370.883	17.252	847.610	633.760
371.898	17.241	847.404	633.507
372.913	17.237	846.997	633.131
373.927	17.351	846.720	633.294
374.942	17.297	845.631	632.224
375.956	17.296	845.723	632.234
376.971	17.272	844.998	631.543
377.986	17.403	844.537	631.629
379.000	17.454	843.961	631.334
380.015	17.584	843.243	631.220
381.029	17.474	842.568	630.254
382.044	17.493	841.967	629.817
383.059	17.402	841.822	629.319
384.073	17.442	841.113	628.879
385.088	17.340	840.664	628.113
386.102	17.454	839.847	627.865
387.117	17.485	839.004	627.296
388.132	17.402	838.997	626.928
389.146	17.503	838.116	626.585
390.161	17.594	837.592	626.473
391.175	17.671	837.264	626.457
392.190	17.413	837.063	625.302
393.205	17.617	835.897	625.123
394.219	17.680	835.672	625.131
395.234	17.633	835.878	625.057
396.248	17.538	835.211	624.157
397.263	17.487	834.821	623.624
398.278	17.560	834.323	623.462
399.292	17.662	833.688	623.306
400.307	17.555	833.454	622.684
401.321	17.459	833.042	621.970
402.336	17.780	832.198	622.458
403.350	17.622	832.062	621.725
404.365	17.728	831.364	621.533
405.380	17.809	830.891	621.422
406.394	17.666	830.353	620.441
407.409	17.677	829.911	620.097
408.423	17.739	829.860	620.231
409.438	17.924	829.342	620.459
410.453	17.775	828.858	619.501
411.467	17.887	828.413	619.522
412.482	18.008	827.780	619.432
413.496	17.964	827.696	619.156
414.511	17.997	827.438	619.027
415.526	17.883	826.692	618.001
416.540	18.017	826.090	617.979
417.555	18.030	825.559	617.575
418.569	17.934	825.366	617.030
419.584	18.124	824.865	617.287
420.599	18.039	824.114	616.363
421.613	115.348	1301.791	1491.850
422.628	100.176	1371.326	1491.909
