DTS Sentinel unit serial number:	SN413079Multiplexer serial number:	ORYXHardware model number:	OX4-SRSoftware version number:	ORYX F/W v4.00 Oryx Data Collector v3.7.2.0data status	okinstallation	princeton_trtdifferential loss correction	single-endedforward channel	channel 1reverse channel	N/Adate	2019/09/13time	13:02:35forward acquisition time	60.00reverse acquisition time	0.00gamma	496.2192k internal	0.2306k external	0.2306temperature offset calibration	1.0165default loss term (dB/km)	0.3790temperature slope calibration	1.0000multiplexer offset coefficient	1.0000multiplexer slope coefficient	1.0000fibre end	0.00T internal ref (°C)	34.81T ext. ref 1 (°C)	4.57T ext. ref 2 (°C)	31.21length (m)	temperature (°C)	Stokes	anti-Stokes-747.200	-127.523	0.170	0.025
-746.185	82.696	-0.047	-0.052
-745.171	-18.756	0.285	-0.181
-744.156	-138.045	-0.378	0.043
-743.142	31.250	-0.037	0.033
-742.127	250.654	0.080	0.138
-741.112	-85.498	0.021	-0.007
-740.098	-136.254	0.280	0.033
-739.083	-16.506	-0.153	-0.099
-738.069	233.673	-0.084	0.141
-737.054	-94.267	0.085	0.024
-736.039	657.807	0.096	-0.250
-735.025	198.303	-0.078	0.121
-734.010	-102.196	-0.306	-0.075
-732.996	-69.818	-0.215	0.083
-731.981	13.301	-0.139	-0.109
-730.966	498.353	-0.027	-0.063
-729.952	-23.949	-0.141	0.086
-728.937	-149.062	-0.195	-0.016
-727.923	-98.270	0.097	-0.025
-726.908	218.289	-0.241	0.391
-725.894	-200.000	0.030	-0.279
-724.879	62.483	0.141	-0.143
-723.864	-92.378	0.064	0.018
-722.850	-200.000	-0.031	0.292
-721.835	-143.996	-0.126	-0.012
-720.821	-40.165	-0.144	-0.076
-719.806	-54.996	-0.329	0.151
-718.791	-134.784	-0.069	0.008
-717.777	8.239	-0.149	-0.114
-716.762	237.416	0.028	0.047
-715.748	265.759	-0.106	-0.188
-714.733	113.859	-0.134	-0.165
-713.718	27.320	-0.250	0.213
-712.704	58.608	-0.266	-0.265
-711.689	-105.473	0.131	0.030
-710.675	241.040	-0.103	-0.175
-709.660	59.456	-0.121	-0.121
-708.645	-200.000	-0.031	0.180
-707.631	800.000	0.049	-0.167
-706.616	-17.479	-0.171	-0.109
-705.602	-85.825	0.209	-0.066
-704.587	151.368	-0.273	-0.378
-703.572	-84.450	-0.131	0.042
-702.558	-111.595	0.362	-0.075
-701.543	236.908	-0.041	-0.070
-700.529	75.993	0.088	0.094
-699.514	800.000	-0.105	0.399
-698.499	344.224	0.024	0.047
-697.485	-116.361	-0.330	-0.062
-696.470	-18.165	0.158	-0.101
-695.456	343.079	0.047	0.093
-694.441	-200.000	0.010	-0.123
-693.426	-166.122	-0.310	-0.013
-692.412	127.481	-0.404	0.521
-691.397	800.000	-0.080	0.309
-690.383	668.348	0.109	0.288
-689.368	-45.689	0.027	-0.013
-688.354	201.051	0.187	-0.292
-687.339	-120.900	-0.229	-0.039
-686.324	-200.000	-0.066	-0.462
-685.310	-52.824	-0.085	0.040
-684.295	147.528	-0.038	0.053
-683.281	800.000	0.073	0.263
-682.266	-200.000	-0.044	0.198
-681.251	-200.000	-0.023	-0.124
-680.237	-102.053	0.036	0.009
-679.222	800.000	-0.125	0.356
-678.208	42.924	-0.121	-0.112
-677.193	-77.609	0.193	-0.068
-676.178	-93.632	0.114	0.032
-675.164	97.454	-0.406	-0.473
-674.149	-32.224	0.320	-0.181
-673.135	-9.764	-0.331	0.224
-672.120	-200.000	0.015	-0.115
-671.105	250.709	0.159	0.273
-670.091	-27.827	0.221	-0.130
-669.076	-85.248	0.191	-0.061
-668.062	800.000	0.048	-0.164
-667.047	-65.424	0.201	0.082
-666.032	-124.803	-0.100	0.016
-665.018	81.269	0.046	0.051
-664.003	-30.795	0.161	0.093
-662.989	416.138	0.070	0.152
-661.974	490.596	-0.083	0.193
-660.959	-200.000	-0.016	0.254
-659.945	-88.469	-0.393	0.119
-658.930	272.966	0.077	-0.138
-657.916	-95.805	0.116	-0.031
-656.901	-200.000	-0.024	0.266
-655.886	-200.000	-0.011	0.102
-654.872	-117.125	-0.374	0.069
-653.857	-93.011	0.394	-0.111
-652.843	800.000	0.070	-0.284
-651.828	106.296	0.098	-0.118
-650.814	-144.739	-0.363	-0.034
-649.799	-56.472	-0.151	-0.068
-648.784	489.679	-0.048	0.112
-647.770	351.532	0.164	-0.330
-646.755	455.859	0.056	0.127
-645.741	711.792	-0.079	-0.212
-644.726	571.219	-0.102	0.253
-643.711	-136.241	-0.245	-0.029
-642.697	-146.559	-0.125	-0.011
-641.682	-200.000	0.025	0.177
-640.668	-113.827	-0.154	0.030
-639.653	-200.000	0.045	0.313
-638.638	-44.708	-0.295	0.149
-637.624	87.704	0.253	0.284
-636.609	81.170	-0.240	-0.262
-635.595	52.974	-0.306	0.296
-634.580	64.512	-0.325	0.332
-633.565	-200.000	-0.019	-0.224
-632.551	105.929	0.093	0.112
-631.536	215.546	0.183	-0.294
-630.522	-200.000	-0.015	-0.248
-629.507	-41.085	-0.145	-0.076
-628.492	-200.000	-0.000	0.119
-627.478	-36.083	-0.378	-0.207
-626.463	-63.087	0.163	0.068
-625.449	-123.991	0.227	0.036
-624.434	582.067	-0.083	0.205
-623.419	-50.448	-0.304	-0.145
-622.405	-144.613	-0.285	0.027
-621.390	-0.421	0.091	-0.066
-620.376	45.559	-0.109	0.102
-619.361	-200.000	0.010	0.058
-618.346	-134.639	0.478	-0.059
-617.332	130.782	0.041	0.053
-616.317	20.107	-0.199	-0.163
-615.303	-90.319	-0.191	0.056
-614.288	294.575	-0.084	-0.156
-613.273	469.579	0.113	0.256
-612.259	800.000	-0.045	0.149
-611.244	-24.933	0.144	-0.087
-610.230	-200.000	-0.026	-0.258
-609.215	602.532	-0.088	0.222
-608.201	59.795	0.039	-0.038
-607.186	49.670	0.051	0.049
-606.171	-102.572	0.114	0.028
-605.157	-187.682	-0.189	0.003
-604.142	-28.669	0.195	-0.114
-603.128	60.062	-0.219	0.219
-602.113	103.538	-0.212	-0.251
-601.098	218.976	0.075	-0.121
-600.084	-200.000	-0.010	-0.200
-599.069	72.958	-0.425	-0.450
-598.055	55.277	-0.060	-0.059
-597.040	-128.114	-0.142	0.020
-596.025	800.000	0.089	0.318
-595.011	-94.654	-0.231	-0.063
-593.996	-165.125	-0.162	-0.007
-592.982	107.763	0.259	0.312
-591.967	-200.000	0.002	0.008
-590.952	-104.433	-0.190	0.045
-589.938	-55.336	0.251	-0.114
-588.923	-200.000	0.017	0.231
-587.909	208.896	-0.221	0.350
-586.894	74.726	-0.056	-0.059
-585.879	-56.229	-0.250	0.112
-584.865	-200.000	-0.012	0.149
-583.850	-200.000	0.002	-0.123
-582.836	-200.000	-0.018	-0.471
-581.821	-159.371	-0.363	-0.020
-580.806	724.587	0.092	-0.249
-579.792	-200.000	-0.015	0.278
-578.777	-93.022	0.126	-0.036
-577.763	-151.112	-0.090	0.007
-576.748	254.083	-0.126	-0.218
-575.733	-99.433	0.292	0.074
-574.719	33.474	-0.182	-0.160
-573.704	-70.853	-0.064	-0.024
-572.690	106.954	-0.160	-0.191
-571.675	74.434	0.126	-0.134
-570.661	33.629	-0.105	-0.092
-569.646	-76.216	-0.233	-0.083
-568.631	91.426	0.205	-0.233
-567.617	-19.893	0.187	-0.116
-566.602	67.809	-0.365	-0.377
-565.588	227.648	-0.250	-0.410
-564.573	-200.000	0.002	0.192
-563.558	84.783	0.181	-0.200
-562.544	126.788	0.332	-0.426
-561.529	107.976	-0.122	-0.147
-560.515	99.896	0.131	-0.154
-559.500	336.625	-0.064	-0.126
-558.485	800.000	-0.059	-0.198
-557.471	50.730	0.317	-0.303
-556.456	-134.215	0.159	-0.020
-555.442	417.130	0.150	-0.324
-554.427	304.040	0.194	0.363
-553.412	264.489	0.091	-0.159
-552.398	-200.000	0.101	-0.450
-551.383	52.446	0.227	0.219
-550.369	85.967	0.168	0.187
-549.354	147.832	-0.037	0.051
-548.339	-200.000	-0.005	0.270
-547.325	216.435	-0.115	0.185
-546.310	-117.589	0.190	-0.035
-545.296	30.542	-0.121	-0.105
-544.281	724.607	-0.084	0.225
-543.266	-152.273	-0.065	-0.005
-542.252	-200.000	-0.087	0.453
-541.237	-123.151	0.328	0.053
-540.223	-173.552	0.201	0.006
-539.208	-200.000	0.357	0.000
-538.193	-200.000	0.026	-0.145
-537.179	18.522	0.234	0.189
-536.164	-149.420	0.043	-0.003
-535.150	452.135	-0.169	-0.378
-534.135	-29.430	0.300	0.173
-533.121	-187.304	0.413	0.006
-532.106	456.698	-0.092	0.205
-531.091	-178.271	0.082	0.002
-530.077	-20.612	0.215	-0.133
-529.062	-123.391	-0.410	0.066
-528.048	352.056	0.032	-0.063
-527.033	-99.287	-0.225	-0.057
-526.018	-200.000	-0.061	-0.364
-525.004	-107.938	-0.065	-0.014
-523.989	30.613	-0.236	0.204
-522.975	166.074	0.164	0.234
-521.960	138.866	0.140	-0.186
-520.945	-200.000	0.049	-0.305
-519.931	-200.000	0.024	-0.199
-518.916	-16.426	-0.312	0.199
-517.902	-200.000	0.020	-0.190
-516.887	257.390	0.179	0.310
-515.872	-19.882	-0.258	0.160
-514.858	641.833	-0.133	-0.341
-513.843	280.959	0.081	-0.146
-512.829	-149.348	0.328	0.026
-511.814	-200.000	-0.048	0.345
-510.799	-200.000	-0.067	0.304
-509.785	148.788	-0.108	0.147
-508.770	203.229	-0.139	-0.216
-507.756	71.364	-0.209	-0.219
-506.741	800.000	-0.112	-0.336
-505.726	469.905	-0.079	-0.178
-504.712	-200.000	-0.045	-0.237
-503.697	-130.452	0.050	0.007
-502.683	282.443	-0.027	-0.048
-501.668	19.426	0.403	-0.327
-500.653	800.000	0.019	0.062
-499.639	-63.114	0.300	0.125
-498.624	232.910	-0.071	0.118
-497.610	-200.000	0.017	0.177
-496.595	-85.809	0.071	0.022
-495.581	-200.000	0.047	-0.209
-494.566	45.614	0.112	-0.104
-493.551	101.597	-0.038	-0.044
-492.537	-64.127	0.069	0.028
-491.522	35.284	0.157	-0.139
-490.508	-124.473	-0.233	0.037
-489.493	22.723	0.061	-0.051
-488.478	5.770	0.081	-0.060
-487.464	114.333	-0.173	0.212
-486.449	-200.000	-0.005	0.046
-485.435	477.550	-0.084	0.191
-484.420	315.183	0.054	0.102
-483.405	-179.148	-0.125	0.003
-482.391	203.495	-0.357	0.557
-481.376	-3.999	-0.149	0.104
-480.362	12.050	0.065	0.051
-479.347	-200.000	0.026	0.228
-478.332	-200.000	0.040	0.209
-477.318	432.992	-0.087	0.190
-476.303	-61.470	-0.693	0.293
-475.289	800.000	-0.075	-0.225
-474.274	300.006	0.101	0.187
-473.259	-66.231	-0.132	0.053
-472.245	-16.216	-0.288	-0.184
-471.230	169.841	0.032	0.046
-470.216	-133.258	-0.155	0.020
-469.201	271.663	0.078	0.138
-468.186	-200.000	0.012	-0.395
-467.172	800.000	0.033	0.132
-466.157	-100.904	-0.249	0.061
-465.143	800.000	0.059	-0.235
-464.128	-129.553	0.483	-0.067
-463.113	-200.000	0.007	-0.223
-462.099	430.533	0.218	0.474
-461.084	-125.562	0.138	0.021
-460.070	165.377	-0.035	0.049
-459.055	105.702	-0.027	0.033
-458.040	468.333	-0.178	0.403
-457.026	23.944	-0.214	-0.177
-456.011	21.885	0.129	-0.106
-454.997	154.766	0.052	-0.072
-453.982	246.969	-0.161	0.273
-452.968	800.000	-0.041	-0.127
-451.953	-85.166	0.125	-0.039
-450.938	238.196	0.049	0.081
-449.924	2.685	0.155	0.113
-448.909	188.143	-0.129	-0.194
-447.895	-200.000	-0.040	-0.181
-446.880	-66.495	-0.205	0.082
-445.865	-14.406	-0.099	-0.064
-444.851	-200.000	-0.050	-0.235
-443.836	-67.391	0.221	0.087
-442.822	20.370	0.297	0.242
-441.807	-32.587	0.225	-0.126
-440.792	-74.895	0.236	-0.085
-439.778	-33.002	-0.376	-0.210
-438.763	414.972	-0.098	-0.209
-437.749	-1.452	0.274	0.194
-436.734	-60.230	-0.075	0.032
-435.719	-175.609	0.251	-0.007
-434.705	2.607	0.337	0.246
-433.690	51.916	-0.110	-0.105
-432.676	-104.236	0.302	-0.070
-431.661	2.074	-0.191	0.139
-430.646	-104.353	-0.531	0.124
-429.632	-129.432	0.255	0.035
-428.617	-80.686	0.098	0.033
-427.603	93.518	-0.234	-0.266
-426.588	-122.240	-0.179	-0.029
-425.573	31.502	-0.307	-0.265
-424.559	-56.033	-0.208	0.093
-423.544	309.234	0.065	-0.122
-422.530	-88.179	-0.149	-0.045
-421.515	-100.127	-0.069	0.017
-420.500	-200.000	-0.031	0.151
-419.486	-61.495	-0.163	-0.069
-418.471	72.275	-0.179	-0.187
-417.457	800.000	-0.016	-0.068
-416.442	356.686	-0.094	0.188
-415.428	47.521	-0.105	0.098
-414.413	722.412	-0.070	-0.188
-413.398	77.125	-0.256	0.274
-412.384	-200.000	0.036	-0.308
-411.369	-200.000	0.008	0.074
-410.355	97.159	0.163	0.188
-409.340	-200.000	0.027	-0.158
-408.325	202.273	-0.091	0.140
-407.311	296.464	-0.080	0.147
-406.296	-105.373	-0.204	0.047
-405.282	154.420	-0.111	0.153
-404.267	800.000	-0.062	-0.187
-403.252	1.471	-0.178	0.128
-402.238	69.894	-0.101	0.104
-401.223	137.359	0.099	-0.130
-400.209	-200.000	0.013	-0.069
-399.194	-104.554	-0.346	-0.080
-398.179	133.386	-0.190	0.247
-397.165	-200.000	-0.032	0.153
-396.150	-82.328	-0.181	-0.059
-395.136	-200.000	-0.015	-0.219
-394.121	88.241	-0.073	0.081
-393.106	522.108	0.083	0.195
-392.092	230.856	-0.149	0.244
-391.077	-14.353	-0.065	0.042
-390.063	-1.808	-0.172	-0.121
-389.048	-40.169	0.101	-0.053
-388.033	2.961	-0.175	-0.127
-387.019	-12.393	0.239	-0.157
-386.004	-28.815	0.170	-0.098
-384.990	155.302	0.119	0.165
-383.975	249.837	-0.132	0.225
-382.960	24.389	-0.230	-0.190
-381.946	-200.000	-0.033	0.344
-380.931	-115.635	0.260	0.049
-379.917	-200.000	0.259	0.001
-378.902	196.742	0.261	-0.400
-377.888	210.743	-0.051	-0.081
-376.873	645.123	0.071	-0.183
-375.858	-200.000	0.053	-0.290
-374.844	493.360	0.065	0.150
-373.829	123.556	-0.115	0.145
-372.815	-129.852	0.277	-0.038
-371.800	-64.667	-0.186	-0.076
-370.785	92.668	-0.084	0.095
-369.771	8.041	0.328	0.246
-368.756	-179.261	0.260	-0.006
-367.742	-108.062	0.333	-0.072
-366.727	-44.167	0.115	0.058
-365.712	468.846	-0.122	-0.274
-364.698	800.000	0.043	-0.127
-363.683	800.000	-0.033	-0.104
-362.669	-85.511	0.159	0.049
-361.654	-153.316	-0.191	0.013
-360.639	-38.592	0.065	-0.034
-359.625	382.912	-0.095	0.196
-358.610	207.242	0.115	0.180
-357.596	-67.338	0.517	0.204
-356.581	45.146	0.205	-0.189
-355.566	26.577	0.199	-0.167
-354.552	122.492	-0.139	-0.174
-353.537	-111.768	0.114	-0.023
-352.523	-103.376	0.199	-0.047
-351.508	109.034	-0.160	-0.191
-350.493	-200.000	-0.067	-0.327
-349.479	-49.677	0.162	0.077
-348.464	-85.607	0.217	-0.068
-347.450	-200.000	0.070	0.406
-346.435	-94.371	-0.149	0.041
-345.420	360.713	-0.098	0.197
-344.406	-15.449	-0.295	-0.189
-343.391	-200.000	0.022	-0.119
-342.377	-126.720	-0.215	0.032
-341.362	48.429	0.151	-0.142
-340.348	18.148	-0.193	0.154
-339.333	323.849	-0.083	0.159
-338.318	-28.049	0.396	0.229
-337.304	34.643	0.133	-0.117
-336.289	-200.000	0.007	-0.149
-335.275	148.968	-0.037	0.049
-334.260	-200.000	-0.028	0.280
-333.245	170.637	-0.203	0.291
-332.231	250.382	-0.088	-0.150
-331.216	-68.605	-0.099	0.038
-330.202	-37.562	0.292	0.156
-329.187	-61.786	-0.116	-0.049
-328.172	69.247	0.089	-0.091
-327.158	378.352	0.061	-0.126
-326.143	126.119	-0.114	-0.145
-325.129	-7.165	-0.174	-0.118
-324.114	-80.096	0.152	-0.051
-323.099	66.252	0.098	0.100
-322.085	-200.000	0.015	0.086
-321.070	-20.295	0.121	-0.074
-320.056	-200.000	-0.008	0.130
-319.041	-104.432	0.081	0.019
-318.026	-54.162	0.388	-0.177
-317.012	-93.943	0.215	0.059
-315.997	28.727	0.201	-0.170
-314.983	185.709	0.215	0.319
-313.968	-136.752	0.403	0.046
-312.953	754.387	0.113	0.307
-311.939	435.122	0.081	0.176
-310.924	-200.000	-0.003	-0.019
-309.910	285.422	-0.012	0.021
-308.895	-200.000	-0.023	0.405
-307.880	146.196	-0.154	0.207
-306.866	199.943	-0.162	-0.249
-305.851	-24.624	-0.081	0.048
-304.837	-18.693	-0.300	-0.187
-303.822	-200.000	-0.018	-0.106
-302.807	-200.000	0.027	0.182
-301.793	-42.436	0.377	0.192
-300.778	-58.556	-0.129	-0.056
-299.764	-200.000	0.002	-0.207
-298.749	103.341	0.123	0.144
-297.735	-77.297	-0.221	0.077
-296.720	-107.214	0.332	0.073
-295.705	44.638	0.304	-0.279
-294.691	87.706	0.177	-0.196
-293.676	-7.180	-0.267	-0.181
-292.662	-200.000	0.021	-0.178
-291.647	19.335	-0.294	-0.236
-290.632	39.262	0.172	-0.154
-289.618	125.770	0.092	-0.116
-288.603	-39.249	0.074	0.039
-287.589	64.449	-0.173	-0.174
-286.574	35.862	0.316	-0.277
-285.559	-200.000	0.026	-0.186
-284.545	-87.554	0.115	0.035
-283.530	0.752	0.110	-0.079
-282.516	96.724	0.223	-0.255
-281.501	-200.000	0.004	-0.078
-280.486	800.000	0.091	0.289
-279.472	-200.000	0.031	0.807
-278.457	-200.000	-0.044	0.332
-277.443	50.168	0.200	-0.189
-276.428	207.621	-0.037	-0.057
-275.413	7.622	0.134	0.100
-274.399	79.685	0.088	0.094
-273.384	-144.544	-0.291	0.027
-272.370	-90.254	-0.139	0.040
-271.355	243.502	0.277	0.464
-270.340	-170.735	-0.505	-0.017
-269.326	-145.920	-0.443	0.039
-268.311	800.000	-0.118	-0.332
-267.297	-107.231	-0.153	-0.034
-266.282	154.367	-0.145	0.198
-265.267	530.820	-0.062	0.145
-264.253	-61.527	0.417	-0.175
-263.238	-81.044	0.233	-0.077
-262.224	-200.000	0.045	0.580
-261.209	77.741	0.223	-0.238
-260.195	-117.457	0.197	0.035
-259.180	-200.000	0.010	-0.228
-258.165	-200.000	0.148	-0.000
-257.151	228.307	0.119	0.193
-256.136	404.028	-0.104	0.218
-255.122	800.000	-0.060	0.226
-254.107	161.790	0.119	0.167
-253.092	156.266	-0.364	-0.501
-252.078	226.885	0.114	-0.184
-251.063	-73.682	-0.237	0.086
-250.049	180.008	-0.061	-0.090
-249.034	-103.315	0.136	0.032
-248.019	35.275	0.117	0.102
-247.005	-141.176	-0.142	-0.014
-245.990	-18.423	0.157	-0.098
-244.976	-130.455	0.283	-0.038
-243.961	-42.172	-0.457	-0.233
-242.946	-64.567	0.264	0.107
-241.932	-164.695	0.528	0.024
-240.917	-4.482	0.188	-0.130
-239.903	570.059	0.081	-0.196
-238.888	278.704	0.145	0.257
-237.873	234.921	-0.096	-0.159
-236.859	800.000	0.055	0.175
-235.844	-126.372	-0.270	-0.040
-234.830	-149.856	0.251	-0.020
-233.815	-112.647	-0.140	0.028
-232.800	261.356	-0.080	0.138
-231.786	-123.375	0.089	0.014
-230.771	-21.366	-0.280	-0.170
-229.757	-85.416	-0.301	0.094
-228.742	800.000	-0.081	-0.309
-227.727	49.376	0.209	0.196
-226.713	-101.087	0.099	0.024
-225.698	-130.420	-0.135	-0.018
-224.684	80.001	-0.104	0.111
-223.669	-16.729	-0.156	-0.098
-222.655	304.599	0.107	-0.198
-221.640	33.055	0.091	0.078
-220.625	-67.404	-0.221	-0.087
-219.611	713.860	-0.086	-0.228
-218.596	-105.686	0.270	0.061
-217.582	283.845	0.107	-0.191
-216.567	-180.483	-0.389	-0.008
-215.552	-26.641	0.011	0.007
-214.538	-177.377	0.133	0.003
-213.523	-50.077	0.424	0.200
-212.509	383.967	-0.087	-0.179
-211.494	-19.108	0.250	-0.155
-210.479	-180.427	0.301	-0.006
-209.465	88.201	0.136	0.150
-208.450	385.418	0.074	0.152
-207.436	800.000	0.034	0.135
-206.421	-85.316	-0.108	0.034
-205.406	-78.701	-0.289	0.098
-204.392	-45.563	-0.141	-0.070
-203.377	467.300	-0.131	-0.292
-202.363	-165.972	-0.251	0.011
-201.348	800.000	0.052	0.189
-200.333	-90.872	-0.253	0.073
-199.319	266.455	0.203	0.353
-198.304	59.880	0.246	0.242
-197.290	-200.000	0.017	0.210
-196.275	143.055	-0.170	-0.225
-195.260	81.508	-0.168	-0.181
-194.246	-188.830	-0.233	-0.003
-193.231	88.652	0.111	0.123
-192.217	-58.320	-0.290	0.126
-191.202	-200.000	0.067	0.359
-190.187	-36.483	0.078	0.042
-189.173	800.000	0.018	-0.070
-188.158	-84.643	0.154	0.048
-187.144	-200.000	0.008	-0.321
-186.129	-200.000	0.023	0.161
-185.114	-17.445	0.030	0.019
-184.100	170.171	-0.088	0.126
-183.085	-39.547	-0.338	-0.176
-182.071	571.908	0.051	-0.124
-181.056	185.431	-0.242	-0.357
-180.042	249.133	0.125	0.210
-179.027	800.000	0.079	0.247
-178.012	-134.111	0.260	0.032
-176.998	9.452	0.155	-0.117
-175.983	-67.643	0.171	0.067
-174.969	125.925	-0.103	-0.129
-173.954	-142.823	0.187	0.018
-172.939	228.943	0.253	0.411
-171.925	79.219	0.141	0.150
-170.910	-22.399	0.067	-0.040
-169.896	-68.465	-0.255	-0.098
-168.881	-200.000	-0.039	0.205
-167.866	-118.607	0.070	-0.012
-166.852	247.397	-0.174	0.292
-165.837	227.964	-0.063	0.103
-164.823	68.819	0.293	-0.299
-163.808	800.000	0.030	-0.096
-162.793	264.462	-0.164	0.283
-161.779	77.456	0.193	0.204
-160.764	-200.000	0.017	-0.139
-159.750	-22.373	0.213	0.128
-158.735	134.653	-0.158	0.204
-157.720	226.904	0.101	-0.164
-156.706	-200.000	0.045	-0.397
-155.691	-92.097	-0.270	-0.076
-154.677	698.952	-0.055	-0.143
-153.662	-118.940	-0.157	-0.027
-152.647	800.000	0.058	0.192
-151.633	-13.487	-0.103	0.067
-150.618	-200.000	0.053	0.330
-149.604	78.568	0.175	-0.186
-148.589	-58.771	-0.114	-0.049
-147.574	-65.446	-0.084	-0.034
-146.560	223.493	0.208	-0.333
-145.545	-26.510	0.118	0.069
-144.531	304.730	-0.083	0.154
-143.516	-200.000	-0.029	0.223
-142.502	54.037	-0.107	0.102
-141.487	-74.247	0.308	-0.111
-140.472	800.000	-0.043	0.157
-139.458	106.248	-0.214	-0.252
-138.443	245.979	0.070	0.118
-137.429	-87.581	-0.139	0.042
-136.414	-200.000	0.003	0.157
-135.399	-131.837	-0.263	0.034
-134.385	269.403	0.122	0.212
-133.370	93.156	0.224	0.251
-132.356	-148.976	0.191	-0.015
-131.341	-165.848	0.191	-0.008
-130.326	272.145	-0.199	0.349
-129.312	-164.272	-0.325	0.015
-128.297	-167.758	0.299	0.012
-127.283	-14.529	-0.193	-0.123
-126.268	-200.000	-0.056	-0.247
-125.253	172.323	0.217	0.310
-124.239	451.036	0.096	0.210
-123.224	-57.348	0.148	0.064
-122.210	23.949	-0.076	-0.062
-121.195	-64.529	-0.250	0.101
-120.180	-200.000	0.002	-0.042
-119.166	142.739	0.106	0.140
-118.151	-37.886	-0.174	-0.092
-117.137	800.000	0.075	0.284
-116.122	439.823	0.173	-0.375
-115.107	-200.000	0.006	-0.054
-114.093	-200.000	-0.050	0.230
-113.078	794.701	-0.034	-0.092
-112.064	121.061	0.044	-0.055
-111.049	143.707	-0.171	0.227
-110.034	-200.000	0.004	0.019
-109.020	378.220	0.101	0.205
-108.005	646.604	0.139	-0.353
-106.991	-30.719	0.093	0.052
-105.976	28.567	0.160	-0.135
-104.962	800.000	0.052	-0.165
-103.947	-200.000	-0.019	0.244
-102.932	-56.629	0.117	0.051
-101.918	-87.210	-0.256	-0.077
-100.903	421.188	-0.038	0.081
-99.889	-145.857	-0.162	0.014
-98.874	-63.056	0.032	-0.013
-97.859	800.000	0.074	0.310
-96.845	-30.006	-0.133	-0.075
-95.830	-80.307	0.060	-0.020
-94.816	394.510	0.103	-0.213
-93.801	-140.190	0.176	-0.018
-92.786	-200.000	0.040	0.389
-91.772	117.367	-0.122	0.149
-90.757	185.044	-0.180	0.265
-89.743	-98.714	0.329	-0.083
-88.728	-200.000	-0.059	-0.364
-87.713	-200.000	0.043	-0.373
-86.699	390.423	0.040	0.083
-85.684	800.000	-0.106	-0.362
-84.670	-78.074	0.109	-0.037
-83.655	-145.650	-0.342	0.030
-82.640	546.406	-0.101	-0.240
-81.626	800.000	0.065	0.212
-80.611	76.001	0.036	-0.038
-79.597	295.454	0.153	-0.277
-78.582	142.414	0.140	-0.185
-77.567	800.000	-0.079	-0.230
-76.553	368.786	-0.162	-0.325
-75.538	-78.525	0.208	-0.071
-74.524	-170.245	0.319	0.011
-73.509	237.003	-0.171	0.280
-72.494	102.623	-0.273	-0.317
-71.480	336.472	0.057	-0.110
-70.465	-53.331	0.351	0.160
-69.451	91.590	0.133	0.148
-68.436	145.110	0.221	-0.292
-67.422	-200.000	-0.007	-0.210
-66.407	-116.424	-0.329	0.060
-65.392	-55.518	-0.145	0.064
-64.378	-2.421	-0.237	-0.164
-63.363	327.959	0.107	0.204
-62.349	-124.283	0.510	0.079
-61.334	137.192	-0.787	-1.019
-60.319	-141.849	0.177	-0.018
-59.305	800.000	-0.229	-0.812
-58.290	273.004	0.580	1.014
-57.276	580.419	0.642	1.559
-56.261	-200.000	95.410	560.095
-55.246	629.580	1387.511	3475.177
-54.232	184.876	2613.260	3838.160
-53.217	121.360	2198.868	2712.508
-52.203	46.652	1647.811	1515.133
-51.188	38.379	1381.332	1218.792
-50.173	35.064	1338.263	1160.688
-49.159	55.504	1386.736	1329.339
-48.144	59.854	1404.386	1373.019
-47.130	38.615	1359.546	1200.824
-46.115	34.983	1341.191	1162.551
-45.100	34.814	1336.712	1157.599
-44.086	34.761	1333.983	1154.871
-43.071	34.645	1331.734	1152.174
-42.057	34.679	1329.397	1150.311
-41.042	34.696	1327.302	1148.556
-40.027	34.701	1326.199	1147.588
-39.013	34.713	1324.269	1145.942
-37.998	34.655	1322.499	1144.020
-36.984	34.740	1320.867	1143.072
-35.969	34.690	1318.971	1141.085
-34.954	34.939	1316.660	1140.524
-33.940	34.952	1315.701	1139.729
-32.925	34.861	1314.355	1137.976
-31.911	35.078	1312.284	1137.426
-30.896	34.946	1311.451	1135.878
-29.881	34.991	1310.337	1135.133
-28.867	34.974	1308.740	1133.601
-27.852	34.979	1306.891	1131.985
-26.838	35.006	1305.756	1131.115
-25.823	34.941	1303.809	1129.001
-24.809	34.952	1303.273	1128.560
-23.794	35.001	1301.660	1127.406
-22.779	34.989	1300.061	1125.903
-21.765	34.873	1299.120	1124.364
-20.750	34.786	1297.996	1122.833
-19.736	34.755	1296.897	1121.655
-18.721	34.738	1295.425	1120.242
-17.706	34.817	1294.001	1119.427
-16.692	34.783	1292.610	1117.981
-15.677	34.756	1292.008	1117.257
-14.663	34.763	1290.632	1116.064
-13.648	34.745	1289.445	1114.890
-12.633	34.649	1288.909	1113.823
-11.619	34.682	1288.016	1113.195
-10.604	34.771	1286.561	1112.413
-9.590	34.636	1286.215	1111.286
-8.575	34.796	1284.501	1110.692
-7.560	34.623	1284.233	1109.410
-6.546	34.647	1283.558	1108.922
-5.531	34.619	1282.604	1107.888
-4.517	34.705	1281.682	1107.547
-3.502	34.724	1280.397	1106.502
-2.487	34.850	1279.436	1106.359
-1.473	34.767	1275.608	1102.525
-0.458	33.503	1260.915	1082.566
0.556	31.680	1241.036	1039.697
1.571	27.406	1244.356	1018.531
2.586	25.793	1258.125	1020.581
3.600	23.946	1245.387	999.786
4.615	17.869	1171.814	908.398
5.629	9.141	1094.749	805.003
6.644	4.869	1074.344	768.876
7.659	4.608	1070.813	765.000
8.673	4.413	1070.162	763.507
9.688	4.381	1068.570	762.148
10.702	5.053	1067.645	764.716
11.717	10.824	1075.567	798.756
12.731	19.168	1087.674	848.982
13.746	22.468	1090.876	867.693
14.761	22.145	1089.879	865.235
15.775	21.079	1088.310	858.666
16.790	20.143	1086.290	852.401
17.804	19.492	1084.461	847.691
18.819	19.182	1083.560	845.389
19.834	19.094	1082.392	843.975
20.848	18.881	1082.449	842.899
21.863	18.741	1081.351	841.283
22.877	18.509	1080.710	839.572
23.892	18.617	1079.785	839.309
24.907	18.506	1079.008	838.088
25.921	18.551	1077.970	837.429
26.936	18.505	1076.549	836.024
27.950	18.542	1075.352	835.204
28.965	18.662	1073.739	834.458
29.980	18.919	1072.130	834.384
30.994	18.848	1071.034	833.112
32.009	19.000	1069.932	832.915
33.023	18.940	1069.043	831.862
34.038	18.779	1067.997	830.198
35.053	18.721	1066.737	828.863
36.067	18.669	1066.211	828.130
37.082	18.718	1065.153	827.473
38.096	18.744	1064.762	827.218
39.111	18.810	1064.077	826.932
40.126	18.677	1062.745	825.182
41.140	18.449	1060.768	822.483
42.155	18.265	1059.583	820.609
43.169	18.238	1058.542	819.598
44.184	18.173	1057.910	818.724
45.199	18.147	1057.296	818.056
46.213	18.466	1055.939	818.458
47.228	18.679	1054.812	818.525
48.242	18.631	1054.439	817.937
49.257	18.503	1053.746	816.717
50.271	18.611	1052.861	816.470
51.286	18.739	1051.823	816.204
52.301	18.669	1050.759	814.975
53.315	18.549	1049.517	813.369
54.330	18.512	1048.206	812.106
55.344	18.389	1047.761	811.104
56.359	18.482	1047.004	810.889
57.374	18.443	1045.748	809.659
58.388	18.353	1044.594	808.267
59.403	18.192	1044.392	807.283
60.417	18.249	1043.333	806.659
61.432	18.186	1042.805	805.883
62.447	17.999	1041.899	804.232
63.461	18.011	1040.889	803.438
64.476	18.006	1039.981	802.643
65.490	18.021	1039.208	802.046
66.505	18.084	1038.236	801.518
67.520	18.129	1037.833	801.348
68.534	18.141	1036.924	800.629
69.549	18.101	1036.053	799.699
70.563	17.904	1035.887	798.583
71.578	17.846	1034.614	797.260
72.593	17.878	1033.646	796.590
73.607	17.990	1032.890	796.461
74.622	17.890	1032.330	795.493
75.636	17.944	1031.731	795.209
76.651	17.997	1031.446	795.169
77.666	17.877	1030.784	794.028
78.680	17.926	1029.718	793.366
79.695	18.031	1029.200	793.382
80.709	18.208	1028.298	793.437
81.724	18.245	1028.107	793.393
82.739	18.486	1026.888	793.500
83.753	18.806	1026.193	794.369
84.768	18.887	1025.826	794.392
85.782	19.062	1024.823	794.350
86.797	18.828	1024.028	792.587
87.812	18.790	1022.857	791.435
88.826	18.691	1022.062	790.292
89.841	18.855	1020.934	790.105
90.855	18.884	1020.424	789.775
91.870	18.937	1019.740	789.419
92.884	18.786	1018.769	787.905
93.899	18.976	1017.775	787.938
94.914	18.936	1017.084	787.149
95.928	18.864	1016.014	785.920
96.943	18.699	1015.200	784.468
97.957	18.736	1014.184	783.784
98.972	18.899	1013.170	783.673
99.987	18.908	1012.359	783.016
101.001	18.802	1011.371	781.703
102.016	18.773	1010.594	780.901
103.030	18.811	1010.037	780.574
104.045	18.846	1009.243	780.048
105.060	18.566	1008.443	778.093
106.074	18.373	1007.117	776.124
107.089	18.329	1005.868	774.895
108.103	18.112	1004.772	773.001
109.118	18.145	1003.868	772.386
110.133	18.197	1002.878	771.789
111.147	18.146	1001.971	770.796
112.162	18.172	1001.428	770.426
113.176	18.281	1000.475	770.116
114.191	18.336	1000.278	770.145
115.206	18.476	999.016	769.733
116.220	18.299	998.479	768.456
117.235	18.281	997.425	767.494
118.249	18.354	996.020	766.673
119.264	18.267	995.362	765.709
120.279	18.183	994.861	764.879
121.293	18.032	994.390	763.777
122.308	17.991	993.029	762.480
123.322	17.942	992.102	761.482
124.337	17.962	991.125	760.755
125.352	18.002	990.066	760.052
126.366	17.838	988.676	758.188
127.381	18.099	987.771	758.588
128.395	17.934	987.205	757.352
129.410	18.034	986.401	757.113
130.424	18.272	985.205	757.183
131.439	18.208	985.107	756.755
132.454	18.416	983.704	756.529
133.468	18.408	982.925	755.826
134.483	18.434	982.191	755.310
135.497	18.374	981.291	754.286
136.512	18.426	980.798	754.071
137.527	18.385	979.966	753.184
138.541	18.348	979.010	752.222
139.556	18.508	978.884	752.758
140.570	18.719	977.700	752.706
141.585	18.810	977.050	752.538
142.600	18.897	976.055	752.087
143.614	18.978	975.270	751.772
144.629	19.054	974.931	751.775
145.643	18.865	973.652	749.895
146.658	18.744	972.264	748.233
147.673	18.610	971.204	746.769
148.687	18.476	970.347	745.462
149.702	18.503	969.662	744.988
150.716	18.221	969.304	743.419
151.731	18.433	968.371	743.559
152.746	18.508	967.529	743.170
153.760	18.500	966.683	742.422
154.775	18.618	966.330	742.596
155.789	18.665	965.651	742.211
156.804	18.829	964.504	741.971
157.819	18.650	964.479	741.113
158.833	18.902	963.545	741.416
159.848	18.920	963.024	741.030
160.862	18.775	961.921	739.493
161.877	18.612	960.271	737.455
162.892	18.361	959.051	735.378
163.906	18.464	957.956	734.915
164.921	18.437	957.098	734.073
165.935	18.587	956.546	734.229
166.950	18.770	955.479	734.125
167.964	18.578	955.137	732.980
168.979	18.511	953.994	731.749
169.994	18.555	952.833	730.983
171.008	18.602	952.353	730.749
172.023	18.833	951.986	731.388
173.037	18.824	951.621	731.002
174.052	18.734	950.528	729.719
175.067	18.538	949.889	728.330
176.081	18.425	948.867	727.001
177.096	18.453	948.439	726.727
178.110	18.540	947.590	726.381
179.125	18.537	946.927	725.797
180.140	18.592	946.593	725.711
181.154	18.757	946.352	726.160
182.169	18.855	946.070	726.292
183.183	18.885	945.449	725.878
184.198	18.939	944.249	725.118
185.213	18.846	943.896	724.394
186.227	18.915	943.277	724.144
187.242	19.045	942.233	723.828
188.256	19.150	942.057	724.067
189.271	19.110	941.397	723.329
190.286	18.770	940.028	720.788
191.300	18.355	938.866	718.090
192.315	18.402	938.397	717.867
193.329	18.291	938.082	717.095
194.344	18.645	937.394	717.989
195.359	18.716	936.971	717.897
196.373	18.741	936.703	717.735
197.388	18.939	936.180	718.099
198.402	19.263	935.589	718.933
199.417	19.289	934.985	718.511
200.432	19.342	934.519	718.311
201.446	19.499	933.851	718.391
202.461	19.384	934.065	718.008
203.475	19.361	932.824	716.897
204.490	19.152	931.861	715.227
205.504	18.937	931.012	713.619
206.519	19.032	930.346	713.438
207.534	18.930	929.681	712.443
208.548	19.099	928.927	712.503
209.563	19.154	928.278	712.169
210.577	19.136	927.643	711.546
211.592	19.306	926.792	711.531
212.607	19.505	926.113	711.767
213.621	19.372	925.415	710.618
214.636	19.400	924.932	710.299
215.650	19.232	924.300	709.062
216.665	19.341	924.031	709.242
217.680	19.460	923.131	708.975
218.694	19.581	922.468	708.900
219.709	19.514	921.646	707.932
220.723	19.474	920.796	707.052
221.738	19.371	920.278	706.170
222.753	19.385	919.868	705.852
223.767	19.443	919.302	705.591
224.782	19.656	918.683	705.922
225.796	19.757	917.939	705.704
226.811	19.442	917.837	704.276
227.826	19.457	916.420	703.189
228.840	19.396	915.821	702.417
229.855	19.420	915.171	701.955
230.869	19.393	914.188	701.026
231.884	19.308	913.547	700.130
232.899	19.294	913.216	699.754
233.913	19.282	911.860	698.608
234.928	19.244	911.610	698.200
235.942	18.977	911.459	696.941
236.957	19.137	910.405	696.721
237.972	19.219	909.767	696.501
238.986	19.189	909.260	695.930
240.001	19.198	908.580	695.386
241.015	19.366	907.838	695.435
242.030	19.310	907.396	694.809
243.045	19.410	906.550	694.503
244.059	19.352	906.543	694.199
245.074	19.477	905.618	693.932
246.088	19.683	904.580	693.902
247.103	19.788	904.445	694.161
248.117	19.958	903.907	694.367
249.132	19.869	904.209	694.179
250.147	20.187	903.591	694.921
251.161	20.254	902.818	694.531
252.176	20.322	902.173	694.246
253.190	20.287	901.711	693.690
254.205	20.431	900.961	693.628
255.220	20.293	900.251	692.469
256.234	20.274	899.503	691.754
257.249	20.239	899.005	691.173
258.263	20.263	897.887	690.348
259.278	20.234	897.488	689.863
260.293	20.313	897.154	689.860
261.307	20.407	896.616	689.758
262.322	20.536	895.859	689.628
263.336	20.590	894.766	688.939
264.351	20.513	894.312	688.225
265.366	20.501	893.607	687.573
266.380	20.541	893.352	687.472
267.395	20.413	892.219	686.034
268.409	20.334	891.036	684.752
269.424	20.480	890.365	684.753
270.439	20.380	889.753	683.827
271.453	20.112	889.513	682.527
272.468	19.999	888.864	681.522
273.482	20.062	887.995	681.047
274.497	20.029	887.774	680.686
275.512	20.122	887.197	680.549
276.526	20.219	886.654	680.451
277.541	20.285	886.006	680.152
278.555	20.465	885.576	680.466
279.570	20.604	884.825	680.376
280.585	20.678	884.054	680.012
281.599	20.531	882.992	678.559
282.614	20.412	882.462	677.628
283.628	20.265	881.773	676.467
284.643	20.308	881.617	676.456
285.657	20.236	880.538	675.286
286.672	20.457	879.836	675.549
287.687	20.467	879.478	675.253
288.701	20.316	879.106	674.319
289.716	20.340	878.646	673.999
290.730	20.414	877.969	673.710
291.745	20.514	877.276	673.504
292.760	20.513	876.607	672.930
293.774	20.650	876.257	673.130
294.789	20.617	875.411	672.291
295.803	20.452	874.547	670.933
296.818	20.428	873.812	670.215
297.833	20.376	873.073	669.389
298.847	20.458	872.734	669.388
299.862	20.472	871.985	668.808
300.876	20.709	871.631	669.389
301.891	20.725	871.159	669.028
302.906	20.732	870.661	668.612
303.920	20.909	870.439	669.065
304.935	21.069	869.765	669.100
305.949	20.818	869.119	667.581
306.964	20.847	867.872	666.677
307.979	20.757	868.056	666.413
308.993	20.872	867.560	666.412
310.008	20.895	867.028	666.034
311.022	20.888	866.074	665.216
312.037	20.678	865.529	663.938
313.052	20.569	864.706	662.831
314.066	20.480	864.026	661.910
315.081	20.459	863.615	661.459
316.095	20.624	863.023	661.577
317.110	20.491	862.202	660.380
318.125	20.550	861.671	660.140
319.139	20.594	861.167	659.862
320.154	20.418	860.896	658.928
321.168	20.628	860.045	659.013
322.183	20.742	859.586	659.036
323.197	20.523	859.450	658.046
324.212	20.650	858.964	658.096
325.227	20.650	858.142	657.408
326.241	20.620	857.491	656.738
327.256	20.483	857.321	656.031
328.270	20.618	856.163	655.598
329.285	20.579	855.746	655.071
330.300	20.565	855.074	654.447
331.314	20.547	854.541	653.914
332.329	20.827	854.667	655.005
333.343	20.945	854.148	654.992
334.358	20.921	853.534	654.375
335.373	21.061	852.887	654.347
336.387	20.992	852.878	654.023
337.402	21.145	852.962	654.601
338.416	21.154	852.431	654.171
339.431	21.204	852.045	654.004
340.446	21.337	851.657	654.147
341.460	21.485	850.750	653.945
342.475	21.415	850.782	653.651
343.489	21.600	849.895	653.601
344.504	21.552	850.007	653.448
345.519	21.654	849.368	653.280
346.533	21.488	848.787	652.158
347.548	21.242	848.566	651.013
348.562	21.095	847.674	649.723
349.577	20.984	846.860	648.630
350.592	20.998	846.000	647.965
351.606	20.935	845.310	647.146
352.621	20.904	844.705	646.510
353.635	21.127	844.387	647.038
354.650	21.180	843.501	646.496
355.665	21.106	843.300	646.011
356.679	21.319	842.586	646.196
357.694	21.233	841.874	645.274
358.708	21.186	840.934	644.323
359.723	21.266	840.348	644.114
360.738	21.239	839.831	643.559
361.752	21.343	839.452	643.596
362.767	21.552	839.094	644.035
363.781	21.667	838.607	644.027
364.796	21.714	838.226	643.850
365.810	21.951	837.624	644.198
366.825	21.945	837.707	644.182
367.840	21.801	837.071	643.110
368.854	21.626	836.177	641.725
369.869	21.650	835.878	641.527
370.883	21.456	835.480	640.455
371.898	21.784	835.122	641.322
372.913	21.863	834.644	641.189
373.927	21.734	834.029	640.185
374.942	21.726	833.425	639.637
375.956	21.767	833.158	639.526
376.971	21.944	833.235	640.175
377.986	21.999	832.195	639.520
379.000	22.152	831.432	639.434
380.015	22.087	831.411	639.125
381.029	22.058	830.621	638.355
382.044	21.934	830.132	637.472
383.059	22.114	829.365	637.479
384.073	22.017	828.892	636.707
385.088	21.807	827.723	634.993
386.102	21.725	827.412	634.402
387.117	21.622	827.045	633.690
388.132	21.762	826.276	633.552
389.146	21.895	825.540	633.412
390.161	21.924	825.539	633.460
391.175	22.069	825.021	633.529
392.190	21.927	824.354	632.448
393.205	21.771	823.998	631.558
394.219	21.741	823.312	630.868
395.234	21.694	823.106	630.486
396.248	21.601	822.198	629.399
397.263	21.585	821.789	628.974
398.278	21.568	821.559	628.679
399.292	21.564	821.008	628.188
400.307	21.528	820.391	627.534
401.321	21.619	820.044	627.536
402.336	21.655	819.648	627.308
403.350	21.786	819.581	627.671
404.365	21.948	818.978	627.732
405.380	22.203	818.319	628.083
406.394	22.208	817.959	627.770
407.409	22.142	817.771	627.332
408.423	22.385	817.183	627.695
409.438	22.386	817.098	627.576
410.453	22.439	816.551	627.290
411.467	22.507	816.060	627.098
412.482	22.477	815.852	626.778
413.496	22.471	815.783	626.647
414.511	22.461	815.455	626.304
415.526	22.390	814.816	625.504
416.540	22.378	814.218	624.948
417.555	22.482	813.588	624.780
418.569	22.286	813.458	623.930
419.584	22.435	812.958	624.016
420.599	22.554	812.328	623.898
421.613	159.866	1369.477	1790.617
422.628	139.197	1450.656	1790.721
