DTS Sentinel unit serial number:	SN413079Multiplexer serial number:	ORYXHardware model number:	OX4-SRSoftware version number:	ORYX F/W v4.00 Oryx Data Collector v3.7.2.0data status	okinstallation	princeton_trtdifferential loss correction	single-endedforward channel	channel 1reverse channel	N/Adate	2019/09/13time	23:50:35forward acquisition time	60.00reverse acquisition time	0.00gamma	496.2192k internal	0.2337k external	0.2337temperature offset calibration	1.0079default loss term (dB/km)	0.3790temperature slope calibration	1.0000multiplexer offset coefficient	1.0000multiplexer slope coefficient	1.0000fibre end	0.00T internal ref (°C)	26.58T ext. ref 1 (°C)	3.16T ext. ref 2 (°C)	20.97length (m)	temperature (°C)	Stokes	anti-Stokes-747.200	-11.241	-0.130	-0.086
-746.185	-116.117	0.234	0.044
-745.171	-123.118	-0.131	0.021
-744.156	-84.618	0.092	-0.029
-743.142	-100.625	-0.227	-0.056
-742.127	169.067	-0.073	0.104
-741.112	800.000	-0.047	-0.179
-740.098	-89.849	-0.146	0.043
-739.083	86.441	-0.068	-0.075
-738.069	102.352	0.128	0.150
-737.054	-148.015	-0.249	0.021
-736.039	800.000	-0.006	-0.019
-735.025	-162.891	0.295	-0.014
-734.010	800.000	-0.074	-0.216
-732.996	-150.611	-0.130	0.010
-731.981	11.917	-0.078	0.060
-730.966	-116.385	-0.146	-0.027
-729.952	-46.167	0.053	-0.026
-728.937	157.440	0.143	0.198
-727.923	-19.251	-0.259	-0.161
-726.908	-50.074	-0.287	0.137
-725.894	-17.291	0.051	-0.032
-724.879	52.919	0.106	0.102
-723.864	103.477	0.083	-0.097
-722.850	-200.000	0.023	-0.118
-721.835	-119.071	-0.240	-0.042
-720.821	-59.296	0.087	-0.037
-719.806	-85.257	0.179	-0.056
-718.791	403.028	0.091	-0.193
-717.777	485.765	0.155	-0.354
-716.762	-200.000	0.006	-0.225
-715.748	206.611	0.079	-0.124
-714.733	-103.982	-0.207	-0.048
-713.718	-48.628	-0.370	0.178
-712.704	-200.000	0.037	0.189
-711.689	147.117	0.059	-0.080
-710.675	-105.584	-0.100	-0.023
-709.660	133.002	0.149	-0.193
-708.645	-33.065	-0.254	-0.141
-707.631	-31.045	0.298	0.169
-706.616	53.921	-0.155	-0.150
-705.602	656.260	0.077	-0.197
-704.587	-90.839	-0.048	-0.014
-703.572	-73.367	-0.099	-0.036
-702.558	304.806	-0.086	-0.160
-701.543	-27.234	0.202	0.118
-700.529	451.819	-0.103	0.229
-699.514	-200.000	0.006	0.128
-698.499	-200.000	-0.013	-0.064
-697.485	-200.000	0.009	0.150
-696.470	-200.000	-0.011	0.257
-695.456	97.522	-0.079	0.091
-694.441	-103.384	-0.163	-0.038
-693.426	-95.629	0.227	-0.061
-692.412	-200.000	-0.011	-0.153
-691.397	-200.000	0.077	-0.344
-690.383	800.000	0.087	-0.278
-689.368	-121.983	-0.370	0.061
-688.354	-200.000	0.023	-0.182
-687.339	162.309	0.056	0.079
-686.324	368.631	-0.130	-0.263
-685.310	255.439	0.098	-0.168
-684.295	-194.038	-0.286	0.002
-683.281	-123.596	-0.071	-0.011
-682.266	6.516	0.180	0.134
-681.251	-200.000	0.005	-0.253
-680.237	-200.000	-0.029	-0.326
-679.222	313.161	-0.083	-0.156
-678.208	-80.888	0.170	0.056
-677.193	12.465	0.218	-0.168
-676.178	-105.076	0.268	0.061
-675.164	-190.153	-0.267	-0.003
-674.149	79.304	0.089	0.096
-673.135	33.820	0.276	-0.240
-672.120	-200.000	-0.013	-0.166
-671.105	-13.728	0.130	-0.084
-670.091	42.240	-0.311	-0.283
-669.076	-6.057	0.481	-0.329
-668.062	-200.000	0.195	0.000
-667.047	264.034	-0.175	-0.305
-666.032	-200.000	-0.016	-0.080
-665.018	800.000	0.035	0.119
-664.003	-186.802	-0.254	0.004
-662.989	800.000	0.037	-0.161
-661.974	-148.547	-0.460	0.038
-660.959	-200.000	-0.016	-0.147
-659.945	800.000	-0.029	-0.100
-658.930	-161.022	0.051	-0.003
-657.916	24.864	-0.182	-0.151
-656.901	103.286	-0.275	0.323
-655.886	-170.405	0.255	-0.009
-654.872	49.617	-0.246	0.232
-653.857	-88.469	0.264	-0.079
-652.843	37.947	-0.266	-0.236
-651.828	-94.706	-0.214	-0.058
-650.814	800.000	0.036	0.137
-649.799	10.911	-0.212	0.162
-648.784	146.659	-0.106	0.143
-647.770	-150.792	-0.094	0.007
-646.755	-200.000	0.024	-0.332
-645.741	-129.652	-0.209	0.029
-644.726	31.051	0.068	-0.058
-643.711	-200.000	-0.010	-0.433
-642.697	-128.282	-0.158	-0.023
-641.682	-200.000	0.058	0.280
-640.668	-98.086	-0.057	0.015
-639.653	10.627	0.179	-0.137
-638.638	361.815	0.099	0.199
-637.624	-25.428	-0.270	-0.160
-636.609	37.894	-0.342	0.304
-635.595	-106.872	-0.050	0.011
-634.580	-200.000	-0.016	-0.113
-633.565	-51.261	0.251	0.117
-632.551	-38.105	0.110	0.058
-631.536	-131.093	0.292	-0.039
-630.522	-200.000	-0.023	0.198
-629.507	-172.095	-0.198	0.006
-628.492	-174.614	0.277	0.008
-627.478	429.765	0.085	-0.184
-626.463	-87.781	-0.039	0.012
-625.449	354.148	0.096	-0.190
-624.434	-125.231	0.244	-0.037
-623.419	-200.000	0.003	-0.352
-622.405	-76.984	0.054	0.019
-621.390	715.152	-0.076	-0.201
-620.376	-74.065	0.186	0.067
-619.361	129.246	0.139	0.177
-618.346	-132.236	-0.243	0.031
-617.332	-176.085	-0.265	-0.007
-616.317	800.000	-0.030	-0.130
-615.303	-71.204	0.176	0.066
-614.288	27.125	-0.120	-0.101
-613.273	1.898	0.319	0.230
-612.259	78.579	0.204	-0.217
-611.244	-17.355	-0.259	-0.163
-610.230	-42.703	-0.203	-0.103
-609.215	-200.000	0.024	-0.537
-608.201	-200.000	-0.051	0.333
-607.186	537.678	0.132	-0.314
-606.171	-200.000	-0.030	0.172
-605.157	278.633	-0.125	-0.223
-604.142	-69.393	0.521	-0.199
-603.128	-57.293	-0.154	0.068
-602.113	-200.000	0.025	0.146
-601.098	-200.000	0.005	0.335
-600.084	89.820	-0.218	-0.243
-599.069	36.277	-0.113	-0.099
-598.055	249.421	0.151	-0.256
-597.040	-200.000	-0.015	0.108
-596.025	-170.522	0.372	-0.013
-595.011	-37.960	0.037	0.020
-593.996	-200.000	0.017	0.087
-592.982	-78.372	0.256	-0.088
-591.967	800.000	0.138	0.433
-590.952	-200.000	0.030	-0.143
-589.938	800.000	0.054	0.236
-588.923	243.042	0.103	-0.173
-587.909	800.000	-0.029	0.082
-586.894	-5.282	0.382	-0.262
-585.879	17.273	0.079	0.063
-584.865	-200.000	0.002	0.167
-583.850	800.000	0.103	-0.317
-582.836	11.587	0.252	0.193
-581.821	-9.257	0.273	0.182
-580.806	-174.069	-0.219	-0.006
-579.792	-55.549	-0.124	-0.056
-578.777	237.556	0.144	0.238
-577.763	13.872	-0.136	-0.106
-576.748	-69.419	-0.210	0.080
-575.733	-93.383	0.042	0.012
-574.719	-200.000	0.033	-0.148
-573.704	-64.621	-0.376	-0.152
-572.690	-200.000	0.030	0.189
-571.675	800.000	0.056	0.211
-570.661	-100.538	0.081	-0.020
-569.646	91.986	0.059	0.066
-568.631	-200.000	-0.495	0.002
-567.617	-200.000	-0.007	-0.100
-566.602	100.742	-0.131	0.151
-565.588	-130.381	0.280	-0.038
-564.573	226.790	-0.036	0.058
-563.558	-18.764	0.051	0.032
-562.544	-84.227	-0.357	0.113
-561.529	-200.000	0.004	0.180
-560.515	92.264	-0.371	-0.417
-559.500	31.274	0.144	-0.124
-558.485	-78.517	-0.404	-0.138
-557.471	-144.771	-0.146	0.013
-556.456	-175.943	0.123	0.003
-555.442	800.000	0.070	0.232
-554.427	287.368	-0.082	0.148
-553.412	-45.316	-0.518	0.256
-552.398	-200.000	0.031	-0.142
-551.383	213.526	-0.265	-0.417
-550.369	51.306	-0.072	-0.068
-549.354	800.000	-0.061	0.203
-548.339	-89.430	0.149	0.044
-547.325	-30.440	0.059	0.033
-546.310	3.793	0.051	0.037
-545.296	346.692	0.032	0.062
-544.281	-41.024	-0.322	-0.166
-543.266	28.735	-0.131	-0.110
-542.252	-128.593	0.150	0.021
-541.237	-124.854	0.172	0.026
-540.223	-33.242	0.252	-0.139
-539.208	-200.000	0.003	0.356
-538.193	-83.375	0.159	0.051
-537.179	113.569	-0.209	0.252
-536.164	-200.000	-0.036	0.198
-535.150	225.341	0.123	-0.198
-534.135	79.970	-0.278	-0.298
-533.121	800.000	0.075	0.220
-532.106	-21.745	-0.135	0.082
-531.091	800.000	0.132	-0.402
-530.077	-30.264	-0.185	0.105
-529.062	-130.436	0.291	-0.039
-528.048	50.065	-0.099	0.093
-527.033	75.214	0.053	0.056
-526.018	-200.000	0.002	-0.066
-525.004	57.844	-0.090	-0.088
-523.989	800.000	-0.050	0.169
-522.975	-200.000	-0.017	0.080
-521.960	800.000	-0.041	-0.161
-520.945	56.636	-0.079	0.077
-519.931	-137.230	0.121	0.014
-518.916	-200.000	0.004	-0.048
-517.902	-102.175	0.147	0.035
-516.887	243.261	0.062	-0.103
-515.872	-200.000	-0.001	-0.077
-514.858	-58.260	-0.093	0.040
-513.843	-118.581	-0.323	-0.057
-512.829	-38.754	0.355	-0.186
-511.814	76.723	-0.058	-0.062
-510.799	579.389	-0.046	-0.112
-509.785	-26.996	0.081	-0.047
-508.770	7.538	-0.182	0.135
-507.756	-66.710	0.339	0.134
-506.741	42.885	0.204	-0.185
-505.726	15.197	0.075	0.059
-504.712	19.921	-0.275	0.220
-503.697	159.211	-0.183	-0.254
-502.683	154.966	0.075	-0.103
-501.668	701.884	0.058	0.153
-500.653	345.594	0.079	0.154
-499.639	13.132	0.168	0.130
-498.624	507.431	-0.066	-0.152
-497.610	-86.979	0.190	0.058
-496.595	65.795	0.111	0.112
-495.581	-103.979	-0.053	-0.012
-494.566	199.032	0.139	-0.211
-493.551	-152.768	0.341	-0.024
-492.537	-77.307	-0.397	-0.137
-491.522	115.275	-0.200	0.243
-490.508	62.985	-0.117	0.117
-489.493	-200.000	0.006	0.165
-488.478	-200.000	0.012	-0.227
-487.464	-59.389	-0.318	-0.136
-486.449	132.892	-0.107	-0.137
-485.435	197.879	-0.165	-0.250
-484.420	-200.000	0.061	-0.275
-483.405	800.000	0.084	-0.302
-482.391	656.431	-0.052	-0.132
-481.376	367.263	0.102	0.205
-480.362	160.963	-0.099	0.138
-479.347	-200.000	-0.064	-0.446
-478.332	493.953	0.059	-0.135
-477.318	-55.763	0.450	0.200
-476.303	83.862	-0.109	-0.119
-475.289	-200.000	-0.044	0.216
-474.274	189.775	-0.139	0.207
-473.259	-89.679	-0.171	0.050
-472.245	52.323	-0.062	0.058
-471.230	28.879	-0.241	0.203
-470.216	52.293	0.122	0.116
-469.201	52.865	0.326	0.309
-468.186	80.738	0.220	-0.235
-467.172	-138.900	-0.487	0.053
-466.157	-10.345	0.058	0.038
-465.143	-120.724	-0.182	0.031
-464.128	-75.936	0.390	-0.137
-463.113	-15.195	-0.152	-0.096
-462.099	59.485	-0.167	0.163
-461.084	103.138	0.160	0.186
-460.070	-86.314	0.320	-0.098
-459.055	-87.952	-0.145	-0.043
-458.040	-74.086	0.193	0.070
-457.026	-200.000	0.013	-0.112
-456.011	112.513	0.155	-0.187
-454.997	308.885	-0.080	0.149
-453.982	94.912	0.041	0.046
-452.968	-169.069	-0.378	-0.014
-451.953	800.000	-0.065	-0.214
-450.938	800.000	-0.020	0.062
-449.924	-136.311	0.275	0.032
-448.909	42.288	0.265	0.239
-447.895	279.814	0.011	0.019
-446.880	265.672	-0.126	-0.218
-445.865	-98.412	-0.094	0.024
-444.851	-39.589	0.230	-0.119
-443.836	437.757	0.078	-0.168
-442.822	305.557	-0.156	0.288
-441.807	42.620	0.148	-0.133
-440.792	78.369	0.215	-0.228
-439.778	-100.368	0.094	0.023
-438.763	179.516	0.071	-0.103
-437.749	-200.000	-0.039	-0.239
-436.734	-52.510	0.235	0.108
-435.719	6.385	0.065	0.048
-434.705	-133.705	0.311	0.038
-433.690	10.170	-0.362	-0.273
-432.676	-200.000	-0.026	0.155
-431.661	311.804	0.118	0.219
-430.646	128.316	0.128	-0.162
-429.632	794.207	0.061	0.168
-428.617	-200.000	0.025	0.149
-427.603	-102.647	0.064	0.015
-426.588	-149.759	-0.130	0.010
-425.573	-200.000	0.013	-0.408
-424.559	-51.136	-0.199	0.093
-423.544	169.371	0.190	0.269
-422.530	-129.589	-0.286	-0.039
-421.515	-184.607	-0.112	0.002
-420.500	-28.155	0.255	0.146
-419.486	-53.113	0.224	0.102
-418.471	83.722	-0.133	-0.144
-417.457	-200.000	0.015	0.183
-416.442	105.663	-0.178	0.208
-415.428	-179.671	-0.076	-0.002
-414.413	137.348	0.093	-0.120
-413.398	71.391	0.134	0.138
-412.384	-90.868	0.217	0.062
-411.369	-137.904	-0.062	0.007
-410.355	-4.025	0.082	-0.056
-409.340	-200.000	-0.033	0.174
-408.325	-3.019	0.157	0.109
-407.311	-86.369	-0.251	-0.076
-406.296	301.695	0.071	0.130
-405.282	-31.949	-0.095	-0.053
-404.267	14.607	0.251	-0.195
-403.252	-200.000	-0.014	0.066
-402.238	-42.075	0.047	-0.024
-401.223	-130.964	0.096	-0.013
-400.209	-20.916	-0.069	0.042
-399.194	-12.110	0.307	0.199
-398.179	-76.148	0.052	0.018
-397.165	1.580	0.173	0.123
-396.150	-200.000	-0.007	-0.232
-395.136	296.407	-0.292	-0.531
-394.121	800.000	-0.048	-0.167
-393.106	-127.555	0.287	-0.041
-392.092	-200.000	-0.001	-0.036
-391.077	36.632	-0.284	0.248
-390.063	-82.982	0.304	-0.097
-389.048	-49.818	-0.304	0.143
-388.033	-8.856	0.143	0.095
-387.019	800.000	0.092	-0.251
-386.004	-200.000	0.041	0.202
-384.990	-126.810	-0.301	-0.044
-383.975	141.890	0.175	0.229
-382.960	-91.827	0.172	0.048
-381.946	83.026	0.325	0.350
-380.931	48.697	-0.188	0.174
-379.917	-175.177	-0.260	0.007
-378.902	-115.995	-0.410	0.076
-377.888	800.000	-0.038	-0.145
-376.873	-128.596	-0.327	-0.046
-375.858	24.613	0.146	-0.120
-374.844	-179.054	-0.087	0.002
-373.829	-105.716	-0.122	-0.027
-372.815	-29.618	0.244	-0.138
-371.800	800.000	-0.077	0.229
-370.785	800.000	0.113	-0.332
-369.771	-137.693	0.379	-0.042
-368.756	-103.220	0.113	-0.026
-367.742	109.928	0.159	0.189
-366.727	-176.220	-0.052	0.001
-365.712	-42.463	-0.096	0.048
-364.698	797.561	0.110	0.299
-363.683	-200.000	-0.045	-0.196
-362.669	800.000	-0.045	0.165
-361.654	-30.293	-0.232	-0.130
-360.639	21.957	0.052	0.042
-359.625	31.417	0.189	0.160
-358.610	-69.210	-0.196	0.075
-357.596	-200.000	-0.001	0.118
-356.581	157.961	0.060	0.082
-355.566	143.813	-0.246	0.325
-354.552	-133.570	-0.080	-0.010
-353.537	-142.542	0.037	0.004
-352.523	337.433	0.073	0.141
-351.508	-9.840	-0.050	0.033
-350.493	-142.778	0.228	-0.022
-349.479	-117.605	0.373	-0.067
-348.464	325.588	-0.119	0.226
-347.450	-10.037	-0.152	0.100
-346.435	-181.430	-0.322	-0.006
-345.420	800.000	0.037	-0.133
-344.406	-36.726	0.153	-0.081
-343.391	-160.582	0.254	-0.013
-342.377	-47.953	0.372	0.178
-341.362	-200.000	0.031	-0.334
-340.348	164.748	0.108	0.151
-339.333	-139.578	0.223	-0.023
-338.318	-141.967	-0.097	0.010
-337.304	249.593	0.056	-0.094
-336.289	800.000	-0.028	0.082
-335.275	50.464	-0.209	0.195
-334.260	-131.980	-0.302	0.039
-333.245	-200.000	0.024	0.137
-332.231	-44.796	0.104	0.051
-331.216	-109.339	-0.370	-0.078
-330.202	-200.000	-0.053	-0.464
-329.187	-200.000	-0.001	-0.024
-328.172	623.002	-0.073	-0.182
-327.158	127.035	-0.076	-0.096
-326.143	-26.801	0.336	-0.194
-325.129	-92.293	-0.224	-0.062
-324.114	437.716	-0.054	-0.116
-323.099	-200.000	-0.005	0.068
-322.085	-120.120	-0.299	0.051
-321.070	104.165	-0.059	-0.068
-320.056	-200.000	-0.001	-0.171
-319.041	-122.653	0.098	-0.016
-318.026	25.010	0.387	0.317
-317.012	-145.464	0.293	-0.026
-315.997	135.640	0.289	0.371
-314.983	-200.000	-0.009	0.648
-313.968	-115.335	0.211	-0.039
-312.953	-16.165	-0.109	0.068
-311.939	-11.894	0.132	-0.086
-310.924	-200.000	-0.026	-0.227
-309.910	-200.000	0.034	-0.194
-308.895	-156.251	-0.043	0.003
-307.880	-117.553	0.030	0.005
-306.866	-200.000	-0.018	-0.143
-305.851	227.696	-0.200	0.321
-304.837	-200.000	-0.032	0.162
-303.822	783.695	-0.106	0.288
-302.807	515.333	-0.065	0.149
-301.793	120.756	0.141	0.173
-300.778	43.572	0.271	-0.244
-299.764	-159.193	-0.190	0.011
-298.749	1.441	0.087	-0.062
-297.735	-123.569	0.088	-0.014
-296.720	630.105	0.134	-0.334
-295.705	26.040	0.012	0.010
-294.691	2.492	0.175	-0.125
-293.676	-200.000	-0.022	-0.216
-292.662	371.106	-0.091	0.182
-291.647	54.587	-0.087	-0.083
-290.632	-92.029	0.020	-0.006
-289.618	-200.000	0.044	0.242
-288.603	668.927	-0.120	0.305
-287.589	68.111	0.215	0.217
-286.574	-200.000	-0.036	-0.285
-285.559	-13.961	-0.091	-0.058
-284.545	-16.356	-0.065	0.041
-283.530	120.721	-0.159	-0.195
-282.516	214.231	0.344	-0.537
-281.501	-169.584	-0.224	0.008
-280.486	9.111	-0.236	-0.176
-279.472	623.127	0.113	-0.280
-278.457	-200.000	0.005	0.256
-277.443	-93.466	-0.193	-0.053
-276.428	270.241	-0.215	-0.372
-275.413	-200.000	0.037	-0.205
-274.399	-24.821	-0.079	-0.046
-273.384	-40.646	-0.175	-0.090
-272.370	-65.914	-0.304	0.120
-271.355	99.323	0.248	0.282
-270.340	420.083	0.092	0.193
-269.326	-65.179	0.068	0.027
-268.311	-200.000	0.010	0.101
-267.297	15.686	-0.136	0.106
-266.282	-200.000	0.037	0.223
-265.267	-101.077	0.105	0.025
-264.253	255.555	0.044	0.075
-263.238	406.108	0.175	-0.364
-262.224	791.531	0.063	-0.172
-261.209	-126.884	0.079	-0.011
-260.195	379.241	-0.149	-0.301
-259.180	109.411	0.145	-0.171
-258.165	800.000	-0.087	-0.261
-257.151	-39.910	-0.080	0.041
-256.136	61.998	-0.198	-0.195
-255.122	-47.146	0.194	-0.093
-254.107	-72.679	0.408	-0.148
-253.092	800.000	0.041	0.173
-252.078	91.299	-0.172	0.190
-251.063	800.000	0.048	-0.154
-250.049	-200.000	-0.020	-0.214
-249.034	800.000	-0.034	0.098
-248.019	-177.214	-0.145	0.004
-247.005	216.441	-0.081	0.127
-245.990	-56.246	0.108	0.047
-244.976	-200.000	-0.028	-0.245
-243.961	182.879	-0.153	-0.222
-242.946	800.000	-0.063	0.204
-241.932	-200.000	-0.018	-0.193
-240.917	7.119	-0.329	-0.241
-239.903	184.899	0.056	-0.082
-238.888	-200.000	0.041	-0.210
-237.873	-85.154	0.099	0.031
-236.859	-151.020	0.280	0.021
-235.844	-200.000	-0.100	0.546
-234.830	180.406	0.097	-0.139
-233.815	774.667	0.080	0.215
-232.800	11.141	-0.224	-0.169
-231.786	-200.000	0.013	-0.241
-230.771	-200.000	-0.015	-0.071
-229.757	367.231	0.040	0.080
-228.742	800.000	0.131	0.396
-227.727	-200.000	-0.031	0.179
-226.713	-128.380	-0.084	0.012
-225.698	139.933	0.189	0.245
-224.684	372.610	-0.093	-0.185
-223.669	142.939	0.034	0.044
-222.655	-89.917	-0.154	0.044
-221.640	5.052	0.179	-0.129
-220.625	800.000	-0.060	0.223
-219.611	-200.000	0.030	-0.144
-218.596	661.510	0.108	0.273
-217.582	-200.000	0.046	0.250
-216.567	-200.000	0.015	0.117
-215.552	321.894	0.079	0.149
-214.538	-200.000	0.045	0.200
-213.523	139.475	0.205	0.266
-212.509	79.291	-0.047	-0.050
-211.494	800.000	-0.071	0.297
-210.479	106.012	-0.175	0.204
-209.465	-68.979	-0.008	0.003
-208.450	1.120	0.138	0.098
-207.436	-200.000	-0.022	0.269
-206.421	532.730	-0.050	0.117
-205.406	-89.687	0.476	0.137
-204.392	187.003	-0.194	0.285
-203.377	-34.479	0.130	-0.070
-202.363	61.455	0.028	0.027
-201.348	-85.003	-0.290	0.089
-200.333	-200.000	-0.006	-0.416
-199.319	-173.637	-0.354	-0.010
-198.304	800.000	0.037	-0.125
-197.290	-200.000	0.073	-0.326
-196.275	152.608	-0.125	0.168
-195.260	-200.000	0.009	0.059
-194.246	-200.000	0.100	-0.442
-193.231	-16.066	-0.155	-0.097
-192.217	85.783	-0.143	0.154
-191.202	-26.549	-0.065	-0.037
-190.187	-36.011	-0.316	0.168
-189.173	-79.734	-0.062	-0.021
-188.158	287.914	-0.079	0.141
-187.144	716.890	0.114	-0.297
-186.129	-200.000	0.052	-0.278
-185.114	-156.191	-0.144	-0.009
-184.100	800.000	0.035	-0.114
-183.085	103.050	-0.184	0.212
-182.071	19.318	-0.051	-0.040
-181.056	-15.017	0.153	-0.097
-180.042	-90.510	0.182	-0.052
-179.027	132.048	-0.144	-0.182
-178.012	-82.923	0.202	-0.064
-176.998	-63.785	0.147	-0.059
-175.983	233.059	-0.119	-0.192
-174.969	-52.506	0.295	-0.134
-173.954	-75.724	-0.095	-0.033
-172.939	470.902	0.075	-0.166
-171.925	800.000	-0.018	0.059
-170.910	-96.145	0.264	0.069
-169.896	-200.000	-0.020	0.205
-168.881	-78.308	-0.302	-0.102
-167.866	-200.000	0.030	0.141
-166.852	163.930	-0.175	0.242
-165.837	-200.000	-0.008	0.120
-164.823	800.000	-0.014	0.051
-163.808	7.431	-0.196	-0.143
-162.793	486.499	-0.173	0.388
-161.779	-91.616	-0.164	0.046
-160.764	393.489	-0.186	0.381
-159.750	-6.134	-0.136	-0.091
-158.735	724.831	-0.055	0.143
-157.720	-131.076	-0.233	0.030
-156.706	-200.000	0.031	-0.268
-155.691	180.689	-0.260	-0.375
-154.677	-87.660	0.158	-0.047
-153.662	-38.883	-0.176	-0.091
-152.647	-113.960	-0.073	0.014
-151.633	57.005	-0.047	0.045
-150.618	124.695	0.141	-0.174
-149.604	-119.534	-0.370	0.063
-148.589	-8.003	0.174	-0.115
-147.574	-133.646	0.343	-0.042
-146.560	29.629	0.134	0.112
-145.545	800.000	-0.080	0.312
-144.531	115.234	-0.025	-0.030
-143.516	-10.590	0.291	-0.189
-142.502	-200.000	-0.012	-0.268
-141.487	214.660	-0.167	-0.259
-140.472	800.000	0.110	-0.332
-139.458	-200.000	-0.005	-0.221
-138.443	-115.172	0.124	-0.023
-137.429	-4.658	0.298	0.202
-136.414	-65.272	-0.187	0.074
-135.399	25.264	-0.182	-0.149
-134.385	94.733	0.215	-0.240
-133.370	-118.060	0.268	0.047
-132.356	194.898	-0.089	-0.132
-131.341	376.836	0.133	0.266
-130.326	-200.000	0.009	0.254
-129.312	-134.537	0.366	0.044
-128.297	68.009	0.120	-0.120
-127.283	118.146	-0.015	-0.018
-126.268	523.166	0.180	-0.415
-125.253	-173.100	-0.251	-0.008
-124.239	-33.790	-0.050	-0.027
-123.224	108.533	-0.050	0.059
-122.210	-51.501	-0.162	0.074
-121.195	376.093	0.080	0.160
-120.180	-200.000	0.031	-0.170
-119.166	-200.000	0.043	-0.330
-118.151	283.578	-0.140	-0.246
-117.137	-63.243	-0.319	0.129
-116.122	377.437	0.103	0.206
-115.107	25.233	0.125	0.101
-114.093	-200.000	0.015	0.069
-113.078	800.000	-0.020	-0.088
-112.064	-200.000	0.003	-0.048
-111.049	136.868	-0.060	0.076
-110.034	29.250	0.187	-0.155
-109.020	-200.000	0.007	0.220
-108.005	373.223	-0.197	-0.392
-106.991	622.716	-0.058	0.144
-105.976	-27.133	-0.013	0.008
-104.962	57.165	0.362	0.346
-103.947	800.000	-0.033	0.100
-102.932	-103.617	-0.160	-0.037
-101.918	76.325	0.185	0.192
-100.903	-151.912	-0.166	-0.012
-99.889	-123.757	-0.498	-0.077
-98.874	-98.254	-0.143	-0.036
-97.859	-131.362	-0.453	-0.059
-96.845	-200.000	-0.007	-0.179
-95.830	-110.243	-0.122	-0.025
-94.816	-98.746	0.055	0.014
-93.801	800.000	0.080	0.245
-92.786	-200.000	-0.050	-0.325
-91.772	35.619	-0.301	-0.259
-90.757	800.000	0.083	-0.273
-89.743	-152.629	0.281	-0.020
-88.728	-200.000	-0.014	-0.101
-87.713	-113.731	0.178	-0.034
-86.699	-200.000	-0.041	0.224
-85.684	800.000	-0.098	0.364
-84.670	-179.746	0.204	0.004
-83.655	316.718	-0.226	-0.417
-82.640	73.552	-0.001	-0.001
-81.626	271.643	0.048	0.083
-80.611	-8.775	0.329	0.216
-79.597	-93.865	-0.275	-0.074
-78.582	513.760	0.074	-0.169
-77.567	-200.000	0.003	0.183
-76.553	-35.113	0.380	-0.203
-75.538	170.199	0.101	-0.141
-74.524	75.072	-0.088	-0.091
-73.509	-71.596	-0.111	0.040
-72.494	-137.785	-0.228	0.025
-71.480	800.000	-0.034	0.108
-70.465	496.511	-0.116	-0.261
-69.451	-39.534	-0.054	-0.028
-68.436	568.411	-0.148	0.351
-67.422	800.000	-0.076	0.270
-66.407	-114.436	0.020	0.004
-65.392	-123.368	-0.256	0.040
-64.378	-200.000	-0.004	0.093
-63.363	59.374	0.246	0.237
-62.349	219.000	0.262	0.409
-61.334	24.297	-0.987	-0.798
-60.319	45.241	0.449	0.405
-59.305	105.303	-0.868	-1.002
-58.290	226.395	0.658	1.043
-57.276	389.015	0.622	1.260
-56.261	-200.000	116.462	646.339
-55.246	503.778	1536.335	3473.575
-54.232	177.207	2700.350	3841.975
-53.217	105.915	2143.692	2479.030
-52.203	38.240	1581.422	1375.922
-51.188	29.955	1325.813	1104.315
-50.173	27.145	1287.344	1055.929
-49.159	52.203	1345.760	1253.610
-48.144	50.609	1358.835	1256.273
-47.130	29.987	1313.233	1093.851
-46.115	26.589	1295.439	1059.151
-45.100	26.580	1289.965	1054.579
-44.086	26.450	1287.692	1051.923
-43.071	26.424	1285.378	1049.843
-42.057	26.387	1283.344	1047.921
-41.042	26.374	1281.739	1046.498
-40.027	26.458	1279.801	1045.361
-39.013	26.460	1278.426	1044.204
-37.998	26.446	1276.483	1042.497
-36.984	26.508	1274.686	1041.343
-35.969	26.551	1272.904	1040.095
-34.954	26.565	1270.997	1038.574
-33.940	26.556	1270.054	1037.712
-32.925	26.656	1268.632	1037.080
-31.911	26.643	1267.096	1035.707
-30.896	26.601	1265.875	1034.430
-29.881	26.759	1264.455	1034.129
-28.867	26.679	1262.785	1032.267
-27.852	26.714	1261.628	1031.482
-26.838	26.684	1260.078	1030.002
-25.823	26.683	1258.759	1028.878
-24.809	26.671	1257.626	1027.840
-23.794	26.586	1256.597	1026.479
-22.779	26.678	1254.647	1025.363
-21.765	26.651	1253.693	1024.395
-20.750	26.703	1252.571	1023.732
-19.736	26.639	1250.912	1021.972
-18.721	26.510	1249.785	1020.285
-17.706	26.581	1248.839	1019.870
-16.692	26.431	1248.209	1018.469
-15.677	26.565	1246.973	1018.177
-14.663	26.631	1245.395	1017.219
-13.648	26.584	1244.298	1016.016
-12.633	26.591	1243.380	1015.264
-11.619	26.489	1243.008	1014.353
-10.604	26.425	1242.032	1013.157
-9.590	26.555	1241.343	1013.282
-8.575	26.475	1240.054	1011.742
-7.560	26.591	1238.992	1011.481
-6.546	26.509	1238.508	1010.590
-5.531	26.508	1237.855	1010.008
-4.517	26.404	1236.562	1008.338
-3.502	26.590	1235.198	1008.221
-2.487	26.639	1234.398	1007.797
-1.473	26.497	1230.521	1003.804
-0.458	24.868	1215.953	982.942
0.556	21.637	1199.918	946.437
1.571	17.993	1205.750	931.127
2.586	17.165	1220.617	937.950
3.600	16.921	1208.635	927.330
4.615	12.702	1138.217	851.451
5.629	6.031	1068.098	766.465
6.644	3.320	1050.414	740.685
7.659	3.086	1048.048	737.831
8.673	3.095	1047.153	737.178
9.688	3.159	1045.787	736.458
10.702	3.219	1044.103	735.491
11.717	7.061	1049.350	757.543
12.731	14.520	1059.487	800.731
13.746	18.960	1065.038	826.237
14.761	19.675	1065.152	829.688
15.775	18.892	1063.479	824.556
16.790	17.798	1061.676	817.844
17.804	17.228	1059.976	813.733
18.819	17.024	1058.364	811.447
19.834	16.836	1058.231	810.375
20.848	16.588	1057.753	808.753
21.863	16.381	1057.058	807.159
22.877	16.249	1056.432	805.980
23.892	16.399	1055.173	805.665
24.907	16.374	1054.501	804.961
25.921	16.344	1053.361	803.877
26.936	16.285	1052.513	802.874
27.950	16.425	1050.579	801.995
28.965	16.400	1049.437	800.935
29.980	16.581	1047.876	800.527
30.994	16.605	1046.975	799.883
32.009	16.658	1046.123	799.409
33.023	16.541	1045.181	798.067
34.038	16.412	1044.060	796.534
35.053	16.354	1043.127	795.477
36.067	16.385	1042.087	794.761
37.082	16.370	1041.116	793.878
38.096	16.541	1040.746	794.333
39.111	16.531	1040.314	793.884
40.126	16.383	1038.837	791.992
41.140	16.107	1037.678	789.744
42.155	16.071	1035.768	788.055
43.169	16.040	1035.138	787.360
44.184	16.065	1034.175	786.674
45.199	16.081	1033.005	785.790
46.213	16.158	1031.973	785.292
47.228	16.327	1031.155	785.388
48.242	16.453	1029.779	784.857
49.257	16.267	1029.375	783.615
50.271	16.489	1028.576	783.969
51.286	16.227	1028.190	782.390
52.301	16.251	1026.863	781.421
53.315	16.297	1025.344	780.408
54.330	16.189	1024.318	779.059
55.344	16.218	1023.515	778.516
56.359	16.132	1022.945	777.616
57.374	16.249	1021.736	777.164
58.388	16.102	1020.939	775.813
59.403	16.077	1019.990	774.910
60.417	16.083	1019.456	774.463
61.432	15.869	1019.007	773.072
62.447	15.937	1017.682	772.311
63.461	16.006	1016.649	771.773
64.476	15.975	1015.713	770.853
65.490	15.842	1015.377	769.923
66.505	15.861	1014.748	769.465
67.520	16.090	1013.695	769.643
68.534	16.004	1013.179	768.791
69.549	15.866	1012.794	767.798
70.563	15.821	1011.811	766.780
71.578	15.835	1010.725	765.956
72.593	15.790	1009.890	765.048
73.607	15.614	1009.769	764.092
74.622	15.764	1008.579	763.803
75.636	15.765	1007.980	763.287
76.651	15.861	1007.389	763.206
77.666	15.815	1006.795	762.480
78.680	15.886	1006.453	762.474
79.695	15.860	1005.438	761.522
80.709	15.963	1005.017	761.602
81.724	16.174	1004.406	762.025
82.739	16.159	1003.411	761.136
83.753	16.338	1003.166	761.689
84.768	16.486	1002.180	761.539
85.782	16.781	1000.999	761.902
86.797	16.632	1000.479	760.768
87.812	16.463	999.568	759.248
88.826	16.460	998.666	758.482
89.841	16.478	997.512	757.619
90.855	16.618	996.525	757.431
91.870	16.565	996.094	756.798
92.884	16.639	994.695	756.001
93.899	16.384	994.311	754.501
94.914	16.627	993.085	754.587
95.928	16.740	992.478	754.562
96.943	16.655	991.067	753.047
97.957	16.509	990.423	751.842
98.972	16.476	989.657	751.046
99.987	16.474	989.473	750.832
101.001	16.466	987.905	749.542
102.016	16.367	987.687	748.871
103.030	16.607	986.541	748.998
104.045	16.556	986.081	748.357
105.060	16.432	984.686	746.683
106.074	16.187	984.160	745.136
107.089	16.094	983.032	743.808
108.103	15.973	981.871	742.326
109.118	16.160	980.521	742.065
110.133	15.961	979.819	740.593
111.147	15.903	979.361	739.929
112.162	16.167	978.366	740.270
113.176	16.302	977.542	740.173
114.191	16.205	977.071	739.326
115.206	16.131	976.361	738.396
116.220	16.157	975.360	737.689
117.235	16.104	974.661	736.863
118.249	16.105	973.457	735.892
119.264	16.201	972.402	735.449
120.279	16.142	972.004	734.824
121.293	15.983	971.485	733.675
122.308	15.996	970.110	732.628
123.322	15.907	968.942	731.294
124.337	15.979	967.629	730.554
125.352	16.009	966.743	729.948
126.366	15.838	965.732	728.380
127.381	15.848	965.477	728.168
128.395	15.984	963.937	727.528
129.410	15.942	963.250	726.765
130.424	15.931	962.755	726.278
131.439	16.097	961.532	726.007
132.454	16.163	961.215	725.987
133.468	16.189	960.184	725.256
134.483	16.072	959.418	724.109
135.497	16.137	958.266	723.458
136.512	16.214	957.785	723.361
137.527	16.301	956.668	722.825
138.541	16.285	956.158	722.305
139.556	16.197	955.936	721.699
140.570	16.416	955.268	722.065
141.585	16.486	954.529	721.744
142.600	16.523	953.298	720.907
143.614	16.699	952.069	720.663
144.629	16.596	952.274	720.316
145.643	16.648	950.846	719.392
146.658	16.557	949.472	717.901
147.673	16.441	948.869	716.891
148.687	16.319	948.212	715.815
149.702	16.226	946.918	714.381
150.716	16.271	946.048	713.851
151.731	16.205	945.688	713.236
152.746	16.150	945.461	712.768
153.760	16.486	944.618	713.488
154.775	16.464	943.704	712.645
155.789	16.542	943.295	712.598
156.804	16.394	942.633	711.414
157.819	16.615	941.765	711.624
158.833	16.602	941.058	710.973
159.848	16.799	940.075	710.995
160.862	16.670	939.419	709.893
161.877	16.399	938.101	707.699
162.892	16.323	937.279	706.699
163.906	16.246	936.473	705.708
164.921	16.318	935.516	705.227
165.935	16.399	934.941	705.066
166.950	16.468	934.015	704.593
167.964	16.432	933.372	703.898
168.979	16.410	932.142	702.814
169.994	16.420	931.253	702.124
171.008	16.509	930.851	702.128
172.023	16.700	929.996	702.213
173.037	16.675	929.610	701.758
174.052	16.554	928.524	700.376
175.067	16.532	928.132	699.926
176.081	16.347	927.178	698.380
177.096	16.284	926.879	697.830
178.110	16.382	926.202	697.663
179.125	16.380	925.666	697.191
180.140	16.461	925.618	697.427
181.154	16.633	924.951	697.572
182.169	16.711	924.099	697.190
183.183	16.852	923.313	697.116
184.198	16.694	922.934	696.116
185.213	16.754	922.120	695.688
186.227	16.830	921.352	695.358
187.242	16.825	920.949	694.974
188.256	16.941	920.313	694.907
189.271	16.939	919.709	694.379
190.286	16.676	919.107	692.790
191.300	16.240	917.860	690.008
192.315	16.302	917.041	689.583
193.329	16.243	916.522	688.891
194.344	16.507	916.030	689.538
195.359	16.592	915.469	689.398
196.373	16.689	915.207	689.535
197.388	16.820	914.842	689.732
198.402	16.983	914.369	689.979
199.417	17.024	913.994	689.802
200.432	17.201	912.801	689.557
201.446	17.316	912.608	689.817
202.461	17.335	912.145	689.482
203.475	17.098	911.289	687.814
204.490	17.071	910.161	686.794
205.504	16.769	910.132	685.491
206.519	16.897	908.955	685.062
207.534	16.911	908.279	684.547
208.548	16.841	907.965	683.965
209.563	16.928	906.965	683.504
210.577	16.984	906.819	683.559
211.592	17.153	906.087	683.628
212.607	17.337	905.168	683.612
213.621	17.013	904.450	681.709
214.636	17.198	903.640	681.779
215.650	17.137	903.516	681.381
216.665	17.415	901.987	681.283
217.680	17.391	901.750	680.945
218.694	17.421	901.274	680.647
219.709	17.288	900.608	679.551
220.723	17.213	900.159	678.853
221.738	17.109	899.444	677.837
222.753	17.425	898.324	678.192
223.767	17.379	898.118	677.796
224.782	17.473	897.671	677.773
225.796	17.536	897.257	677.651
226.811	17.379	896.650	676.510
227.826	17.394	895.349	675.527
228.840	17.320	894.388	674.448
229.855	17.233	894.152	673.866
230.869	17.210	893.717	673.388
231.884	17.210	892.539	672.441
232.899	17.050	892.009	671.349
233.913	17.123	891.098	670.891
234.928	17.173	890.398	670.504
235.942	17.045	890.002	669.638
236.957	17.054	889.689	669.382
237.972	16.986	889.253	668.723
238.986	17.166	888.288	668.650
240.001	17.187	887.752	668.269
241.015	17.198	887.155	667.804
242.030	17.310	886.261	667.512
243.045	17.520	885.641	667.809
244.059	17.476	885.212	667.254
245.074	17.311	885.114	666.473
246.088	17.524	884.031	666.435
247.103	17.424	883.826	665.829
248.117	17.534	883.518	665.967
249.132	17.977	882.770	667.078
250.147	17.964	882.275	666.593
251.161	18.021	881.559	666.216
252.176	17.977	881.175	665.692
253.190	18.121	880.452	665.650
254.205	18.134	879.870	665.199
255.220	18.156	879.155	664.686
256.234	17.927	878.415	663.180
257.249	17.994	877.762	662.886
258.263	17.971	877.182	662.300
259.278	18.019	876.862	662.187
260.293	18.065	875.937	661.610
261.307	18.171	875.578	661.688
262.322	18.204	874.578	661.001
263.336	18.217	874.011	660.567
264.351	18.295	873.051	660.083
265.366	18.282	872.530	659.582
266.380	18.154	872.154	658.745
267.395	18.223	871.108	658.162
268.409	18.058	870.425	656.952
269.424	18.054	869.761	656.377
270.439	18.210	868.905	656.272
271.453	18.139	868.073	655.313
272.468	18.048	867.720	654.641
273.482	18.093	866.996	654.209
274.497	18.030	866.916	653.849
275.512	18.102	865.902	653.301
276.526	18.137	865.624	653.168
277.541	18.234	865.107	653.089
278.555	18.325	864.716	653.084
279.570	18.359	864.193	652.761
280.585	18.382	863.110	651.975
281.599	18.178	862.722	650.847
282.614	18.232	861.704	650.228
283.628	18.069	861.438	649.350
284.643	18.103	860.503	648.717
285.657	18.288	860.008	648.986
286.672	18.256	859.416	648.362
287.687	18.201	858.985	647.772
288.701	18.320	857.894	647.340
289.716	18.294	857.475	646.870
290.730	18.224	857.386	646.480
291.745	18.441	856.215	646.358
292.760	18.610	855.916	646.710
293.774	18.627	855.190	646.169
294.789	18.418	854.702	644.957
295.803	18.348	853.829	643.977
296.818	18.350	853.362	643.576
297.833	18.333	852.727	642.976
298.847	18.438	851.763	642.588
299.862	18.532	851.130	642.407
300.876	18.503	851.304	642.372
301.891	18.508	850.944	642.061
302.906	18.625	850.299	641.957
303.920	18.867	849.680	642.334
304.935	18.908	849.006	641.925
305.949	18.714	848.247	640.567
306.964	18.584	847.922	639.784
307.979	18.662	847.202	639.473
308.993	18.602	846.460	638.632
310.008	18.823	846.157	639.168
311.022	18.784	845.159	638.213
312.037	18.766	844.859	637.866
313.052	18.483	844.073	636.163
314.066	18.487	843.401	635.617
315.081	18.613	842.764	635.547
316.095	18.408	842.482	634.518
317.110	18.444	842.140	634.339
318.125	18.386	841.680	633.721
319.139	18.510	840.995	633.607
320.154	18.610	840.365	633.445
321.168	18.656	839.817	633.146
322.183	18.571	839.244	632.346
323.197	18.592	838.861	632.080
324.212	18.555	838.432	631.562
325.227	18.598	838.006	631.344
326.241	18.597	837.195	630.676
327.256	18.706	836.322	630.361
328.270	18.695	835.878	629.930
329.285	18.595	835.596	629.295
330.300	18.667	834.679	628.811
331.314	18.595	834.565	628.407
332.329	18.803	833.909	628.618
333.343	18.941	833.808	628.992
334.358	18.850	833.243	628.177
335.373	18.703	832.787	627.241
336.387	18.993	832.635	628.131
337.402	19.021	832.427	628.018
338.416	19.074	832.001	627.836
339.431	19.045	831.647	627.408
340.446	19.275	831.342	627.960
341.460	19.208	830.833	627.276
342.475	19.294	830.480	627.269
343.489	19.177	830.229	626.598
344.504	19.464	829.621	627.124
345.519	19.359	829.411	626.528
346.533	19.330	828.631	625.781
347.548	19.150	827.849	624.480
348.562	19.007	827.464	623.618
349.577	19.023	826.551	622.930
350.592	18.944	825.961	622.146
351.606	18.903	825.539	621.625
352.621	18.802	824.583	620.485
353.635	18.975	824.233	620.791
354.650	19.044	824.052	620.848
355.665	19.081	823.273	620.342
356.679	19.158	822.340	619.862
357.694	19.110	822.041	619.407
358.708	19.238	821.041	619.060
359.723	19.198	820.687	618.592
360.738	19.211	820.316	618.306
361.752	19.234	819.545	617.754
362.767	19.277	818.902	617.366
363.781	19.426	818.669	617.671
364.796	19.585	818.314	617.917
365.810	19.645	818.132	617.938
366.825	19.698	817.542	617.630
367.840	19.720	817.161	617.363
368.854	19.531	816.446	616.096
369.869	19.510	816.284	615.842
370.883	19.653	815.532	615.732
371.898	19.606	815.487	615.477
372.913	19.744	815.069	615.598
373.927	19.529	814.600	614.422
374.942	19.568	814.116	614.141
375.956	19.723	813.480	614.160
376.971	19.729	813.159	613.883
377.986	19.778	812.827	613.754
379.000	19.810	812.522	613.583
380.015	19.902	811.421	613.021
381.029	19.821	811.162	612.484
382.044	19.872	810.208	611.891
383.059	19.748	810.246	611.426
384.073	19.876	808.887	610.800
385.088	19.755	808.127	609.745
386.102	19.749	807.427	609.142
387.117	19.675	807.095	608.578
388.132	19.681	806.978	608.454
389.146	19.821	806.356	608.424
390.161	19.805	806.046	608.081
391.175	19.798	805.809	607.824
392.190	19.712	805.014	606.869
393.205	19.564	804.352	605.797
394.219	19.666	803.986	605.826
395.234	19.665	803.612	605.487
396.248	19.506	803.199	604.565
397.263	19.565	802.772	604.396
398.278	19.591	802.320	604.093
399.292	19.608	801.747	603.669
400.307	19.596	801.086	603.076
401.321	19.648	800.659	602.880
402.336	19.622	800.418	602.555
403.350	19.833	799.811	602.782
404.365	19.927	799.601	602.897
405.380	19.991	799.451	602.952
406.394	20.060	798.662	602.544
407.409	20.094	798.566	602.538
408.423	20.179	798.490	602.722
409.438	20.170	798.315	602.506
410.453	20.233	797.560	602.101
411.467	20.300	797.195	602.005
412.482	20.333	796.773	601.748
413.496	20.446	796.084	601.563
414.511	20.400	796.146	601.397
415.526	20.419	795.385	600.835
416.540	20.481	794.424	600.272
417.555	20.142	794.392	599.022
418.569	20.452	793.442	599.325
419.584	20.377	793.613	599.142
420.599	20.420	792.933	598.723
421.613	162.448	1371.777	1797.153
422.628	140.814	1456.128	1797.244
