DTS Sentinel unit serial number:	SN413079Multiplexer serial number:	ORYXHardware model number:	OX4-SRSoftware version number:	ORYX F/W v4.00 Oryx Data Collector v3.7.2.0data status	okinstallation	princeton_trtdifferential loss correction	single-endedforward channel	channel 1reverse channel	N/Adate	2019/09/15time	00:14:35forward acquisition time	60.00reverse acquisition time	0.00gamma	496.2192k internal	0.2320k external	0.2320temperature offset calibration	0.9990default loss term (dB/km)	0.3790temperature slope calibration	1.0000multiplexer offset coefficient	1.0000multiplexer slope coefficient	1.0000fibre end	0.00T internal ref (°C)	32.19T ext. ref 1 (°C)	4.58T ext. ref 2 (°C)	27.19length (m)	temperature (°C)	Stokes	anti-Stokes-747.200	-10.510	-0.223	0.150
-746.185	-3.497	0.312	0.220
-745.171	-7.947	0.175	0.119
-744.156	-115.522	0.103	0.020
-743.142	396.856	-0.039	0.082
-742.127	82.267	-0.375	0.412
-741.112	-167.559	-0.049	0.002
-740.098	5.800	-0.267	0.200
-739.083	-200.000	0.018	0.164
-738.069	611.291	0.155	0.391
-737.054	240.023	0.104	-0.176
-736.039	800.000	-0.074	-0.320
-735.025	632.924	-0.076	0.196
-734.010	-116.044	-0.068	-0.013
-732.996	169.650	-0.178	0.258
-731.981	466.869	-0.154	0.350
-730.966	369.357	0.041	0.084
-729.952	251.225	0.106	-0.183
-728.937	196.187	-0.072	0.111
-727.923	708.717	0.134	-0.358
-726.908	-200.000	-0.002	-0.193
-725.894	521.405	-0.079	0.186
-724.879	-85.377	0.139	0.044
-723.864	43.682	-0.109	0.101
-722.850	230.071	-0.055	-0.090
-721.835	417.183	0.031	0.067
-720.821	54.594	-0.238	-0.232
-719.806	524.682	-0.110	-0.260
-718.791	-200.000	-0.018	-0.231
-717.777	246.393	-0.063	0.108
-716.762	-200.000	0.053	-0.410
-715.748	800.000	-0.075	-0.316
-714.733	128.807	0.113	0.145
-713.718	17.423	-0.147	0.118
-712.704	-117.582	0.054	0.010
-711.689	800.000	0.075	0.325
-710.675	-200.000	0.005	-0.324
-709.660	-79.411	-0.083	0.028
-708.645	-200.000	0.040	-0.305
-707.631	505.778	0.180	-0.422
-706.616	-88.229	-0.225	0.068
-705.602	800.000	-0.098	0.338
-704.587	-109.773	0.255	-0.054
-703.572	143.638	-0.184	-0.248
-702.558	-200.000	-0.035	-0.252
-701.543	-184.617	-0.339	0.006
-700.529	137.597	-0.233	-0.307
-699.514	-3.514	0.206	0.144
-698.499	-200.000	-0.017	-0.080
-697.485	-147.402	0.136	0.012
-696.470	-41.727	0.134	-0.070
-695.456	348.105	0.028	0.055
-694.441	555.173	0.067	-0.162
-693.426	-82.369	-0.108	-0.036
-692.412	-50.048	-0.152	0.073
-691.397	-200.000	0.017	0.236
-690.383	-200.000	0.009	0.227
-689.368	-42.154	0.068	-0.035
-688.354	43.627	0.100	-0.092
-687.339	-28.448	-0.141	0.082
-686.324	42.330	-0.125	0.115
-685.310	44.900	-0.094	-0.087
-684.295	248.421	-0.228	0.389
-683.281	-69.294	-0.066	0.025
-682.266	-200.000	-0.352	-0.000
-681.251	800.000	0.052	-0.189
-680.237	-18.848	0.039	0.025
-679.222	-53.424	-0.120	0.055
-678.208	-200.000	0.010	0.098
-677.193	-200.000	-0.015	0.099
-676.178	156.986	-0.167	-0.233
-675.164	-79.717	-0.068	0.023
-674.149	209.368	0.059	-0.094
-673.135	-65.253	-0.157	-0.064
-672.120	800.000	-0.017	-0.059
-671.105	-200.000	0.002	-0.221
-670.091	44.568	0.127	-0.118
-669.076	206.703	-0.120	-0.188
-668.062	-70.590	0.283	-0.108
-667.047	222.383	0.121	0.196
-666.032	612.847	-0.065	0.165
-665.018	800.000	-0.071	0.200
-664.003	-199.009	-0.147	0.001
-662.989	-28.081	-0.399	0.233
-661.974	-125.591	-0.227	0.035
-660.959	-54.023	0.227	-0.104
-659.945	95.692	-0.140	-0.162
-658.930	400.789	0.078	-0.166
-657.916	7.885	0.196	-0.148
-656.901	-98.821	0.218	-0.056
-655.886	-42.491	0.160	0.082
-654.872	351.858	0.119	-0.237
-653.857	51.395	0.165	-0.157
-652.843	-86.289	0.201	0.062
-651.828	168.107	-0.182	0.261
-650.814	310.827	-0.039	0.073
-649.799	251.693	-0.131	0.225
-648.784	-200.000	0.017	-0.144
-647.770	62.638	-0.233	0.234
-646.755	-200.000	-0.024	0.321
-645.741	30.735	-0.287	-0.248
-644.726	159.910	0.068	-0.095
-643.711	190.230	-0.212	0.320
-642.697	-96.482	0.244	-0.065
-641.682	41.551	0.112	-0.102
-640.668	-200.000	0.011	0.115
-639.653	800.000	0.065	0.193
-638.638	75.653	-0.045	0.048
-637.624	25.477	-0.149	-0.125
-636.609	319.771	0.095	-0.182
-635.595	-30.438	-0.062	-0.036
-634.580	137.229	0.049	0.065
-633.565	-4.300	-0.082	-0.057
-632.551	-88.699	0.326	-0.097
-631.536	202.420	0.221	-0.344
-630.522	138.187	0.162	0.214
-629.507	-12.014	-0.206	0.136
-628.492	800.000	0.043	-0.185
-627.478	-149.595	-0.361	0.029
-626.463	116.178	0.246	-0.304
-625.449	-87.020	-0.299	-0.092
-624.434	-4.113	-0.336	-0.234
-623.419	-121.723	0.186	-0.031
-622.405	-82.995	0.247	-0.080
-621.390	-82.066	0.415	-0.136
-620.376	123.832	-0.145	0.183
-619.361	-200.000	-0.072	-0.332
-618.346	262.635	-0.163	0.284
-617.332	14.216	-0.207	-0.162
-616.317	133.045	-0.129	0.168
-615.303	800.000	-0.033	-0.106
-614.288	800.000	0.091	-0.365
-613.273	800.000	-0.072	-0.256
-612.259	-0.027	-0.174	0.125
-611.244	800.000	-0.078	0.249
-610.230	-123.087	-0.229	-0.037
-609.215	-38.430	0.329	0.175
-608.201	-153.521	-0.198	-0.014
-607.186	-172.282	-0.072	-0.002
-606.171	-200.000	0.066	0.306
-605.157	212.434	-0.045	0.071
-604.142	-39.952	0.161	-0.084
-603.128	-59.192	0.052	0.022
-602.113	-4.322	0.305	0.212
-601.098	407.478	0.073	0.155
-600.084	218.432	0.066	-0.106
-599.069	-3.873	0.259	0.181
-598.055	119.298	-0.333	-0.414
-597.040	-200.000	-0.042	0.200
-596.025	-97.396	0.028	0.007
-595.011	-102.669	0.315	-0.076
-593.996	316.721	-0.090	-0.170
-592.982	49.181	0.061	-0.058
-591.967	800.000	0.078	-0.237
-590.952	-74.123	0.080	0.029
-589.938	800.000	-0.049	-0.189
-588.923	129.988	-0.076	0.098
-587.909	-132.451	-0.095	0.012
-586.894	-200.000	-0.017	-0.251
-585.879	351.880	0.084	-0.167
-584.865	39.918	0.144	0.130
-583.850	61.383	-0.142	-0.142
-582.836	-200.000	0.006	0.156
-581.821	185.055	0.093	0.138
-580.806	-165.705	0.142	-0.006
-579.792	37.178	-0.167	-0.148
-578.777	49.741	0.175	-0.165
-577.763	800.000	0.092	0.256
-576.748	800.000	-0.053	0.197
-575.733	-200.000	-0.023	0.290
-574.719	-31.351	-0.090	-0.051
-573.704	-61.468	-0.165	0.070
-572.690	-200.000	0.005	-0.089
-571.675	257.501	-0.169	0.292
-570.661	337.569	-0.099	0.194
-569.646	-26.217	-0.241	0.142
-568.631	800.000	-0.039	0.124
-567.617	-52.902	0.050	-0.023
-566.602	376.993	0.115	0.237
-565.588	8.023	-0.108	-0.082
-564.573	-88.916	0.045	0.013
-563.558	182.580	0.257	-0.380
-562.544	-21.476	0.131	0.080
-561.529	402.655	0.084	0.178
-560.515	-128.764	-0.131	-0.018
-559.500	-200.000	0.006	-0.225
-558.485	-125.885	0.280	-0.042
-557.471	-23.372	0.126	-0.076
-556.456	41.310	0.100	0.090
-555.442	616.238	-0.209	-0.525
-554.427	800.000	-0.040	-0.133
-553.412	-200.000	0.005	0.231
-552.398	-61.025	0.101	0.043
-551.383	-72.606	-0.246	-0.091
-550.369	-200.000	-0.008	-0.124
-549.354	259.775	-0.101	-0.175
-548.339	122.954	0.088	0.111
-547.325	700.590	-0.044	-0.116
-546.310	494.389	-0.085	-0.196
-545.296	-69.759	0.314	0.120
-544.281	354.621	0.061	0.121
-543.266	-38.080	0.143	0.076
-542.252	-200.000	-0.038	-0.195
-541.237	-20.083	0.132	0.082
-540.223	-41.379	-0.458	0.236
-539.208	307.656	0.135	0.252
-538.193	-200.000	-0.056	0.279
-537.179	-121.109	-0.378	0.064
-536.164	169.603	0.165	-0.237
-535.150	800.000	-0.032	0.095
-534.135	1.074	0.065	0.047
-533.121	138.257	0.099	-0.130
-532.106	6.133	-0.063	-0.047
-531.091	-135.126	0.097	-0.012
-530.077	277.342	0.050	0.090
-529.062	-147.906	0.269	-0.023
-528.048	32.916	-0.220	-0.191
-527.033	628.651	0.042	-0.106
-526.018	327.494	0.112	0.216
-525.004	-49.296	-0.369	0.177
-523.989	8.126	-0.025	-0.018
-522.975	-36.183	0.080	0.043
-521.960	-200.000	0.007	0.047
-520.945	80.239	-0.220	0.237
-519.931	-0.584	0.083	0.059
-518.916	241.148	-0.052	-0.087
-517.902	-176.944	0.297	-0.008
-516.887	-116.395	-0.211	-0.039
-515.872	89.612	0.062	-0.069
-514.858	-200.000	-0.013	-0.148
-513.843	89.275	0.074	0.082
-512.829	-77.959	0.339	-0.117
-511.814	-31.707	0.326	0.183
-510.799	800.000	0.092	-0.325
-509.785	223.105	-0.038	-0.062
-508.770	718.528	0.058	0.154
-507.756	800.000	0.096	0.298
-506.741	356.196	0.073	-0.146
-505.726	84.281	-0.028	-0.031
-504.712	-200.000	-0.040	0.179
-503.697	-5.117	-0.160	-0.110
-502.683	175.390	0.144	-0.209
-501.668	-27.256	0.214	-0.125
-500.653	18.714	-0.126	-0.101
-499.639	195.597	0.040	-0.060
-498.624	800.000	-0.047	-0.147
-497.610	-200.000	-0.004	-0.226
-496.595	-0.271	-0.109	0.078
-495.581	-183.520	-0.312	0.005
-494.566	109.211	0.079	0.094
-493.551	460.858	0.181	-0.405
-492.537	-22.624	0.332	-0.201
-491.522	13.677	-0.164	0.127
-490.508	-84.658	0.316	-0.100
-489.493	-200.000	-0.003	0.345
-488.478	43.298	-0.099	-0.090
-487.464	800.000	-0.098	-0.321
-486.449	5.623	0.158	0.117
-485.435	281.943	0.130	-0.233
-484.420	458.704	-0.138	0.307
-483.405	237.455	0.154	0.255
-482.391	-42.003	-0.188	0.096
-481.376	-76.212	-0.196	0.069
-480.362	45.134	-0.108	0.100
-479.347	-147.611	-0.209	-0.018
-478.332	800.000	-0.072	0.235
-477.318	138.175	0.197	-0.259
-476.303	85.866	0.171	0.189
-475.289	-200.000	-0.015	0.193
-474.274	-200.000	0.023	-0.152
-473.259	-110.106	0.191	-0.040
-472.245	800.000	0.043	-0.149
-471.230	-153.167	0.207	-0.014
-470.216	518.667	0.028	0.065
-469.201	-115.956	-0.109	-0.020
-468.186	-174.008	-0.183	0.005
-467.172	167.049	-0.091	0.129
-466.157	-85.408	0.125	0.039
-465.143	-11.210	-0.215	0.142
-464.128	-200.000	0.023	0.212
-463.113	198.474	-0.158	0.242
-462.099	-200.000	-0.084	0.416
-461.084	138.053	-0.051	0.066
-460.070	30.030	-0.292	-0.249
-459.055	-200.000	-0.036	-0.222
-458.040	-200.000	-0.004	-0.088
-457.026	-178.577	0.331	0.008
-456.011	663.807	-0.065	0.169
-454.997	53.713	-0.029	-0.028
-453.982	384.001	0.053	0.110
-452.968	103.344	-0.171	-0.201
-451.953	800.000	0.050	-0.167
-450.938	-30.901	0.258	-0.145
-449.924	-132.407	0.056	0.007
-448.909	45.896	0.218	0.202
-447.895	118.759	0.107	0.132
-446.880	36.048	0.045	-0.040
-445.865	-200.000	0.011	-0.144
-444.851	16.017	0.080	0.063
-443.836	-200.000	-0.037	-0.230
-442.822	-200.000	-0.011	0.180
-441.807	-133.928	-0.176	-0.022
-440.792	-172.679	0.376	0.012
-439.778	-200.000	0.016	0.086
-438.763	-23.700	-0.271	0.162
-437.749	-118.699	-0.111	0.019
-436.734	224.749	-0.167	-0.270
-435.719	336.976	0.044	-0.085
-434.705	-59.520	0.294	-0.126
-433.690	-170.443	0.281	0.010
-432.676	298.922	0.044	-0.081
-431.661	-81.544	-0.352	0.115
-430.646	800.000	0.023	-0.091
-429.632	-200.000	0.015	-0.146
-428.617	305.945	0.119	-0.221
-427.603	42.485	0.143	-0.130
-426.588	222.286	-0.035	0.057
-425.573	-20.352	-0.120	0.073
-424.559	298.858	0.063	0.117
-423.544	800.000	0.062	0.270
-422.530	-200.000	0.088	-0.503
-421.515	-200.000	0.043	-0.571
-420.500	800.000	0.078	-0.255
-419.486	800.000	-0.058	-0.162
-418.471	86.096	-0.169	-0.186
-417.457	72.924	-0.043	0.045
-416.442	51.518	0.132	-0.125
-415.428	800.000	0.100	-0.334
-414.413	-148.107	-0.477	-0.039
-413.398	-200.000	0.004	0.133
-412.384	12.985	0.161	0.124
-411.369	-99.968	0.051	0.013
-410.355	147.706	-0.060	0.080
-409.340	-119.983	-0.213	-0.036
-408.325	-74.066	0.246	-0.089
-407.311	-143.072	0.144	-0.014
-406.296	359.036	0.063	0.126
-405.282	528.197	0.136	-0.320
-404.267	-87.449	0.452	0.136
-403.252	-23.715	-0.051	0.031
-402.238	13.386	-0.170	0.131
-401.223	800.000	-0.056	-0.170
-400.209	-63.836	-0.132	0.054
-399.194	532.308	0.129	-0.304
-398.179	20.442	-0.280	-0.226
-397.165	92.887	0.114	0.128
-396.150	-8.333	-0.087	-0.059
-395.136	104.544	0.152	-0.178
-394.121	220.882	0.100	0.160
-393.106	800.000	-0.030	-0.114
-392.092	18.719	-0.083	0.066
-391.077	-124.225	-0.333	0.052
-390.063	-6.022	0.072	-0.049
-389.048	270.994	0.029	0.051
-388.033	14.232	-0.129	0.100
-387.019	187.413	-0.066	0.098
-386.004	-118.030	0.164	0.029
-384.990	-114.246	-0.532	-0.102
-383.975	570.157	0.082	-0.199
-382.960	334.825	-0.136	-0.262
-381.946	800.000	-0.084	0.238
-380.931	290.028	-0.158	0.286
-379.917	-116.554	-0.381	0.070
-378.902	143.613	0.045	-0.060
-377.888	-200.000	-0.016	0.199
-376.873	-200.000	0.066	0.301
-375.858	-67.799	-0.087	0.034
-374.844	703.816	0.029	-0.075
-373.829	487.626	0.143	-0.324
-372.815	-125.965	0.225	-0.034
-371.800	80.297	0.025	0.026
-370.785	-98.161	-0.007	-0.002
-369.771	800.000	-0.016	-0.044
-368.756	-80.444	-0.348	0.116
-367.742	68.636	-0.228	-0.233
-366.727	-200.000	0.057	0.458
-365.712	98.091	0.139	-0.159
-364.698	-57.356	0.161	-0.070
-363.683	-200.000	0.063	-0.304
-362.669	-200.000	0.038	-0.238
-361.654	-200.000	0.033	0.277
-360.639	-1.612	-0.191	0.134
-359.625	14.127	0.078	-0.060
-358.610	800.000	0.031	0.137
-357.596	57.126	0.139	-0.135
-356.581	89.272	-0.243	-0.270
-355.566	800.000	-0.018	-0.058
-354.552	-26.546	0.088	0.051
-353.537	35.578	0.008	-0.007
-352.523	-4.840	-0.110	0.076
-351.508	-79.352	-0.233	0.079
-350.493	-99.867	-0.130	-0.032
-349.479	-200.000	0.169	-0.001
-348.464	-119.572	-0.329	-0.057
-347.450	12.656	0.403	-0.310
-346.435	168.219	-0.130	-0.184
-345.420	-86.750	0.100	0.030
-344.406	-127.528	-0.234	0.034
-343.391	-81.260	0.099	-0.032
-342.377	25.773	-0.296	-0.246
-341.362	800.000	-0.067	-0.216
-340.348	184.971	0.099	-0.146
-339.333	384.193	0.068	-0.139
-338.318	-129.745	0.183	0.025
-337.304	79.164	-0.096	0.102
-336.289	117.543	-0.065	-0.080
-335.275	-21.535	-0.342	-0.207
-334.260	199.031	0.212	0.323
-333.245	-151.285	0.097	0.007
-332.231	71.218	-0.137	0.141
-331.216	800.000	-0.004	0.014
-330.202	-200.000	0.038	0.189
-329.187	-98.611	-0.267	0.068
-328.172	800.000	0.107	0.355
-327.158	209.254	0.106	-0.165
-326.143	-43.439	0.131	-0.066
-325.129	-53.199	0.023	-0.010
-324.114	40.112	0.113	0.101
-323.099	-142.018	-0.166	-0.016
-322.085	36.643	0.023	0.020
-321.070	-6.350	-0.139	0.095
-320.056	516.785	0.082	0.191
-319.041	-200.000	0.052	0.356
-318.026	109.710	-0.083	0.099
-317.012	14.514	-0.338	0.262
-315.997	16.934	0.290	0.228
-314.983	110.489	0.153	-0.183
-313.968	8.332	0.250	-0.187
-312.953	-95.329	-0.304	-0.081
-311.939	-80.407	-0.076	0.025
-310.924	-27.507	0.366	0.211
-309.910	90.646	-0.080	-0.089
-308.895	41.065	-0.167	0.150
-307.880	145.940	0.110	-0.147
-306.866	198.791	0.101	0.153
-305.851	-200.000	-0.002	0.068
-304.837	-169.528	-0.101	-0.004
-303.822	-148.290	-0.054	-0.004
-302.807	-162.803	-0.320	-0.016
-301.793	394.465	0.146	-0.303
-300.778	488.908	-0.156	-0.353
-299.764	-111.881	-0.178	0.036
-298.749	-108.620	-0.186	0.040
-297.735	731.996	0.066	-0.174
-296.720	434.907	0.063	-0.136
-295.705	-12.102	-0.219	-0.142
-294.691	-38.153	0.231	-0.122
-293.676	-103.815	0.267	0.062
-292.662	-191.148	0.124	-0.001
-291.647	104.454	0.213	0.249
-290.632	503.156	0.089	-0.205
-289.618	319.124	-0.028	-0.052
-288.603	147.674	-0.009	0.012
-287.589	152.973	-0.254	0.345
-286.574	54.109	-0.093	0.089
-285.559	168.698	0.104	-0.147
-284.545	-172.916	-0.224	0.007
-283.530	176.785	-0.270	-0.390
-282.516	-200.000	-0.002	0.227
-281.501	286.877	0.098	0.175
-280.486	-200.000	-0.041	0.336
-279.472	289.517	0.093	0.168
-278.457	-5.593	-0.135	-0.092
-277.443	52.598	0.238	0.225
-276.428	364.066	0.146	0.291
-275.413	-200.000	0.050	0.283
-274.399	-55.315	-0.087	-0.039
-273.384	-23.467	-0.314	0.187
-272.370	-89.713	0.273	-0.079
-271.355	800.000	-0.073	0.289
-270.340	-111.078	-0.188	0.038
-269.326	17.406	-0.094	0.074
-268.311	726.128	-0.013	0.035
-267.297	-137.673	-0.248	0.028
-266.282	-129.198	0.231	-0.032
-265.267	-95.614	0.280	0.075
-264.253	800.000	0.093	0.339
-263.238	-58.055	0.214	-0.093
-262.224	-77.497	0.207	-0.071
-261.209	-27.562	-0.206	-0.119
-260.195	800.000	-0.122	0.364
-259.180	-7.884	-0.131	-0.088
-258.165	-136.083	0.144	-0.017
-257.151	410.468	0.099	0.208
-256.136	-200.000	-0.016	-0.295
-255.122	-200.000	0.019	-0.212
-254.107	100.738	-0.142	-0.164
-253.092	294.319	-0.146	0.265
-252.078	29.350	-0.126	0.107
-251.063	800.000	-0.060	0.210
-250.049	-200.000	-0.017	-0.201
-249.034	683.838	0.102	-0.264
-248.019	-101.447	-0.348	0.084
-247.005	-77.720	0.177	0.061
-245.990	4.164	-0.131	-0.095
-244.976	40.228	-0.339	-0.302
-243.961	161.990	0.106	0.148
-242.946	-48.715	-0.035	-0.017
-241.932	171.044	0.114	0.162
-240.917	-117.438	-0.265	-0.048
-239.903	-107.874	0.316	0.068
-238.888	800.000	0.051	0.165
-237.873	-49.451	0.069	0.033
-236.859	-13.110	0.357	-0.230
-235.844	19.072	0.149	0.118
-234.830	-200.000	0.008	0.249
-233.815	-200.000	0.021	0.094
-232.800	149.371	0.201	0.269
-231.786	278.253	-0.072	-0.128
-230.771	-129.672	0.208	0.028
-229.757	-81.355	0.263	-0.086
-228.742	-23.654	0.104	-0.062
-227.727	-166.225	-0.249	0.010
-226.713	311.233	0.115	-0.213
-225.698	408.551	0.095	-0.199
-224.684	79.809	0.168	-0.179
-223.669	753.871	0.043	-0.114
-222.655	-200.000	-0.002	0.273
-221.640	41.256	-0.131	0.117
-220.625	159.283	0.102	-0.141
-219.611	-200.000	-0.095	-0.447
-218.596	800.000	-0.078	-0.281
-217.582	-141.057	0.037	-0.004
-216.567	287.205	-0.110	0.197
-215.552	-93.285	0.278	0.076
-214.538	-200.000	0.017	-0.202
-213.523	-200.000	-0.007	0.125
-212.509	800.000	0.077	0.311
-211.494	77.866	0.198	0.209
-210.479	63.544	0.140	0.139
-209.465	32.853	-0.264	0.226
-208.450	249.464	0.129	0.216
-207.436	-109.540	0.164	-0.034
-206.421	163.983	-0.032	-0.044
-205.406	-129.437	-0.166	-0.023
-204.392	-153.372	0.299	-0.021
-203.377	244.993	-0.110	0.184
-202.363	-200.000	0.004	0.062
-201.348	-200.000	0.031	-0.267
-200.333	-120.984	-0.153	-0.025
-199.319	-76.128	-0.368	0.129
-198.304	-200.000	-0.016	0.275
-197.290	-60.926	0.350	-0.147
-196.275	800.000	0.081	-0.286
-195.260	-200.000	-0.038	0.246
-194.246	-181.942	-0.290	-0.005
-193.231	-200.000	-0.001	-0.075
-192.217	-200.000	-0.005	-0.267
-191.202	-25.937	0.287	-0.167
-190.187	204.283	0.176	0.270
-189.173	800.000	-0.028	0.117
-188.158	-172.462	-0.077	0.002
-187.144	-52.494	-0.438	0.200
-186.129	-146.687	-0.099	0.008
-185.114	567.908	-0.047	0.114
-184.100	-200.000	0.396	0.000
-183.085	584.910	-0.092	0.224
-182.071	-65.504	-0.274	-0.109
-181.056	-117.525	0.354	0.063
-180.042	-200.000	-0.014	0.246
-179.027	267.254	-0.136	-0.235
-178.012	-116.685	0.140	0.025
-176.998	50.497	0.174	0.163
-175.983	81.419	0.174	0.187
-174.969	-94.985	-0.213	0.057
-173.954	800.000	0.093	-0.279
-172.939	-200.000	-0.029	-0.188
-171.925	-108.783	0.145	-0.031
-170.910	-182.581	-0.085	0.002
-169.896	-47.020	-0.109	0.053
-168.881	-131.621	-0.347	0.045
-167.866	75.472	-0.150	-0.156
-166.852	-200.000	0.003	0.044
-165.837	333.674	0.090	-0.172
-164.823	56.031	0.044	0.042
-163.808	-186.765	0.024	0.000
-162.793	800.000	0.049	-0.197
-161.779	-200.000	-0.084	0.000
-160.764	-200.000	-0.009	-0.055
-159.750	-200.000	0.035	0.170
-158.735	-136.835	-0.292	-0.033
-157.720	25.049	0.129	0.106
-156.706	-39.781	0.088	0.045
-155.691	52.328	-0.113	0.106
-154.677	-15.671	0.238	-0.150
-153.662	-71.628	-0.141	0.052
-152.647	-39.871	-0.207	0.107
-151.633	-76.039	-0.120	-0.042
-150.618	312.951	0.087	0.162
-149.604	-62.456	-0.337	-0.139
-148.589	-132.024	-0.086	0.011
-147.574	-200.000	0.013	-0.091
-146.560	-152.703	0.216	0.015
-145.545	-110.659	0.041	-0.008
-144.531	515.619	-0.124	0.287
-143.516	76.715	-0.163	0.170
-142.502	571.798	-0.058	-0.140
-141.487	146.061	-0.170	0.225
-140.472	36.206	0.087	-0.075
-139.458	800.000	0.031	0.094
-138.443	-200.000	-0.032	0.312
-137.429	800.000	-0.062	-0.193
-136.414	88.456	-0.144	0.158
-135.399	354.628	0.047	0.093
-134.385	44.348	0.136	-0.123
-133.370	485.949	0.141	-0.316
-132.356	57.529	-0.205	-0.198
-131.341	-50.339	0.129	-0.060
-130.326	192.927	-0.186	-0.278
-129.312	67.685	0.204	-0.205
-128.297	-164.280	-0.205	-0.009
-127.283	110.385	0.043	0.051
-126.268	-196.014	-0.137	0.001
-125.253	-200.000	0.019	0.102
-124.239	-83.844	0.260	-0.082
-123.224	-105.752	0.033	0.007
-122.210	16.859	-0.254	-0.199
-121.195	-96.729	0.271	-0.070
-120.180	-200.000	-0.022	-0.239
-119.166	-88.724	-0.266	0.078
-118.151	-124.674	0.200	-0.031
-117.137	20.031	0.151	0.120
-116.122	-27.434	-0.210	0.120
-115.107	-59.985	0.223	0.094
-114.093	295.464	0.100	-0.181
-113.078	-25.462	-0.182	-0.106
-112.064	50.385	-0.220	0.205
-111.049	-164.536	0.249	0.011
-110.034	800.000	-0.070	-0.263
-109.020	-200.000	-0.046	-0.199
-108.005	-200.000	0.014	0.270
-106.991	-50.980	0.212	0.098
-105.976	311.063	0.201	-0.372
-104.962	-200.000	-0.001	-0.092
-103.947	800.000	-0.044	-0.183
-102.932	0.705	-0.270	-0.190
-101.918	16.925	-0.400	0.313
-100.903	169.936	0.189	0.266
-99.889	122.725	0.095	0.117
-98.874	643.779	0.196	0.494
-97.859	213.180	-0.051	0.079
-96.845	70.498	-0.125	0.128
-95.830	174.107	-0.028	0.040
-94.816	482.584	0.026	0.058
-93.801	223.682	0.130	0.206
-92.786	87.436	-0.182	0.199
-91.772	-200.000	-0.018	0.298
-90.757	-28.751	-0.118	0.067
-89.743	-23.310	0.208	-0.123
-88.728	608.167	-0.103	-0.253
-87.713	800.000	-0.022	-0.071
-86.699	-50.399	0.068	-0.031
-85.684	39.936	-0.200	-0.177
-84.670	232.390	0.179	0.289
-83.655	-16.684	-0.087	0.054
-82.640	-7.998	-0.031	-0.021
-81.626	-200.000	0.022	-0.426
-80.611	-158.179	-0.428	0.025
-79.597	752.270	-0.154	0.411
-78.582	61.242	0.208	0.203
-77.567	-56.819	-0.149	0.065
-76.553	-134.991	-0.231	-0.027
-75.538	-192.276	0.213	0.002
-74.524	-67.073	-0.191	0.074
-73.509	-200.000	-0.003	0.181
-72.494	-200.000	0.046	-0.342
-71.480	13.992	0.176	-0.135
-70.465	38.303	-0.140	0.122
-69.451	243.592	-0.145	-0.239
-68.436	800.000	-0.101	-0.335
-67.422	-118.587	-0.292	-0.051
-66.407	78.928	-0.150	0.158
-65.392	28.992	-0.121	0.101
-64.378	800.000	0.023	0.090
-63.363	-52.882	-0.121	0.055
-62.349	-200.000	-0.000	0.030
-61.334	136.663	-0.837	-1.075
-60.319	198.081	0.360	0.541
-59.305	116.393	-0.626	-0.756
-58.290	134.807	0.675	0.863
-57.276	259.058	0.730	1.238
-56.261	-200.000	95.587	598.006
-55.246	674.009	1368.388	3494.519
-54.232	200.338	2540.917	3841.808
-53.217	122.648	2138.471	2632.037
-52.203	44.452	1603.190	1449.105
-51.188	35.724	1341.501	1160.157
-50.173	32.452	1299.943	1104.996
-49.159	55.038	1347.348	1280.649
-48.144	57.433	1363.307	1310.043
-47.130	36.009	1322.414	1145.161
-46.115	32.404	1305.168	1108.981
-45.100	32.171	1300.365	1103.488
-44.086	32.222	1297.146	1101.009
-43.071	32.090	1295.497	1098.795
-42.057	32.110	1293.441	1097.126
-41.042	32.152	1291.279	1095.493
-40.027	32.106	1289.889	1094.001
-39.013	32.156	1288.411	1092.996
-37.998	32.252	1286.223	1091.653
-36.984	32.216	1284.487	1089.929
-35.969	32.141	1282.734	1087.964
-34.954	32.170	1281.207	1086.793
-33.940	32.243	1280.029	1086.173
-32.925	32.259	1278.787	1085.167
-31.911	32.242	1277.319	1083.778
-30.896	32.323	1275.677	1082.811
-29.881	32.307	1274.077	1081.315
-28.867	32.325	1272.719	1080.228
-27.852	32.249	1271.810	1078.972
-26.838	32.295	1270.323	1077.933
-25.823	32.251	1268.889	1076.421
-24.809	32.190	1267.734	1075.052
-23.794	32.381	1265.797	1074.455
-22.779	32.254	1264.920	1072.946
-21.765	32.292	1263.354	1071.788
-20.750	32.232	1262.495	1070.675
-19.736	32.247	1260.537	1069.057
-18.721	32.163	1259.988	1068.076
-17.706	32.195	1258.306	1066.785
-16.692	32.113	1257.707	1065.775
-15.677	32.131	1256.402	1064.726
-14.663	32.125	1254.975	1063.443
-13.648	32.125	1254.268	1062.798
-12.633	32.024	1253.408	1061.458
-11.619	32.154	1252.487	1061.368
-10.604	32.096	1251.995	1060.582
-9.590	32.073	1250.784	1059.385
-8.575	32.049	1249.633	1058.231
-7.560	32.117	1248.895	1057.949
-6.546	32.121	1247.702	1056.919
-5.531	32.085	1247.374	1056.398
-4.517	32.115	1246.306	1055.617
-3.502	32.177	1245.319	1055.090
-2.487	32.073	1244.261	1053.567
-1.473	32.173	1240.087	1050.550
-0.458	30.692	1224.991	1029.534
0.556	26.016	1208.141	992.276
1.571	22.474	1213.375	976.880
2.586	21.492	1228.180	983.197
3.600	20.952	1217.172	971.291
4.615	16.051	1146.489	889.019
5.629	8.169	1073.183	793.045
6.644	4.659	1054.050	761.671
7.659	4.586	1051.209	759.194
8.673	4.559	1050.224	758.282
9.688	4.527	1048.864	757.078
10.702	4.700	1047.007	756.515
11.717	9.129	1052.954	782.361
12.731	16.268	1063.124	824.852
13.746	18.967	1065.291	839.654
14.761	18.166	1063.921	834.592
15.775	17.111	1061.911	827.802
16.790	15.923	1060.490	820.833
17.804	15.276	1058.581	816.135
18.819	14.943	1057.710	813.772
19.834	14.735	1056.649	811.872
20.848	14.390	1056.007	809.630
21.863	14.351	1054.894	808.518
22.877	14.093	1053.789	806.348
23.892	14.091	1053.608	806.130
24.907	14.012	1052.977	805.190
25.921	14.193	1051.433	804.817
26.936	14.254	1050.025	803.961
27.950	14.292	1048.592	802.976
28.965	14.280	1047.509	802.019
29.980	14.400	1045.960	801.339
30.994	14.500	1044.455	800.594
32.009	14.508	1043.615	799.917
33.023	14.404	1042.346	798.378
34.038	14.303	1041.882	797.468
35.053	14.420	1040.661	797.022
36.067	14.331	1039.576	795.692
37.082	14.315	1039.465	795.461
38.096	14.256	1038.835	794.628
39.111	14.461	1037.521	794.532
40.126	14.250	1036.412	792.607
41.140	14.122	1035.137	790.953
42.155	14.088	1033.966	789.825
43.169	13.957	1033.237	788.579
44.184	14.124	1032.074	788.409
45.199	14.116	1030.719	787.270
46.213	14.093	1029.888	786.456
47.228	14.231	1028.893	786.277
48.242	14.259	1028.057	785.701
49.257	14.263	1027.096	784.916
50.271	14.368	1025.814	784.362
51.286	14.371	1025.236	783.865
52.301	14.280	1024.383	782.718
53.315	14.249	1023.460	781.794
54.330	14.098	1022.199	780.057
55.344	14.173	1021.481	779.790
56.359	14.245	1020.291	779.151
57.374	13.983	1019.860	777.527
58.388	14.046	1018.755	776.907
59.403	14.035	1017.767	776.035
60.417	14.060	1017.355	775.768
61.432	14.050	1016.378	774.909
62.447	13.988	1015.951	774.227
63.461	13.944	1014.951	773.189
64.476	13.996	1013.721	772.427
65.490	13.990	1012.837	771.657
66.505	13.861	1012.896	771.032
67.520	14.052	1012.050	771.206
68.534	13.985	1011.301	770.260
69.549	14.174	1010.231	770.249
70.563	13.989	1009.535	768.794
71.578	14.017	1008.504	768.073
72.593	13.910	1008.113	767.213
73.607	13.858	1007.631	766.539
74.622	13.702	1007.173	765.403
75.636	14.088	1005.744	766.026
76.651	13.934	1005.619	765.151
77.666	13.968	1004.701	764.544
78.680	13.965	1003.898	763.851
79.695	13.908	1003.525	763.236
80.709	13.945	1003.360	763.214
81.724	14.025	1002.511	762.870
82.739	14.057	1001.793	762.403
83.753	14.282	1000.680	762.518
84.768	14.413	1000.253	762.724
85.782	14.429	999.277	761.987
86.797	14.409	998.449	761.195
87.812	14.314	997.054	759.630
88.826	14.337	996.069	758.919
89.841	14.334	995.366	758.304
90.855	14.392	994.594	757.911
91.870	14.392	993.961	757.361
92.884	14.443	992.778	756.624
93.899	14.412	992.121	755.915
94.914	14.523	991.223	755.670
95.928	14.378	990.449	754.354
96.943	14.443	989.581	753.920
97.957	14.458	988.657	753.217
98.972	14.348	988.225	752.327
99.987	14.412	987.119	751.705
101.001	14.384	986.055	750.704
102.016	14.406	985.196	750.080
103.030	14.547	984.602	750.199
104.045	14.502	983.791	749.312
105.060	14.302	983.255	747.938
106.074	14.212	981.810	746.371
107.089	14.312	980.827	746.003
108.103	14.068	980.463	744.567
109.118	14.152	978.920	743.704
110.133	14.147	978.081	742.983
111.147	14.106	977.207	742.067
112.162	14.078	976.660	741.463
113.176	14.238	975.665	741.353
114.191	14.273	974.952	740.903
115.206	14.170	974.279	739.870
116.220	14.020	973.905	738.850
117.235	14.129	973.058	738.627
118.249	14.120	971.745	737.527
119.264	14.078	971.430	737.035
120.279	14.093	970.396	736.250
121.293	14.089	969.617	735.578
122.308	14.120	968.515	734.815
123.322	13.967	967.539	733.332
124.337	14.056	966.741	733.056
125.352	13.926	966.008	731.864
126.366	13.949	964.658	730.877
127.381	14.102	963.594	730.675
128.395	14.172	962.789	730.310
129.410	14.127	962.152	729.564
130.424	14.148	961.116	728.807
131.439	14.195	960.590	728.547
132.454	14.253	959.818	728.154
133.468	14.292	959.014	727.646
134.483	14.320	957.889	726.852
135.497	14.311	957.064	726.123
136.512	14.256	956.104	725.091
137.527	14.234	955.761	724.673
138.541	14.261	955.341	724.405
139.556	14.277	953.850	723.281
140.570	14.428	953.430	723.556
141.585	14.447	952.709	723.026
142.600	14.434	952.034	722.391
143.614	14.496	950.875	721.716
144.629	14.577	950.418	721.659
145.643	14.527	949.313	720.539
146.658	14.391	948.502	719.270
147.673	14.308	947.650	718.204
148.687	14.290	946.670	717.319
149.702	14.279	945.755	716.517
150.716	14.102	945.217	715.284
151.731	14.299	944.163	715.269
152.746	14.289	943.757	714.854
153.760	14.254	943.286	714.285
154.775	14.355	942.671	714.189
155.789	14.408	942.261	714.044
156.804	14.437	941.370	713.427
157.819	14.515	940.513	713.051
158.833	14.602	940.120	713.060
159.848	14.696	939.286	712.767
160.862	14.548	938.030	711.119
161.877	14.499	937.071	710.120
162.892	14.275	936.428	708.618
163.906	14.423	935.188	708.245
164.921	14.432	934.558	707.745
165.935	14.496	933.758	707.347
166.950	14.465	933.201	706.732
167.964	14.369	932.268	705.554
168.979	14.515	930.829	705.019
169.994	14.520	930.126	704.445
171.008	14.546	929.906	704.330
172.023	14.626	929.243	704.099
173.037	14.525	928.728	703.222
174.052	14.485	927.808	702.294
175.067	14.515	927.014	701.758
176.081	14.420	926.888	701.199
177.096	14.503	925.602	700.513
178.110	14.519	925.242	700.248
179.125	14.575	924.664	699.981
180.140	14.603	924.019	699.548
181.154	14.679	923.444	699.372
182.169	14.638	923.584	699.243
183.183	14.790	922.601	699.076
184.198	14.770	921.869	698.374
185.213	14.667	921.360	697.495
186.227	14.868	920.320	697.485
187.242	14.903	919.667	697.076
188.256	14.950	919.238	696.884
189.271	14.871	918.352	695.822
190.286	14.671	917.452	694.249
191.300	14.634	916.442	693.266
192.315	14.565	915.546	692.242
193.329	14.478	915.685	691.926
194.344	14.609	915.005	691.892
195.359	14.574	914.449	691.264
196.373	14.756	914.048	691.655
197.388	14.944	913.884	692.250
198.402	15.057	913.002	691.988
199.417	15.073	912.481	691.596
200.432	15.122	912.180	691.507
201.446	15.097	911.518	690.843
202.461	15.158	911.179	690.775
203.475	15.023	910.493	689.637
204.490	14.983	909.541	688.690
205.504	14.908	908.987	687.905
206.519	14.981	908.018	687.410
207.534	14.970	907.649	687.025
208.548	14.914	906.844	686.122
209.563	14.975	905.979	685.660
210.577	14.945	905.564	685.162
211.592	15.117	904.528	685.022
212.607	15.093	903.907	684.391
213.621	15.037	903.420	683.734
214.636	15.104	902.594	683.321
215.650	15.159	902.030	683.058
216.665	15.193	901.422	682.677
217.680	15.370	900.527	682.657
218.694	15.325	899.622	681.728
219.709	15.272	899.268	681.186
220.723	15.221	898.960	680.683
221.738	15.255	898.011	680.043
222.753	15.173	897.220	679.051
223.767	15.431	896.857	679.760
224.782	15.381	896.334	679.104
225.796	15.346	896.105	678.729
226.811	15.400	894.812	677.905
227.826	15.164	894.615	676.742
228.840	15.287	893.717	676.501
229.855	15.239	892.886	675.620
230.869	15.191	892.190	674.839
231.884	15.218	891.552	674.404
232.899	15.277	890.847	674.049
233.913	15.117	890.352	672.973
234.928	15.150	889.617	672.490
235.942	15.250	889.051	672.403
236.957	15.301	888.351	672.018
237.972	15.354	887.843	671.787
238.986	15.304	887.019	670.903
240.001	15.196	886.677	670.157
241.015	15.370	885.805	670.133
242.030	15.308	885.362	669.488
243.045	15.341	884.856	669.181
244.059	15.387	884.022	668.671
245.074	15.387	883.708	668.378
246.088	15.408	882.819	667.728
247.103	15.611	882.290	668.076
248.117	15.625	881.546	667.509
249.132	15.666	881.149	667.312
250.147	15.783	880.300	667.075
251.161	15.873	879.708	666.922
252.176	15.966	879.284	666.909
253.190	15.791	878.733	665.743
254.205	16.073	878.091	666.310
255.220	16.023	876.996	665.225
256.234	15.893	876.576	664.332
257.249	15.972	875.812	664.006
258.263	15.850	875.259	663.049
259.278	15.990	874.461	662.936
260.293	15.869	874.269	662.257
261.307	16.091	873.205	662.262
262.322	16.114	872.859	662.033
263.336	16.150	872.025	661.482
264.351	16.167	871.177	660.847
265.366	16.094	871.257	660.565
266.380	16.019	870.329	659.511
267.395	16.102	869.751	659.335
268.409	16.041	868.815	658.332
269.424	16.050	868.323	657.935
270.439	16.028	867.654	657.285
271.453	16.135	866.694	656.915
272.468	15.999	866.310	656.038
273.482	16.023	865.760	655.656
274.497	16.003	865.229	655.119
275.512	16.097	864.793	655.094
276.526	15.995	864.346	654.304
277.541	16.191	863.471	654.342
278.555	16.147	863.154	653.872
279.570	16.410	862.135	654.060
280.585	16.253	861.424	652.857
281.599	16.267	860.663	652.278
282.614	16.142	859.992	651.226
283.628	16.168	859.636	651.001
284.643	16.119	858.999	650.272
285.657	16.163	858.302	649.856
286.672	16.226	857.581	649.495
287.687	16.291	856.965	649.221
288.701	16.249	856.762	648.848
289.716	16.346	856.009	648.594
290.730	16.378	855.636	648.375
291.745	16.317	854.950	647.564
292.760	16.505	854.325	647.755
293.774	16.326	853.963	646.738
294.789	16.383	853.415	646.483
295.803	16.412	852.480	645.828
296.818	16.381	851.519	644.927
297.833	16.250	851.375	644.258
298.847	16.434	850.477	644.223
299.862	16.587	850.115	644.475
300.876	16.539	849.559	643.815
301.891	16.535	848.720	643.108
302.906	16.629	848.254	643.052
303.920	16.712	847.704	642.896
304.935	16.745	847.210	642.590
305.949	16.678	846.510	641.748
306.964	16.598	846.255	641.194
307.979	16.586	845.535	640.548
308.993	16.856	845.018	641.120
310.008	16.764	844.051	639.982
311.022	16.813	843.601	639.767
312.037	16.700	843.141	638.935
313.052	16.556	842.402	637.777
314.066	16.616	841.810	637.500
315.081	16.573	841.231	636.841
316.095	16.504	840.866	636.251
317.110	16.478	840.528	635.839
318.125	16.590	839.961	635.776
319.139	16.570	839.376	635.202
320.154	16.542	839.042	634.787
321.168	16.642	838.407	634.625
322.183	16.491	838.100	633.770
323.197	16.734	837.247	633.980
324.212	16.662	836.931	633.416
325.227	16.628	836.199	632.678
326.241	16.648	835.563	632.216
327.256	16.706	835.114	632.035
328.270	16.829	834.423	631.918
329.285	16.714	833.835	630.985
330.300	16.631	833.410	630.298
331.314	16.802	832.458	630.159
332.329	16.859	832.198	630.118
333.343	16.946	831.938	630.190
334.358	16.906	831.462	629.624
335.373	16.866	831.212	629.233
336.387	16.952	830.804	629.185
337.402	17.120	830.453	629.489
338.416	17.082	830.493	629.321
339.431	17.017	830.233	628.828
340.446	17.098	829.502	628.518
341.460	17.209	829.066	628.543
342.475	17.209	828.818	628.298
343.489	17.207	828.145	627.728
344.504	17.296	827.698	627.661
345.519	17.356	827.141	627.405
346.533	17.309	826.723	626.857
347.548	17.160	826.276	625.916
348.562	17.273	825.773	625.894
349.577	17.090	825.076	624.637
350.592	17.100	824.071	623.860
351.606	17.193	823.362	623.609
352.621	17.023	823.136	622.757
353.635	17.062	822.850	622.629
354.650	17.044	821.627	621.581
355.665	17.125	821.301	621.577
356.679	17.254	820.942	621.722
357.694	17.202	820.351	621.032
358.708	17.238	819.714	620.626
359.723	17.194	819.399	620.171
360.738	17.236	817.903	619.138
361.752	17.382	817.512	619.317
362.767	17.403	817.312	619.186
363.781	17.497	816.856	619.129
364.796	17.514	816.397	618.787
365.810	17.492	816.344	618.614
366.825	17.651	815.494	618.490
367.840	17.549	815.054	617.733
368.854	17.339	814.815	616.736
369.869	17.627	814.163	617.233
370.883	17.468	813.556	616.139
371.898	17.534	813.742	616.467
372.913	17.639	813.094	616.299
373.927	17.661	812.505	615.879
374.942	17.541	812.114	615.095
375.956	17.644	811.806	615.180
376.971	17.712	811.275	614.968
377.986	17.882	810.809	615.173
379.000	17.924	810.153	614.771
380.015	17.829	809.846	614.142
381.029	17.809	809.306	613.605
382.044	17.885	809.034	613.617
383.059	17.772	808.113	612.459
384.073	17.761	807.718	612.066
385.088	17.704	806.819	611.127
386.102	17.770	806.344	610.950
387.117	17.870	805.779	610.826
388.132	17.721	805.131	609.746
389.146	17.757	804.504	609.347
390.161	17.884	804.220	609.533
391.175	17.825	804.018	609.114
392.190	17.800	803.616	608.666
393.205	17.876	802.729	608.212
394.219	17.746	802.703	607.677
395.234	17.653	802.375	607.040
396.248	17.654	801.747	606.518
397.263	17.668	801.161	606.069
398.278	17.703	800.870	605.919
399.292	17.737	800.356	605.598
400.307	17.724	800.059	605.273
401.321	17.696	799.417	604.636
402.336	17.926	798.587	604.769
403.350	17.880	798.603	604.565
404.365	17.985	798.186	604.566
405.380	18.144	797.365	604.452
406.394	18.198	796.767	604.136
407.409	18.139	796.618	603.760
408.423	18.159	796.497	603.689
409.438	18.241	795.887	603.463
410.453	18.266	795.387	603.118
411.467	18.340	795.078	603.090
412.482	18.279	794.709	602.541
413.496	18.409	794.739	602.968
414.511	18.223	794.492	602.074
415.526	18.387	793.723	602.013
416.540	18.178	793.504	601.060
417.555	18.412	792.703	601.221
418.569	18.383	792.023	600.552
419.584	18.337	791.881	600.228
420.599	18.432	791.338	600.098
421.613	156.302	1370.376	1794.469
422.628	135.238	1454.748	1794.582
