DTS Sentinel unit serial number:	SN413079Multiplexer serial number:	ORYXHardware model number:	OX4-SRSoftware version number:	ORYX F/W v4.00 Oryx Data Collector v3.7.2.0data status	okinstallation	princeton_trtdifferential loss correction	single-endedforward channel	channel 1reverse channel	N/Adate	2019/09/13time	12:10:35forward acquisition time	60.00reverse acquisition time	0.00gamma	496.2192k internal	0.2310k external	0.2310temperature offset calibration	1.0164default loss term (dB/km)	0.3790temperature slope calibration	1.0000multiplexer offset coefficient	1.0000multiplexer slope coefficient	1.0000fibre end	0.00T internal ref (°C)	33.87T ext. ref 1 (°C)	4.61T ext. ref 2 (°C)	31.14length (m)	temperature (°C)	Stokes	anti-Stokes-747.200	-200.000	-0.008	-0.131
-746.185	750.883	-0.051	0.140
-745.171	88.492	0.120	0.135
-744.156	53.689	-0.039	0.038
-743.142	230.920	-0.163	-0.271
-742.127	-53.707	-0.066	0.031
-741.112	3.094	0.135	-0.100
-740.098	-40.073	-0.322	-0.171
-739.083	-53.029	-0.177	-0.083
-738.069	-96.147	-0.220	0.059
-737.054	-67.864	-0.177	0.070
-736.039	-139.189	-0.351	0.038
-735.025	102.278	0.049	0.058
-734.010	-200.000	0.019	-0.128
-732.996	39.333	0.166	-0.151
-731.981	-65.139	-0.192	0.079
-730.966	171.023	0.066	0.097
-729.952	-145.414	0.164	0.015
-728.937	77.687	-0.171	-0.185
-727.923	-132.838	0.139	0.018
-726.908	-130.266	-0.394	0.054
-725.894	-43.939	-0.141	0.072
-724.879	-73.779	0.253	-0.093
-723.864	27.051	-0.104	0.089
-722.850	800.000	-0.038	-0.114
-721.835	-15.977	0.248	0.160
-720.821	-66.190	-0.253	0.102
-719.806	-156.865	-0.093	0.006
-718.791	-143.796	0.323	-0.031
-717.777	1.952	-0.303	-0.222
-716.762	-111.046	-0.291	-0.061
-715.748	-115.214	0.257	0.049
-714.733	-91.058	-0.122	-0.035
-713.718	-122.603	-0.047	-0.008
-712.704	-200.000	-0.007	0.073
-711.689	199.251	0.108	-0.168
-710.675	-200.000	0.012	-0.128
-709.660	113.757	0.106	-0.130
-708.645	-51.388	-0.124	-0.059
-707.631	105.600	0.214	-0.256
-706.616	228.242	-0.097	-0.160
-705.602	800.000	0.041	-0.179
-704.587	482.073	0.084	-0.192
-703.572	-121.193	0.169	0.029
-702.558	-8.830	0.224	-0.152
-701.543	-75.250	-0.136	0.049
-700.529	52.377	0.196	0.190
-699.514	800.000	0.120	0.359
-698.499	-73.940	-0.375	0.138
-697.485	-135.455	-0.196	-0.024
-696.470	-94.817	0.190	-0.052
-695.456	-85.739	0.167	-0.053
-694.441	171.818	-0.056	0.082
-693.426	37.980	-0.030	0.027
-692.412	-61.930	0.094	-0.040
-691.397	154.705	-0.111	0.155
-690.383	-56.374	0.025	0.011
-689.368	45.758	0.120	0.112
-688.354	-200.000	0.025	0.383
-687.339	-200.000	-0.010	-0.114
-686.324	-124.771	0.083	-0.013
-685.310	-200.000	-0.018	-0.138
-684.295	800.000	-0.091	-0.272
-683.281	19.539	0.208	-0.169
-682.266	-200.000	-0.088	0.557
-681.251	72.466	-0.217	-0.229
-680.237	-130.404	0.174	-0.024
-679.222	-200.000	0.037	0.270
-678.208	-176.092	0.196	0.005
-677.193	33.628	0.143	0.126
-676.178	-200.000	-0.002	-0.182
-675.164	86.397	-0.237	0.264
-674.149	-112.570	0.186	-0.038
-673.135	-200.000	0.003	0.268
-672.120	-2.163	-0.466	-0.331
-671.105	-200.000	0.007	-0.174
-670.091	69.654	0.076	-0.079
-669.076	113.576	0.185	-0.227
-668.062	-44.937	-0.293	-0.148
-667.047	77.526	0.079	0.085
-666.032	-200.000	-0.005	-0.030
-665.018	-200.000	0.012	0.219
-664.003	800.000	-0.129	0.467
-662.989	-49.498	-0.329	-0.159
-661.974	-200.000	-0.046	-0.238
-660.959	-200.000	-0.005	0.044
-659.945	43.822	-0.087	-0.080
-658.930	-200.000	0.013	-0.339
-657.916	393.917	0.082	0.172
-656.901	-200.000	0.052	0.360
-655.886	-7.943	-0.344	-0.235
-654.872	-35.051	-0.182	-0.100
-653.857	345.500	-0.310	-0.617
-652.843	-44.722	-0.247	-0.125
-651.828	-40.270	0.238	-0.125
-650.814	-200.000	0.034	0.168
-649.799	300.230	0.221	0.412
-648.784	-200.000	0.005	-0.182
-647.770	174.018	0.091	-0.133
-646.755	-29.533	0.041	-0.024
-645.741	36.983	0.133	0.119
-644.726	-71.238	0.321	-0.122
-643.711	-200.000	0.013	0.238
-642.697	670.674	0.144	0.377
-641.682	36.544	0.231	0.207
-640.668	-149.074	0.044	-0.004
-639.653	-104.487	-0.489	-0.114
-638.638	15.720	-0.200	-0.159
-637.624	99.096	0.161	-0.188
-636.609	338.733	0.025	0.048
-635.595	-200.000	0.048	0.220
-634.580	-200.000	0.016	-0.169
-633.565	86.870	-0.190	-0.213
-632.551	-142.097	-0.325	0.033
-631.536	-200.000	0.004	0.147
-630.522	132.928	0.149	0.195
-629.507	-76.418	0.208	-0.074
-628.492	144.538	0.105	-0.142
-627.478	-53.429	-0.360	-0.167
-626.463	43.198	0.136	0.126
-625.449	233.002	-0.086	-0.142
-624.434	351.580	0.177	-0.355
-623.419	800.000	-0.047	0.174
-622.405	639.537	0.121	0.311
-621.390	156.334	-0.160	-0.223
-620.376	157.087	-0.144	0.201
-619.361	-39.184	0.042	-0.023
-618.346	269.777	-0.130	0.230
-617.332	-82.193	0.327	-0.108
-616.317	800.000	0.055	0.200
-615.303	161.254	0.141	-0.200
-614.288	228.955	-0.154	-0.253
-613.273	140.614	0.136	-0.182
-612.259	800.000	-0.052	0.164
-611.244	800.000	-0.107	0.352
-610.230	100.902	-0.150	-0.176
-609.215	482.837	0.078	0.180
-608.201	86.157	-0.290	0.323
-607.186	-200.000	-0.043	0.192
-606.171	311.899	0.123	0.233
-605.157	141.650	0.072	-0.096
-604.142	-98.300	-0.088	-0.023
-603.128	-200.000	0.018	-0.106
-602.113	-184.777	-0.214	0.003
-601.098	-51.981	0.278	0.131
-600.084	-27.428	0.103	-0.061
-599.069	67.797	0.319	-0.329
-598.055	48.667	0.254	-0.240
-597.040	-16.742	0.222	-0.142
-596.025	11.246	0.237	-0.183
-595.011	442.836	0.084	0.186
-593.996	-108.632	-0.335	-0.073
-592.982	94.963	-0.065	-0.075
-591.967	800.000	-0.056	-0.249
-590.952	104.792	-0.082	-0.097
-589.938	204.319	0.063	-0.098
-588.923	-200.000	0.034	-0.163
-587.909	800.000	0.150	0.450
-586.894	265.733	0.123	0.217
-585.879	96.774	-0.071	0.082
-584.865	-25.685	-0.138	-0.082
-583.850	-46.157	-0.382	0.190
-582.836	107.782	-0.241	0.290
-581.821	800.000	0.056	-0.202
-580.806	-27.831	-0.287	0.168
-579.792	-11.197	-0.274	-0.182
-578.777	17.321	0.208	0.166
-577.763	800.000	0.071	0.228
-576.748	401.075	-0.010	-0.021
-575.733	-123.079	0.279	0.045
-574.719	-200.000	0.044	-0.238
-573.704	-144.887	0.133	-0.012
-572.690	90.391	-0.334	-0.377
-571.675	800.000	0.045	-0.150
-570.661	-200.000	-0.026	-0.176
-569.646	-136.847	0.362	-0.042
-568.631	-74.316	-0.105	0.038
-567.617	-200.000	0.022	0.200
-566.602	-44.268	-0.112	0.057
-565.588	-12.469	-0.146	0.096
-564.573	547.380	0.077	0.185
-563.558	800.000	0.030	-0.084
-562.544	146.968	-0.115	-0.156
-561.529	441.081	0.025	-0.055
-560.515	800.000	-0.066	0.290
-559.500	389.453	-0.039	-0.081
-558.485	118.402	0.083	0.103
-557.471	-26.241	0.068	-0.040
-556.456	35.127	-0.130	0.115
-555.442	548.789	-0.129	0.312
-554.427	-82.697	0.067	-0.022
-553.412	15.766	0.150	-0.119
-552.398	-52.684	-0.155	-0.072
-551.383	22.454	0.197	0.163
-550.369	-31.433	0.180	0.102
-549.354	170.840	0.032	-0.046
-548.339	56.570	0.206	0.202
-547.325	112.401	-0.092	-0.112
-546.310	-64.573	0.218	-0.089
-545.296	-26.025	0.018	-0.011
-544.281	-46.239	-0.131	0.065
-543.266	-65.372	0.089	0.036
-542.252	437.486	-0.025	0.054
-541.237	-67.605	-0.210	-0.083
-540.223	800.000	-0.131	-0.421
-539.208	-65.292	0.159	0.065
-538.193	-86.073	-0.119	0.037
-537.179	5.336	-0.363	-0.269
-536.164	786.689	-0.063	-0.174
-535.150	211.320	0.048	-0.077
-534.135	-24.893	0.037	-0.022
-533.121	180.035	-0.097	-0.143
-532.106	800.000	-0.117	-0.425
-531.091	249.257	0.099	0.169
-530.077	-200.000	0.089	0.434
-529.062	8.021	-0.056	0.042
-528.048	469.758	-0.064	-0.146
-527.033	59.670	-0.148	0.147
-526.018	514.558	0.069	-0.161
-525.004	-42.085	-0.293	-0.151
-523.989	-200.000	0.066	0.315
-522.975	800.000	-0.088	0.244
-521.960	-113.668	0.183	0.036
-520.945	2.197	-0.236	-0.172
-519.931	-130.273	0.170	0.023
-518.916	-11.413	-0.038	-0.025
-517.902	95.988	-0.153	0.175
-516.887	-200.000	-0.001	0.384
-515.872	-24.002	-0.092	0.055
-514.858	-142.433	0.276	-0.027
-513.843	800.000	0.039	0.124
-512.829	-200.000	-0.028	-0.285
-511.814	275.305	-0.063	0.112
-510.799	-92.641	-0.148	-0.042
-509.785	-26.352	-0.041	0.024
-508.770	-70.707	-0.197	0.075
-507.756	-150.203	-0.323	-0.025
-506.741	-129.401	0.171	0.024
-505.726	335.218	0.044	0.086
-504.712	164.072	-0.107	0.152
-503.697	155.797	0.146	-0.202
-502.683	-148.593	-0.082	0.007
-501.668	-85.093	-0.135	0.043
-500.653	-127.427	-0.398	-0.058
-499.639	104.502	0.043	-0.051
-498.624	242.146	-0.193	-0.325
-497.610	-112.189	0.102	-0.021
-496.595	-29.742	-0.145	0.083
-495.581	99.833	0.256	-0.298
-494.566	800.000	-0.075	-0.236
-493.551	-157.455	0.203	-0.012
-492.537	-16.975	-0.078	0.050
-491.522	76.148	-0.150	0.160
-490.508	-121.348	0.026	0.004
-489.493	202.571	0.089	-0.138
-488.478	691.144	0.017	0.045
-487.464	-61.551	-0.167	-0.070
-486.449	356.901	-0.057	0.114
-485.435	-200.000	0.038	0.243
-484.420	-200.000	0.002	-0.183
-483.405	-200.000	0.030	-0.232
-482.391	-79.776	0.181	0.061
-481.376	-34.261	0.194	0.107
-480.362	-98.134	0.140	-0.036
-479.347	22.080	0.280	-0.229
-478.332	800.000	-0.068	0.236
-477.318	195.067	0.275	-0.419
-476.303	-40.858	0.325	-0.169
-475.289	-200.000	-0.026	-0.431
-474.274	-200.000	-0.039	-0.258
-473.259	800.000	-0.102	-0.293
-472.245	-200.000	-0.012	-0.083
-471.230	800.000	0.065	-0.236
-470.216	305.408	0.107	-0.199
-469.201	126.136	0.168	-0.213
-468.186	-122.667	0.179	-0.029
-467.172	197.256	-0.075	-0.115
-466.157	-83.241	0.194	-0.063
-465.143	-34.832	-0.278	0.153
-464.128	445.687	0.068	0.150
-463.113	-111.092	-0.377	0.078
-462.099	800.000	0.032	-0.091
-461.084	800.000	0.025	0.093
-460.070	195.420	0.060	0.091
-459.055	-200.000	0.011	-0.223
-458.040	800.000	0.062	-0.234
-457.026	-200.000	-0.038	-0.298
-456.011	800.000	-0.035	-0.123
-454.997	-200.000	0.102	0.000
-453.982	-111.548	0.225	-0.046
-452.968	139.599	-0.063	0.083
-451.953	-49.252	-0.189	-0.091
-450.938	-163.145	0.231	0.011
-449.924	-200.000	-0.013	-0.269
-448.909	-109.307	-0.217	0.046
-447.895	47.025	-0.263	0.246
-446.880	422.065	-0.096	0.207
-445.865	-9.048	-0.202	0.135
-444.851	151.273	-0.127	0.173
-443.836	800.000	0.043	-0.185
-442.822	-200.000	-0.001	0.024
-441.807	-9.806	-0.167	-0.112
-440.792	-28.963	-0.177	-0.102
-439.778	-125.493	0.185	0.028
-438.763	-76.043	0.117	-0.042
-437.749	377.613	0.114	0.233
-436.734	-5.344	-0.093	0.064
-435.719	68.205	-0.130	-0.133
-434.705	96.934	-0.190	-0.219
-433.690	250.562	-0.149	0.255
-432.676	-17.082	0.103	0.065
-431.661	-45.029	-0.234	0.117
-430.646	-175.538	0.282	-0.008
-429.632	171.755	0.136	0.197
-428.617	77.995	0.350	-0.374
-427.603	-29.738	-0.114	-0.065
-426.588	-67.506	0.137	-0.054
-425.573	-148.376	-0.193	-0.016
-424.559	-200.000	-0.084	-0.406
-423.544	-96.429	0.234	-0.062
-422.530	149.508	-0.143	0.194
-421.515	-50.094	0.373	0.177
-420.500	-200.000	0.009	0.149
-419.486	-106.630	-0.089	0.020
-418.471	5.526	-0.210	-0.155
-417.457	-28.090	0.048	-0.028
-416.442	12.862	-0.284	0.220
-415.428	-168.771	-0.354	0.013
-414.413	-98.570	0.228	-0.058
-413.398	-200.000	-0.016	-0.080
-412.384	-172.383	-0.473	-0.015
-411.369	53.674	0.176	0.170
-410.355	-157.562	0.101	-0.006
-409.340	-109.775	0.131	-0.028
-408.325	58.123	0.098	-0.096
-407.311	-21.673	0.256	-0.156
-406.296	-200.000	0.046	0.301
-405.282	-3.743	-0.342	0.238
-404.267	800.000	0.089	-0.283
-403.252	-200.000	-0.052	-0.623
-402.238	-200.000	0.022	0.255
-401.223	-90.300	0.436	-0.127
-400.209	-198.475	-0.355	-0.002
-399.194	11.287	0.121	0.093
-398.179	-200.000	-0.055	-0.242
-397.165	800.000	-0.124	-0.352
-396.150	-119.666	-0.429	-0.074
-395.136	-66.171	0.303	0.121
-394.121	665.302	0.101	-0.260
-393.106	113.458	-0.112	0.136
-392.092	651.959	-0.072	0.185
-391.077	-104.848	-0.176	-0.041
-390.063	152.743	-0.180	0.247
-389.048	-55.979	-0.063	0.028
-388.033	-200.000	0.068	0.408
-387.019	152.291	-0.237	0.324
-386.004	-123.671	-0.143	0.023
-384.990	45.509	0.167	0.154
-383.975	800.000	0.063	0.245
-382.960	-108.500	0.269	-0.058
-381.946	418.240	0.063	0.134
-380.931	398.458	0.079	-0.165
-379.917	-75.266	-0.410	0.146
-378.902	-9.297	-0.088	0.059
-377.888	-200.000	0.043	-0.227
-376.873	-89.339	-0.245	0.072
-375.858	-101.781	0.195	-0.047
-374.844	22.041	-0.224	0.183
-373.829	-15.309	-0.154	-0.098
-372.815	-200.000	0.038	-0.188
-371.800	-200.000	-0.036	-0.217
-370.785	335.582	0.044	-0.085
-369.771	-159.396	-0.229	0.013
-368.756	13.177	0.100	0.078
-367.742	-200.000	-0.013	0.225
-366.727	-65.070	0.377	0.152
-365.712	601.649	-0.099	-0.246
-364.698	-136.806	0.035	0.004
-363.683	2.963	-0.028	0.021
-362.669	-200.000	-0.019	-0.101
-361.654	327.579	-0.035	-0.067
-360.639	31.075	0.269	-0.231
-359.625	800.000	0.046	-0.157
-358.610	-157.378	-0.121	0.007
-357.596	4.393	-0.138	-0.102
-356.581	-200.000	0.015	-0.136
-355.566	261.165	0.159	0.274
-354.552	-200.000	-0.047	0.399
-353.537	-200.000	0.214	-0.001
-352.523	800.000	0.069	-0.196
-351.508	-78.946	-0.103	0.035
-350.493	161.010	-0.113	-0.157
-349.479	800.000	0.019	-0.063
-348.464	183.774	-0.218	0.323
-347.450	535.905	0.087	0.206
-346.435	-200.000	0.005	-0.066
-345.420	800.000	-0.070	-0.211
-344.406	121.448	0.104	-0.130
-343.391	-59.301	0.094	0.040
-342.377	19.738	-0.153	0.123
-341.362	720.041	-0.005	-0.014
-340.348	-162.821	-0.161	-0.008
-339.333	122.814	0.114	0.143
-338.318	47.940	-0.140	0.131
-337.304	-129.964	-0.124	0.017
-336.289	-34.950	-0.183	0.100
-335.275	226.028	0.210	-0.340
-334.260	281.750	-0.179	-0.321
-333.245	-200.000	-0.004	0.171
-332.231	530.110	-0.074	0.174
-331.216	-200.000	0.037	0.192
-330.202	210.319	-0.060	0.095
-329.187	800.000	0.039	0.170
-328.172	800.000	-0.062	-0.227
-327.158	-118.407	0.228	0.040
-326.143	-147.644	0.140	0.012
-325.129	19.130	-0.102	-0.082
-324.114	-35.500	0.128	0.070
-323.099	15.135	0.333	-0.261
-322.085	78.303	0.187	-0.199
-321.070	-200.000	0.052	0.333
-320.056	-140.541	-0.239	-0.025
-319.041	-1.696	0.226	-0.159
-318.026	-13.259	-0.274	0.178
-317.012	-45.784	-0.136	-0.067
-315.997	-200.000	0.043	0.252
-314.983	-200.000	-0.043	0.254
-313.968	129.031	0.147	0.188
-312.953	34.706	-0.051	0.045
-311.939	150.430	-0.333	-0.452
-310.924	-85.849	-0.145	-0.045
-309.910	800.000	0.074	-0.237
-308.895	-63.333	0.232	0.095
-307.880	-156.145	0.077	-0.005
-306.866	455.461	0.045	-0.099
-305.851	-200.000	-0.025	-0.208
-304.837	-200.000	0.035	-0.173
-303.822	-200.000	-0.040	-0.463
-302.807	-157.961	-0.337	-0.020
-301.793	261.265	-0.119	-0.205
-300.778	-200.000	0.022	0.408
-299.764	101.484	0.318	0.370
-298.749	-57.130	-0.401	-0.176
-297.735	-58.605	0.264	0.114
-296.720	149.598	0.044	0.060
-295.705	-164.960	0.354	0.016
-294.691	-70.916	0.095	-0.036
-293.676	68.516	0.152	-0.156
-292.662	-142.136	-0.208	-0.021
-291.647	10.462	-0.149	-0.113
-290.632	-68.209	0.110	0.043
-289.618	-67.182	-0.249	-0.098
-288.603	-14.565	-0.098	-0.063
-287.589	52.417	-0.138	0.131
-286.574	-169.700	0.270	-0.010
-285.559	77.442	0.473	0.502
-284.545	-123.653	-0.238	-0.038
-283.530	-6.668	-0.227	0.154
-282.516	-200.000	0.034	0.267
-281.501	-113.637	-0.151	-0.029
-280.486	-71.773	-0.302	-0.112
-279.472	-70.916	-0.057	0.021
-278.457	-200.000	-0.038	0.329
-277.443	328.263	0.134	-0.257
-276.428	-64.497	-0.215	-0.087
-275.413	321.615	0.101	-0.192
-274.399	225.165	-0.124	0.201
-273.384	-48.695	0.265	0.127
-272.370	-22.388	0.114	-0.069
-271.355	17.659	-0.139	-0.110
-270.340	76.965	0.151	0.160
-269.326	124.828	0.252	-0.316
-268.311	-84.403	0.330	0.104
-267.297	-62.142	0.219	0.091
-266.282	-155.302	-0.224	-0.014
-265.267	-200.000	-0.001	0.146
-264.253	-13.631	0.193	-0.124
-263.238	178.345	-0.062	-0.091
-262.224	-90.537	0.159	0.046
-261.209	-200.000	0.019	-0.227
-260.195	800.000	0.081	0.279
-259.180	-55.352	-0.194	0.087
-258.165	-200.000	0.002	-0.035
-257.151	-39.698	0.146	-0.076
-256.136	-59.694	-0.312	-0.133
-255.122	11.788	0.070	0.054
-254.107	6.807	0.138	-0.103
-253.092	-56.733	-0.424	0.187
-252.078	81.004	0.237	-0.255
-251.063	-133.096	0.111	0.014
-250.049	3.328	-0.087	-0.063
-249.034	-79.532	-0.090	-0.030
-248.019	-133.193	-0.149	0.019
-247.005	-29.923	0.437	-0.248
-245.990	159.951	0.283	0.392
-244.976	32.101	-0.120	-0.103
-243.961	-144.655	-0.046	-0.004
-242.946	-56.610	0.128	0.057
-241.932	800.000	-0.041	-0.154
-240.917	800.000	0.101	0.303
-239.903	-147.383	-0.127	0.011
-238.888	-98.954	0.112	-0.028
-237.873	-8.683	-0.114	-0.076
-236.859	800.000	0.075	0.320
-235.844	800.000	0.100	-0.335
-234.830	366.641	0.034	0.069
-233.815	800.000	0.018	0.059
-232.800	-52.413	0.088	0.041
-231.786	114.842	-0.214	0.260
-230.771	-123.338	0.216	0.034
-229.757	3.222	0.319	0.231
-228.742	-32.252	-0.086	0.048
-227.727	-200.000	-0.030	0.341
-226.713	-73.238	-0.145	-0.053
-225.698	110.177	-0.170	-0.203
-224.684	-74.692	-0.232	-0.083
-223.669	-200.000	-0.017	0.264
-222.655	-200.000	0.030	-0.288
-221.640	800.000	-0.062	0.179
-220.625	-40.754	-0.284	0.146
-219.611	690.929	-0.093	-0.243
-218.596	800.000	-0.135	-0.408
-217.582	-3.568	0.080	-0.056
-216.567	535.196	-0.123	0.289
-215.552	-200.000	0.104	0.581
-214.538	56.926	-0.119	0.115
-213.523	530.848	0.179	-0.421
-212.509	158.053	-0.105	0.144
-211.494	-200.000	0.007	-0.251
-210.479	800.000	0.036	0.109
-209.465	-136.365	-0.305	-0.035
-208.450	35.531	0.225	-0.196
-207.436	420.534	0.073	0.155
-206.421	-78.319	-0.468	-0.160
-205.406	89.998	-0.091	-0.102
-204.392	598.917	0.073	0.180
-203.377	-111.711	0.244	0.049
-202.363	-200.000	0.005	0.222
-201.348	3.583	-0.307	0.222
-200.333	-27.534	0.218	0.126
-199.319	-200.000	0.000	0.060
-198.304	236.114	-0.079	0.131
-197.290	-40.350	0.177	0.092
-196.275	438.324	-0.188	0.407
-195.260	65.749	0.224	0.226
-194.246	99.869	0.091	-0.105
-193.231	-103.918	0.143	0.033
-192.217	-77.965	0.060	-0.021
-191.202	116.618	0.030	0.036
-190.187	-123.249	0.276	-0.044
-189.173	55.439	0.197	-0.190
-188.158	-32.632	-0.223	0.123
-187.144	281.545	-0.036	-0.065
-186.129	27.614	-0.087	0.072
-185.114	10.965	0.219	0.166
-184.100	20.165	-0.093	0.074
-183.085	110.310	0.162	-0.193
-182.071	-150.907	0.227	-0.017
-181.056	74.557	-0.153	0.160
-180.042	613.314	0.074	0.184
-179.027	-150.478	-0.138	-0.010
-178.012	-200.000	0.014	0.381
-176.998	141.433	-0.105	0.138
-175.983	78.303	-0.141	0.150
-174.969	44.006	0.124	-0.113
-173.954	-35.624	0.145	-0.078
-172.939	336.356	-0.112	0.215
-171.925	401.924	-0.089	0.185
-170.910	40.140	0.150	0.134
-169.896	173.475	-0.007	-0.009
-168.881	800.000	-0.055	0.160
-167.866	-200.000	-0.006	-0.026
-166.852	55.161	-0.132	0.127
-165.837	138.753	0.120	-0.156
-164.823	-25.004	0.235	-0.139
-163.808	800.000	-0.042	-0.115
-162.793	51.858	-0.110	0.104
-161.779	27.664	0.122	-0.102
-160.764	-25.511	0.222	0.130
-159.750	-200.000	-0.007	-0.104
-158.735	11.432	-0.123	-0.093
-157.720	-92.826	0.169	-0.047
-156.706	209.769	0.087	-0.135
-155.691	563.781	-0.090	-0.215
-154.677	800.000	-0.152	-0.484
-153.662	-75.519	0.455	-0.161
-152.647	176.246	0.144	-0.208
-151.633	-200.000	-0.008	0.155
-150.618	800.000	-0.098	-0.274
-149.604	-104.727	0.123	-0.028
-148.589	-52.458	-0.119	0.054
-147.574	521.872	-0.109	-0.255
-146.560	-114.973	-0.319	0.060
-145.545	-178.070	-0.298	0.007
-144.531	577.659	-0.103	-0.250
-143.516	393.263	0.120	0.249
-142.502	178.979	-0.156	0.226
-141.487	-200.000	-0.007	0.254
-140.472	-88.495	-0.094	0.028
-139.458	-200.000	-0.018	0.253
-138.443	-151.216	0.167	0.012
-137.429	-200.000	-0.026	0.211
-136.414	94.135	0.195	-0.219
-135.399	715.014	0.148	0.390
-134.385	800.000	-0.112	-0.407
-133.370	85.795	0.121	-0.132
-132.356	-92.881	-0.204	-0.057
-131.341	-109.082	-0.170	0.036
-130.326	100.742	0.270	0.311
-129.312	-200.000	-0.015	-0.184
-128.297	35.038	0.145	-0.126
-127.283	287.997	0.206	-0.370
-126.268	-136.977	0.097	0.011
-125.253	-137.110	-0.047	0.005
-124.239	220.381	0.096	-0.152
-123.224	-200.000	0.023	-0.235
-122.210	-200.000	0.045	-0.245
-121.195	-45.809	-0.350	0.172
-120.180	800.000	0.057	0.224
-119.166	-69.659	-0.255	0.097
-118.151	-200.000	-0.035	-0.319
-117.137	-200.000	-0.002	0.164
-116.122	430.257	-0.114	0.244
-115.107	330.229	-0.048	-0.091
-114.093	330.439	-0.116	-0.222
-113.078	-143.350	0.175	-0.017
-112.064	-42.825	-0.109	-0.055
-111.049	156.632	0.118	-0.162
-110.034	16.073	-0.050	0.039
-109.020	371.037	0.065	0.130
-108.005	-10.889	-0.051	-0.033
-106.991	-63.906	0.337	-0.137
-105.976	-200.000	0.001	0.219
-104.962	-172.215	0.136	0.004
-103.947	-200.000	-0.002	0.095
-102.932	-135.233	-0.091	-0.011
-101.918	-200.000	-0.007	0.063
-100.903	-139.155	0.114	-0.012
-99.889	-200.000	-0.000	-0.167
-98.874	-63.241	0.244	0.099
-97.859	344.243	0.146	0.283
-96.845	63.620	0.245	0.244
-95.830	-197.067	0.132	-0.001
-94.816	116.127	0.086	-0.105
-93.801	-107.308	-0.259	0.056
-92.786	437.841	0.113	-0.244
-91.772	53.000	-0.008	-0.007
-90.757	-46.597	0.230	0.112
-89.743	-200.000	0.011	0.268
-88.728	-200.000	0.030	0.312
-87.713	-200.000	0.001	0.139
-86.699	-200.000	-0.022	0.126
-85.684	353.762	-0.048	0.095
-84.670	-103.885	0.148	0.034
-83.655	-31.101	-0.117	0.065
-82.640	104.443	0.101	0.117
-81.626	-144.198	-0.451	-0.042
-80.611	-43.389	0.331	-0.165
-79.597	-14.543	-0.238	0.151
-78.582	800.000	-0.028	-0.087
-77.567	-200.000	0.002	-0.225
-76.553	800.000	-0.071	0.280
-75.538	-200.000	0.017	0.349
-74.524	-114.199	-0.410	0.078
-73.509	407.287	0.075	-0.156
-72.494	-0.750	0.087	-0.061
-71.480	381.872	-0.135	-0.275
-70.465	53.787	-0.032	0.030
-69.451	-39.288	0.143	0.074
-68.436	633.982	0.056	0.140
-67.422	423.352	-0.055	0.117
-66.407	-127.903	0.275	0.039
-65.392	703.159	0.114	-0.297
-64.378	800.000	0.042	-0.180
-63.363	-61.445	0.244	-0.102
-62.349	251.175	-0.048	0.080
-61.334	73.040	-0.838	-0.865
-60.319	107.792	0.423	0.498
-59.305	-200.000	-0.034	-0.985
-58.290	800.000	0.298	1.006
-57.276	800.000	0.647	1.858
-56.261	-200.000	97.504	572.751
-55.246	610.781	1415.103	3495.999
-54.232	182.055	2635.346	3836.914
-53.217	119.661	2199.144	2692.668
-52.203	45.696	1642.504	1500.203
-51.188	37.372	1374.480	1204.057
-50.173	34.002	1332.066	1146.572
-49.159	55.727	1381.117	1322.626
-48.144	59.644	1398.268	1362.988
-47.130	37.735	1352.811	1187.098
-46.115	33.961	1335.109	1148.762
-45.100	33.801	1330.246	1143.571
-44.086	33.819	1327.795	1141.524
-43.071	33.754	1325.385	1139.016
-42.057	33.675	1323.256	1136.669
-41.042	33.747	1321.470	1135.519
-40.027	33.719	1320.571	1134.537
-39.013	33.742	1318.454	1132.808
-37.998	33.894	1316.005	1131.568
-36.984	33.824	1314.630	1129.924
-35.969	33.866	1312.907	1128.645
-34.954	33.948	1311.039	1127.484
-33.940	33.917	1309.608	1126.020
-32.925	34.042	1307.841	1125.196
-31.911	33.988	1307.055	1124.159
-30.896	34.010	1305.207	1122.652
-29.881	33.922	1304.599	1121.567
-28.867	33.880	1302.658	1119.604
-27.852	33.940	1301.324	1118.769
-26.838	33.985	1299.431	1117.359
-25.823	34.101	1297.740	1116.545
-24.809	33.942	1296.866	1114.816
-23.794	34.082	1295.294	1114.238
-22.779	33.943	1294.173	1112.419
-21.765	33.948	1292.994	1111.389
-20.750	33.916	1291.590	1109.950
-19.736	33.904	1290.238	1108.674
-18.721	33.752	1289.318	1106.956
-17.706	33.841	1287.968	1106.271
-16.692	33.905	1286.779	1105.577
-15.677	33.897	1285.370	1104.276
-14.663	33.829	1284.596	1103.172
-13.648	33.765	1283.506	1101.822
-12.633	33.868	1282.466	1101.482
-11.619	33.768	1282.025	1100.481
-10.604	33.824	1281.106	1099.970
-9.590	33.718	1279.944	1098.314
-8.575	33.763	1278.917	1097.652
-7.560	33.736	1278.043	1096.705
-6.546	33.781	1277.080	1096.095
-5.531	33.749	1276.310	1095.203
-4.517	33.814	1275.158	1094.548
-3.502	33.805	1274.429	1093.824
-2.487	33.882	1273.262	1093.226
-1.473	34.072	1269.324	1090.888
-0.458	32.783	1254.689	1070.953
0.556	31.300	1235.468	1030.870
1.571	27.190	1240.169	1011.876
2.586	25.855	1254.498	1015.953
3.600	24.183	1241.767	996.215
4.615	18.044	1168.318	904.804
5.629	9.201	1091.057	800.982
6.644	4.937	1070.262	764.760
7.659	4.608	1067.768	761.302
8.673	4.451	1066.191	759.341
9.688	4.465	1064.743	758.308
10.702	5.036	1063.713	760.292
11.717	10.793	1072.223	794.530
12.731	19.188	1084.045	844.561
13.746	22.418	1087.548	863.072
14.761	22.077	1086.493	860.491
15.775	21.257	1084.469	854.798
16.790	20.228	1082.383	848.051
17.804	19.490	1081.261	843.492
18.819	19.268	1079.963	841.324
19.834	19.217	1078.944	840.207
20.848	19.013	1078.480	838.773
21.863	18.905	1077.452	837.373
22.877	18.721	1076.845	835.931
23.892	18.684	1076.458	835.379
24.907	18.613	1075.753	834.413
25.921	18.630	1074.551	833.489
26.936	18.675	1073.168	832.558
27.950	18.676	1072.036	831.613
28.965	18.834	1070.562	831.162
29.980	18.846	1069.303	830.168
30.994	18.937	1067.906	829.446
32.009	19.005	1066.995	828.993
33.023	18.944	1065.922	827.794
34.038	18.838	1064.946	826.454
35.053	18.851	1063.604	825.401
36.067	18.654	1062.937	823.865
37.082	18.730	1062.235	823.613
38.096	18.963	1061.427	824.029
39.111	18.976	1060.618	823.392
40.126	18.764	1059.386	821.348
41.140	18.578	1057.794	819.151
42.155	18.330	1056.482	816.883
43.169	18.295	1055.572	815.938
44.184	18.256	1054.550	814.889
45.199	18.410	1053.900	815.048
46.213	18.495	1052.975	814.667
47.228	18.701	1051.960	814.785
48.242	18.839	1051.031	814.648
49.257	18.700	1049.990	813.110
50.271	18.865	1049.137	813.161
51.286	18.908	1048.346	812.679
52.301	18.850	1047.688	811.822
53.315	18.631	1046.513	809.805
54.330	18.571	1045.011	808.290
55.344	18.625	1044.358	807.968
56.359	18.447	1043.719	806.565
57.374	18.526	1042.388	805.835
58.388	18.394	1041.735	804.639
59.403	18.257	1040.892	803.274
60.417	18.148	1040.374	802.294
61.432	18.267	1039.254	801.916
62.447	18.179	1038.593	800.920
63.461	18.177	1037.357	799.889
64.476	18.210	1036.312	799.165
65.490	18.076	1035.834	798.099
66.505	18.142	1035.744	798.271
67.520	18.263	1034.606	797.885
68.534	18.232	1033.667	796.949
69.549	18.206	1033.382	796.538
70.563	18.089	1032.549	795.276
71.578	18.076	1031.433	794.289
72.593	17.801	1031.232	792.783
73.607	17.936	1029.766	792.213
74.622	18.019	1029.733	792.504
75.636	18.061	1029.062	792.113
76.651	18.068	1028.236	791.440
77.666	18.081	1027.683	791.002
78.680	18.115	1026.682	790.321
79.695	18.056	1026.390	789.753
80.709	18.292	1025.877	790.379
81.724	18.388	1025.245	790.266
82.739	18.464	1024.579	790.031
83.753	18.747	1023.841	790.696
84.768	18.943	1023.363	791.160
85.782	19.051	1022.525	790.938
86.797	19.015	1021.482	789.894
87.812	18.851	1020.438	788.264
88.826	18.873	1019.111	787.270
89.841	18.960	1018.460	787.100
90.855	19.046	1017.443	786.635
91.870	18.989	1017.106	786.046
92.884	19.007	1016.192	785.351
93.899	18.870	1015.657	784.242
94.914	19.145	1014.110	784.231
95.928	18.896	1013.878	782.849
96.943	18.974	1012.277	781.896
97.957	18.907	1011.054	780.581
98.972	18.926	1010.943	780.511
99.987	19.043	1009.742	780.045
101.001	18.956	1008.821	778.872
102.016	18.863	1007.885	777.658
103.030	18.983	1007.131	777.549
104.045	18.877	1006.529	776.540
105.060	18.775	1005.332	775.085
106.074	18.635	1003.928	773.304
107.089	18.279	1003.049	770.955
108.103	18.335	1002.002	770.333
109.118	18.330	1000.738	769.273
110.133	18.346	999.462	768.296
111.147	18.191	998.910	767.107
112.162	18.274	998.531	767.121
113.176	18.432	998.004	767.354
114.191	18.509	997.310	767.099
115.206	18.313	996.552	765.571
116.220	18.474	995.281	765.245
117.235	18.337	994.641	764.077
118.249	18.331	993.804	763.338
119.264	18.246	993.050	762.312
120.279	18.241	992.186	761.561
121.293	18.230	990.949	760.494
122.308	18.119	990.110	759.290
123.322	18.166	988.870	758.478
124.337	18.077	987.914	757.283
125.352	18.163	986.686	756.657
126.366	18.021	985.906	755.365
127.381	18.147	984.818	755.020
128.395	18.069	984.263	754.185
129.410	18.047	983.702	753.589
130.424	18.274	982.416	753.536
131.439	18.503	981.975	754.139
132.454	18.444	981.213	753.229
133.468	18.394	980.606	752.479
134.483	18.483	979.675	752.087
135.497	18.575	978.517	751.534
136.512	18.458	977.803	750.406
137.527	18.517	977.192	750.129
138.541	18.602	976.139	749.626
139.556	18.716	975.697	749.718
140.570	18.725	975.320	749.404
141.585	18.792	974.720	749.168
142.600	19.031	973.511	749.210
143.614	18.982	972.896	748.461
144.629	19.034	972.039	747.961
145.643	18.944	971.090	746.773
146.658	18.694	970.058	744.828
147.673	18.644	968.878	743.640
148.687	18.569	967.953	742.540
149.702	18.465	966.665	741.037
150.716	18.510	966.040	740.685
151.731	18.483	964.909	739.636
152.746	18.572	964.117	739.347
153.760	18.669	963.812	739.466
154.775	18.813	963.450	739.742
155.789	18.808	962.801	739.157
156.804	18.834	962.016	738.601
157.819	18.828	961.111	737.818
158.833	18.932	960.947	738.073
159.848	19.107	960.067	738.081
160.862	18.919	958.818	736.248
161.877	18.831	957.900	735.102
162.892	18.445	956.936	732.650
163.906	18.505	955.792	731.962
164.921	18.444	955.064	731.084
165.935	18.682	953.973	731.196
166.950	18.732	952.742	730.399
167.964	18.732	952.373	730.053
168.979	18.663	950.988	728.635
169.994	18.672	950.414	728.169
171.008	18.771	949.982	728.191
172.023	18.893	949.142	727.999
173.037	18.934	948.443	727.571
174.052	18.841	948.327	727.026
175.067	18.671	946.994	725.221
176.081	18.511	946.482	724.091
177.096	18.538	945.705	723.545
178.110	18.744	945.183	723.948
179.125	18.642	945.018	723.332
180.140	18.833	944.038	723.321
181.154	18.904	943.898	723.449
182.169	19.006	943.690	723.655
183.183	18.961	942.971	722.849
184.198	19.017	941.851	722.163
185.213	19.134	941.177	722.071
186.227	19.032	940.691	721.209
187.242	19.205	940.062	721.384
188.256	19.230	939.798	721.225
189.271	19.174	938.827	720.182
190.286	18.970	937.541	718.278
191.300	18.480	936.743	715.559
192.315	18.315	935.981	714.226
193.329	18.505	935.483	714.574
194.344	18.616	934.832	714.478
195.359	18.797	934.362	714.805
196.373	18.987	933.572	714.927
197.388	19.109	933.299	715.162
198.402	19.276	932.840	715.441
199.417	19.492	932.147	715.741
200.432	19.467	931.688	715.225
201.446	19.533	931.476	715.271
202.461	19.730	930.882	715.567
203.475	19.465	930.247	713.920
204.490	19.397	929.084	712.683
205.504	19.147	928.689	711.282
206.519	19.300	927.583	711.004
207.534	18.982	927.513	709.575
208.548	19.141	926.649	709.510
209.563	19.314	925.876	709.564
210.577	19.380	925.323	709.352
211.592	19.342	925.182	709.022
212.607	19.507	924.144	708.843
213.621	19.554	923.151	708.213
214.636	19.470	922.349	707.189
215.650	19.596	921.715	707.159
216.665	19.651	921.265	706.976
217.680	19.667	920.625	706.486
218.694	19.634	919.862	705.701
219.709	19.599	919.470	705.196
220.723	19.594	918.758	704.569
221.738	19.559	917.697	703.550
222.753	19.496	917.548	703.117
223.767	19.563	917.204	703.062
224.782	19.764	916.213	703.061
225.796	19.766	916.163	702.967
226.811	19.672	915.380	701.923
227.826	19.541	914.068	700.321
228.840	19.553	913.420	699.813
229.855	19.490	912.721	698.959
230.869	19.426	912.019	698.101
231.884	19.341	910.856	696.806
232.899	19.316	910.434	696.321
233.913	19.255	909.548	695.333
234.928	19.135	908.821	694.233
235.942	19.268	908.367	694.360
236.957	19.191	908.035	693.736
237.972	19.199	907.493	693.295
238.986	19.176	906.651	692.496
240.001	19.320	905.950	692.479
241.015	19.369	905.513	692.281
242.030	19.414	904.958	691.975
243.045	19.437	904.619	691.744
244.059	19.570	903.728	691.536
245.074	19.533	903.399	691.074
246.088	19.714	902.469	691.026
247.103	19.890	901.918	691.246
248.117	19.848	902.272	691.288
249.132	20.228	901.666	692.279
250.147	20.398	900.938	692.338
251.161	20.455	900.429	692.112
252.176	20.308	899.601	690.831
253.190	20.507	899.367	691.380
254.205	20.417	898.857	690.570
255.220	20.347	897.870	689.472
256.234	20.505	896.833	689.240
257.249	20.403	896.477	688.504
258.263	20.528	895.376	688.091
259.278	20.409	895.280	687.485
260.293	20.481	894.479	687.095
261.307	20.493	894.096	686.788
262.322	20.538	893.534	686.473
263.336	20.607	892.617	685.978
264.351	20.692	891.970	685.755
265.366	20.707	891.075	685.066
266.380	20.610	890.350	684.068
267.395	20.573	889.696	683.360
268.409	20.418	889.140	682.262
269.424	20.569	888.018	681.934
270.439	20.290	887.306	680.232
271.453	20.125	886.752	679.100
272.468	20.280	886.299	679.300
273.482	20.307	885.892	679.034
274.497	20.263	885.251	678.310
275.512	20.383	884.054	677.801
276.526	20.333	883.866	677.402
277.541	20.391	883.729	677.462
278.555	20.518	883.262	677.541
279.570	20.554	883.028	677.440
280.585	20.674	881.705	676.835
281.599	20.597	880.384	675.463
282.614	20.396	879.965	674.301
283.628	20.457	879.340	673.997
284.643	20.451	878.893	673.570
285.657	20.381	878.572	672.993
286.672	20.549	877.622	672.857
287.687	20.460	877.028	671.997
288.701	20.393	876.615	671.363
289.716	20.615	875.782	671.525
290.730	20.594	875.129	670.884
291.745	20.526	874.781	670.293
292.760	20.613	874.884	670.650
293.774	20.770	873.696	670.283
294.789	20.696	872.859	669.299
295.803	20.564	872.034	668.099
296.818	20.433	871.689	667.273
297.833	20.495	870.850	666.810
298.847	20.551	870.426	666.638
299.862	20.654	870.238	666.832
300.876	20.622	869.579	666.144
301.891	20.849	869.012	666.523
302.906	20.823	868.674	666.103
303.920	21.091	868.107	666.634
304.935	21.264	867.401	666.694
305.949	21.121	866.533	665.422
306.964	20.856	866.159	664.064
307.979	20.991	865.485	664.004
308.993	21.100	864.660	663.729
310.008	21.057	864.450	663.344
311.022	20.883	863.970	662.253
312.037	20.754	863.251	661.155
313.052	20.749	862.260	660.320
314.066	20.523	861.702	658.978
315.081	20.455	861.445	658.463
316.095	20.547	860.779	658.245
317.110	20.594	859.883	657.678
318.125	20.625	859.386	657.357
319.139	20.660	858.911	657.067
320.154	20.713	858.321	656.760
321.168	20.786	857.765	656.553
322.183	20.769	857.469	656.202
323.197	20.776	857.003	655.814
324.212	20.857	856.200	655.448
325.227	20.740	855.778	654.626
326.241	20.672	855.566	654.151
327.256	20.629	854.866	653.393
328.270	20.646	854.248	652.929
329.285	20.612	853.547	652.208
330.300	20.695	852.584	651.725
331.314	20.842	852.332	652.024
332.329	20.962	852.255	652.359
333.343	21.060	851.730	652.266
334.358	20.883	851.389	651.283
335.373	20.958	851.186	651.351
336.387	21.027	850.703	651.182
337.402	21.225	850.445	651.664
338.416	21.275	850.589	651.907
339.431	21.313	849.896	651.458
340.446	21.501	849.518	651.811
341.460	21.388	849.199	651.087
342.475	21.540	848.583	651.125
343.489	21.552	848.264	650.864
344.504	21.681	848.059	651.129
345.519	21.666	847.556	650.632
346.533	21.620	846.608	649.674
347.548	21.298	846.048	647.994
348.562	21.249	845.090	647.022
349.577	21.205	844.508	646.354
350.592	21.036	843.639	645.007
351.606	20.965	843.161	644.323
352.621	21.084	842.619	644.289
353.635	21.144	842.147	644.094
354.650	21.123	841.371	643.368
355.665	21.295	840.785	643.495
356.679	21.561	839.743	643.620
357.694	21.547	839.175	643.074
358.708	21.376	839.060	642.303
359.723	21.381	838.340	641.713
360.738	21.409	837.795	641.342
361.752	21.463	837.145	640.986
362.767	21.576	836.863	641.125
363.781	21.648	836.479	641.036
364.796	21.855	836.034	641.397
365.810	21.916	835.968	641.513
366.825	21.825	835.865	641.044
367.840	21.952	834.803	640.637
368.854	21.826	833.977	639.486
369.869	21.649	833.733	638.599
370.883	21.826	833.181	638.765
371.898	21.926	832.882	638.844
372.913	21.947	832.241	638.371
373.927	21.766	831.972	637.448
374.942	21.920	831.565	637.641
375.956	22.027	831.155	637.658
376.971	22.021	831.145	637.574
377.986	22.208	830.377	637.606
379.000	22.079	830.111	636.878
380.015	22.167	828.935	636.235
381.029	22.049	828.567	635.471
382.044	22.197	827.766	635.336
383.059	22.123	827.467	634.781
384.073	22.108	826.516	633.942
385.088	21.815	826.377	632.722
386.102	21.665	825.472	631.435
387.117	21.790	824.909	631.396
388.132	21.838	824.133	630.919
389.146	21.838	823.972	630.740
390.161	22.063	823.690	631.277
391.175	22.154	822.879	630.927
392.190	21.921	822.474	629.724
393.205	21.810	822.039	628.937
394.219	21.820	821.360	628.398
395.234	21.806	821.223	628.188
396.248	21.675	820.347	626.995
397.263	21.493	819.786	625.857
398.278	21.569	820.009	626.246
399.292	21.435	819.420	625.260
400.307	21.525	818.758	625.021
401.321	21.705	818.213	625.194
402.336	21.727	818.244	625.238
403.350	21.796	817.719	625.029
404.365	22.060	817.336	625.623
405.380	22.207	816.400	625.374
406.394	22.294	816.294	625.545
407.409	22.425	815.747	625.537
408.423	22.358	815.746	625.244
409.438	22.459	815.347	625.240
410.453	22.576	814.945	625.292
411.467	22.480	814.480	624.539
412.482	22.581	814.050	624.513
413.496	22.735	813.458	624.549
414.511	22.588	813.371	623.905
415.526	22.507	812.782	623.112
416.540	22.463	812.164	622.428
417.555	22.622	811.727	622.598
418.569	22.598	811.047	621.938
419.584	22.625	810.820	621.802
420.599	22.658	810.421	621.559
421.613	160.233	1370.033	1789.503
422.628	139.449	1451.592	1789.610
