DTS Sentinel unit serial number:	SN413079Multiplexer serial number:	ORYXHardware model number:	OX4-SRSoftware version number:	ORYX F/W v4.00 Oryx Data Collector v3.7.2.0data status	okinstallation	princeton_trtdifferential loss correction	single-endedforward channel	channel 1reverse channel	N/Adate	2019/09/18time	12:06:35forward acquisition time	60.00reverse acquisition time	0.00gamma	496.2192k internal	0.2323k external	0.2323temperature offset calibration	0.9980default loss term (dB/km)	0.3790temperature slope calibration	1.0000multiplexer offset coefficient	1.0000multiplexer slope coefficient	1.0000fibre end	0.00T internal ref (°C)	31.62T ext. ref 1 (°C)	0.50T ext. ref 2 (°C)	27.07length (m)	temperature (°C)	Stokes	anti-Stokes-747.200	-200.000	0.019	0.191
-746.185	-200.000	0.085	0.512
-745.171	-123.715	-0.181	0.029
-744.156	-3.740	-0.243	0.171
-743.142	-200.000	-0.007	-0.087
-742.127	-23.097	-0.284	0.172
-741.112	57.055	-0.258	0.254
-740.098	233.919	0.107	0.178
-739.083	-200.000	0.052	0.306
-738.069	-104.399	-0.319	0.075
-737.054	211.199	0.165	-0.261
-736.039	-200.000	0.020	0.149
-735.025	-59.824	0.284	0.123
-734.010	800.000	-0.025	-0.092
-732.996	-200.000	0.072	-0.522
-731.981	-182.725	-0.361	-0.007
-730.966	-141.694	-0.512	-0.052
-729.952	-73.958	-0.236	0.086
-728.937	-200.000	-0.005	-0.258
-727.923	116.067	0.101	0.125
-726.908	23.533	0.139	-0.116
-725.894	51.390	-0.072	0.069
-724.879	-48.164	-0.134	0.065
-723.864	638.650	0.068	-0.174
-722.850	-130.581	-0.116	-0.016
-721.835	71.546	-0.099	0.103
-720.821	-57.897	-0.216	0.095
-719.806	-164.327	0.185	0.009
-718.791	8.585	0.203	-0.154
-717.777	-138.897	-0.288	-0.032
-716.762	-200.000	0.033	0.192
-715.748	-141.424	0.213	-0.022
-714.733	-153.623	0.030	-0.002
-713.718	800.000	-0.073	-0.228
-712.704	41.631	0.113	0.103
-711.689	-152.313	0.272	-0.020
-710.675	-200.000	-0.008	-0.075
-709.660	800.000	-0.035	-0.123
-708.645	-146.909	0.437	-0.038
-707.631	-79.668	-0.206	-0.070
-706.616	747.786	-0.080	0.216
-705.602	-200.000	0.061	0.379
-704.587	154.021	0.024	0.034
-703.572	-137.680	-0.387	-0.044
-702.558	152.941	0.094	-0.130
-701.543	263.258	-0.093	-0.163
-700.529	121.459	-0.079	-0.099
-699.514	51.097	0.084	-0.081
-698.499	-38.886	-0.378	-0.201
-697.485	410.861	0.027	-0.057
-696.470	800.000	0.120	0.340
-695.456	-112.448	-0.628	0.126
-694.441	800.000	0.049	-0.146
-693.426	226.992	0.119	-0.195
-692.412	-47.418	-0.303	0.148
-691.397	258.458	-0.043	0.074
-690.383	-150.537	-0.198	-0.015
-689.368	-200.000	0.006	0.271
-688.354	800.000	0.097	0.372
-687.339	670.834	0.070	0.183
-686.324	631.052	0.087	0.222
-685.310	222.313	-0.100	0.162
-684.295	-6.104	0.360	0.248
-683.281	800.000	-0.040	0.131
-682.266	-200.000	-0.010	0.343
-681.251	-93.558	-0.257	0.071
-680.237	660.755	-0.093	0.243
-679.222	-200.000	-0.054	0.380
-678.208	378.836	-0.069	-0.142
-677.193	-12.193	-0.386	0.255
-676.178	800.000	-0.077	0.241
-675.164	800.000	-0.093	-0.326
-674.149	-64.436	0.390	-0.159
-673.135	257.489	0.118	0.204
-672.120	-119.586	-0.262	-0.046
-671.105	91.539	-0.088	0.099
-670.091	800.000	-0.046	-0.193
-669.076	-78.435	0.081	0.028
-668.062	540.351	0.007	0.017
-667.047	183.808	0.148	-0.220
-666.032	-98.726	-0.125	-0.032
-665.018	-67.940	0.240	-0.094
-664.003	275.930	0.118	-0.211
-662.989	-126.478	0.217	-0.032
-661.974	104.816	-0.032	-0.038
-660.959	-35.893	-0.337	0.184
-659.945	-94.762	-0.231	-0.063
-658.930	583.709	-0.035	-0.086
-657.916	800.000	-0.053	-0.157
-656.901	-149.049	0.175	-0.014
-655.886	800.000	-0.067	-0.225
-654.872	-45.430	-0.192	-0.096
-653.857	685.249	-0.005	0.013
-652.843	-144.767	-0.152	0.014
-651.828	-116.888	0.381	0.070
-650.814	-200.000	-0.017	0.387
-649.799	218.601	-0.095	-0.153
-648.784	594.470	0.088	0.219
-647.770	27.561	0.074	0.063
-646.755	800.000	-0.105	-0.385
-645.741	-200.000	0.009	0.050
-644.726	-157.399	-0.153	0.009
-643.711	-104.813	-0.127	0.029
-642.697	69.539	-0.247	-0.256
-641.682	-62.463	-0.037	-0.015
-640.668	222.995	-0.075	0.121
-639.653	-65.472	-0.264	-0.107
-638.638	365.221	0.092	0.186
-637.624	800.000	0.013	-0.053
-636.609	122.310	-0.101	0.127
-635.595	413.550	0.076	-0.163
-634.580	800.000	0.036	0.150
-633.565	800.000	-0.076	0.252
-632.551	-34.533	-0.102	-0.056
-631.536	800.000	0.054	-0.157
-630.522	374.751	-0.099	0.203
-629.507	336.390	0.067	0.131
-628.492	-200.000	0.009	-0.169
-627.478	-49.236	0.256	-0.123
-626.463	-200.000	-0.039	-0.351
-625.449	-122.261	0.381	0.063
-624.434	-199.074	0.041	0.000
-623.419	-200.000	-0.001	0.179
-622.405	-200.000	-0.013	0.173
-621.390	29.503	-0.112	0.096
-620.376	-89.577	0.161	0.048
-619.361	-150.474	-0.378	-0.029
-618.346	-95.754	0.216	0.058
-617.332	-3.356	-0.120	0.084
-616.317	-182.968	-0.203	0.004
-615.303	-49.889	-0.414	-0.197
-614.288	800.000	0.070	-0.201
-613.273	-72.494	0.281	0.104
-612.259	-5.756	0.197	-0.135
-611.244	-200.000	-0.009	-0.086
-610.230	-25.837	-0.098	-0.058
-609.215	-40.335	-0.111	-0.058
-608.201	17.773	-0.078	0.062
-607.186	-109.370	-0.324	0.069
-606.171	668.032	-0.072	0.187
-605.157	800.000	-0.035	-0.106
-604.142	212.155	-0.114	0.180
-603.128	-158.001	0.030	-0.002
-602.113	33.640	0.120	0.105
-601.098	0.493	0.088	0.063
-600.084	44.459	-0.054	-0.050
-599.069	-200.000	0.030	0.148
-598.055	-67.151	-0.293	-0.116
-597.040	-64.884	-0.106	0.043
-596.025	-200.000	-0.008	0.112
-595.011	-200.000	-0.012	0.341
-593.996	411.149	0.176	-0.376
-592.982	222.415	-0.077	-0.125
-591.967	105.456	0.119	0.141
-590.952	-33.473	0.118	0.066
-589.938	-9.984	-0.132	-0.088
-588.923	-62.766	-0.072	-0.030
-587.909	111.037	0.181	-0.218
-586.894	-200.000	0.012	-0.225
-585.879	-175.903	0.147	-0.004
-584.865	148.899	0.082	0.111
-583.850	264.564	-0.133	-0.233
-582.836	188.972	-0.355	0.533
-581.821	171.330	-0.251	0.361
-580.806	-60.297	0.064	-0.027
-579.792	-200.000	0.037	0.504
-578.777	-182.689	-0.074	-0.001
-577.763	-83.668	-0.255	-0.082
-576.748	-200.000	0.089	-0.441
-575.733	81.573	-0.123	0.134
-574.719	-80.494	0.250	-0.083
-573.704	-200.000	-0.013	-0.204
-572.690	-200.000	0.044	0.324
-571.675	604.467	0.018	-0.046
-570.661	-125.782	-0.183	-0.028
-569.646	749.914	0.069	-0.187
-568.631	614.765	-0.085	0.215
-567.617	-32.382	-0.362	0.202
-566.602	800.000	0.068	-0.283
-565.588	29.158	-0.141	0.120
-564.573	134.720	-0.264	-0.343
-563.558	-200.000	0.005	0.271
-562.544	-144.499	0.468	0.043
-561.529	-200.000	0.029	-0.236
-560.515	128.670	0.081	-0.104
-559.500	-200.000	0.014	-0.111
-558.485	406.125	-0.163	0.345
-557.471	225.749	-0.083	-0.134
-556.456	-200.000	-0.006	0.270
-555.442	-59.144	0.072	-0.031
-554.427	-120.410	0.074	-0.013
-553.412	-85.685	-0.252	-0.078
-552.398	-200.000	0.037	0.191
-551.383	182.697	0.056	0.083
-550.369	-54.089	-0.171	-0.078
-549.354	23.043	-0.142	0.117
-548.339	270.087	-0.112	-0.197
-547.325	323.243	0.170	-0.326
-546.310	-200.000	0.020	-0.114
-545.296	800.000	0.094	0.279
-544.281	800.000	0.149	-0.470
-543.266	29.168	0.101	-0.086
-542.252	-137.769	0.340	-0.038
-541.237	345.349	0.020	-0.038
-540.223	-111.101	0.283	-0.058
-539.208	-175.748	-0.301	-0.008
-538.193	-121.255	-0.051	0.009
-537.179	70.907	0.068	-0.070
-536.164	81.294	0.095	0.102
-535.150	114.711	-0.166	-0.203
-534.135	-123.367	0.242	0.039
-533.121	12.077	-0.148	0.114
-532.106	-64.713	-0.203	-0.082
-531.091	800.000	0.091	0.368
-530.077	-200.000	-0.014	-0.135
-529.062	62.781	0.180	-0.181
-528.048	203.858	-0.072	0.111
-527.033	-58.480	0.210	-0.091
-526.018	-51.148	0.304	0.143
-525.004	-132.279	-0.088	0.011
-523.989	-200.000	-0.102	-0.481
-522.975	-20.420	0.548	0.338
-521.960	90.797	0.026	0.029
-520.945	-200.000	0.052	0.246
-519.931	72.129	0.168	-0.175
-518.916	-41.585	-0.439	0.226
-517.902	-71.458	-0.061	0.023
-516.887	800.000	-0.012	0.041
-515.872	-123.595	0.307	-0.049
-514.858	-54.466	0.095	-0.043
-513.843	103.341	-0.131	-0.154
-512.829	-74.595	0.278	-0.100
-511.814	800.000	0.045	-0.195
-510.799	-155.474	0.178	-0.012
-509.785	34.450	-0.092	-0.081
-508.770	-7.976	0.107	-0.072
-507.756	-200.000	-0.076	-0.389
-506.741	88.833	0.121	-0.135
-505.726	167.236	-0.092	0.131
-504.712	-89.033	-0.033	0.010
-503.697	417.593	0.102	-0.218
-502.683	-10.909	-0.108	-0.071
-501.668	-41.361	-0.289	-0.149
-500.653	800.000	-0.022	-0.077
-499.639	-151.273	-0.343	0.026
-498.624	-8.597	-0.032	0.021
-497.610	-200.000	0.033	0.167
-496.595	800.000	0.012	0.046
-495.581	-23.893	-0.225	0.135
-494.566	-200.000	-0.016	0.131
-493.551	-56.950	-0.304	0.134
-492.537	66.825	-0.286	-0.291
-491.522	-45.564	0.208	0.103
-490.508	-139.214	-0.694	-0.075
-489.493	-71.827	0.157	-0.058
-488.478	-63.989	-0.098	0.040
-487.464	45.984	-0.202	-0.187
-486.449	41.989	0.174	-0.158
-485.435	-26.853	0.164	-0.096
-484.420	12.599	0.224	-0.173
-483.405	22.724	-0.087	-0.071
-482.391	19.574	-0.153	0.123
-481.376	800.000	-0.019	-0.065
-480.362	-200.000	-0.024	-0.186
-479.347	-200.000	-0.058	-0.263
-478.332	-67.233	-0.171	-0.067
-477.318	91.756	-0.093	0.105
-476.303	162.137	0.121	0.169
-475.289	578.138	-0.065	0.160
-474.274	-200.000	-0.086	-0.396
-473.259	-200.000	0.053	0.248
-472.245	31.484	0.123	0.106
-471.230	800.000	-0.152	-0.436
-470.216	-73.766	-0.157	-0.057
-469.201	-121.202	0.145	-0.024
-468.186	-200.000	0.009	-0.236
-467.172	126.445	0.202	-0.255
-466.157	-200.000	0.009	-0.182
-465.143	-42.104	-0.098	-0.050
-464.128	-91.610	-0.118	0.033
-463.113	800.000	0.197	0.583
-462.099	-200.000	-0.032	0.318
-461.084	49.612	-0.040	0.037
-460.070	410.704	0.040	0.085
-459.055	4.986	-0.095	-0.070
-458.040	448.692	0.042	-0.093
-457.026	52.872	0.160	0.153
-456.011	38.209	-0.315	-0.280
-454.997	800.000	-0.040	0.141
-453.982	34.596	0.227	0.198
-452.968	327.388	0.104	0.200
-451.953	-45.424	0.080	-0.040
-450.938	800.000	-0.034	-0.131
-449.924	680.196	-0.062	0.162
-448.909	13.143	0.182	0.140
-447.895	-38.865	0.110	-0.058
-446.880	542.404	0.170	-0.404
-445.865	2.920	-0.121	0.088
-444.851	-200.000	0.016	0.195
-443.836	800.000	-0.082	-0.248
-442.822	-200.000	-0.005	-0.112
-441.807	-119.112	0.063	0.011
-440.792	114.086	0.167	0.203
-439.778	246.349	0.034	0.058
-438.763	86.971	0.081	-0.089
-437.749	27.603	0.303	-0.254
-436.734	-60.757	-0.102	0.043
-435.719	461.087	0.056	0.125
-434.705	569.349	-0.077	-0.188
-433.690	-200.000	0.001	-0.039
-432.676	-200.000	-0.008	-0.185
-431.661	130.970	0.058	0.074
-430.646	-200.000	0.016	0.154
-429.632	3.553	-0.125	-0.091
-428.617	800.000	0.048	-0.165
-427.603	49.685	0.189	0.178
-426.588	-96.719	0.331	0.087
-425.573	116.853	-0.207	0.253
-424.559	132.411	-0.055	0.071
-423.544	800.000	-0.081	-0.224
-422.530	-57.134	-0.277	0.122
-421.515	-11.687	0.035	-0.023
-420.500	-72.128	-0.230	-0.085
-419.486	-143.965	0.044	0.004
-418.471	209.954	-0.061	0.095
-417.457	257.914	0.028	0.048
-416.442	-10.764	-0.206	-0.136
-415.428	391.926	-0.106	-0.220
-414.413	21.614	0.013	0.011
-413.398	-200.000	0.027	0.209
-412.384	-200.000	0.001	-0.163
-411.369	-200.000	0.069	0.724
-410.355	474.690	-0.054	0.122
-409.340	-57.358	-0.086	0.038
-408.325	12.721	-0.104	-0.080
-407.311	90.961	0.228	-0.255
-406.296	-7.350	0.238	0.161
-405.282	-70.590	0.353	-0.133
-404.267	-103.998	0.224	-0.052
-403.252	564.154	0.150	0.363
-402.238	3.770	0.069	0.050
-401.223	192.936	-0.053	0.079
-400.209	34.552	-0.083	-0.072
-399.194	-71.671	-0.164	-0.061
-398.179	65.498	0.310	-0.313
-397.165	-35.414	0.103	-0.056
-396.150	-200.000	-0.026	0.184
-395.136	-73.900	-0.663	0.240
-394.121	-200.000	0.022	0.332
-393.106	637.697	0.173	-0.438
-392.092	89.617	-0.231	0.256
-391.077	-107.675	0.274	-0.060
-390.063	-200.000	0.031	-0.190
-389.048	-46.909	0.289	-0.141
-388.033	-86.075	0.111	-0.034
-387.019	20.564	-0.277	-0.224
-386.004	-112.101	-0.336	0.067
-384.990	63.302	-0.111	-0.111
-383.975	318.740	-0.126	-0.238
-382.960	363.086	-0.115	0.230
-381.946	-105.554	0.206	0.047
-380.931	-200.000	-0.005	0.249
-379.917	-152.095	0.166	0.012
-378.902	800.000	0.090	0.262
-377.888	763.123	0.097	0.262
-376.873	-200.000	0.012	0.255
-375.858	-120.658	0.122	0.021
-374.844	51.758	0.047	-0.045
-373.829	-200.000	0.056	-0.353
-372.815	120.644	-0.029	0.036
-371.800	-151.794	0.120	-0.009
-370.785	583.594	0.046	-0.112
-369.771	800.000	-0.057	0.173
-368.756	64.326	0.142	-0.142
-367.742	-76.648	-0.177	0.062
-366.727	-79.884	0.254	0.085
-365.712	40.201	0.126	-0.113
-364.698	-31.198	0.312	0.175
-363.683	800.000	-0.067	-0.188
-362.669	221.789	-0.186	-0.298
-361.654	-200.000	0.008	-0.081
-360.639	-200.000	0.018	0.149
-359.625	-23.990	0.051	0.030
-358.610	-200.000	-0.013	-0.275
-357.596	529.173	0.056	-0.133
-356.581	766.478	-0.099	-0.267
-355.566	-106.701	0.059	0.013
-354.552	44.900	0.146	-0.134
-353.537	-200.000	-0.035	-0.182
-352.523	-200.000	0.035	-0.204
-351.508	17.557	0.107	0.085
-350.493	127.124	-0.240	-0.302
-349.479	-53.177	-0.297	-0.135
-348.464	-58.146	-0.148	0.064
-347.450	89.323	0.220	0.244
-346.435	800.000	-0.106	0.420
-345.420	-200.000	0.032	0.147
-344.406	-200.000	0.041	-0.324
-343.391	219.099	-0.163	0.259
-342.377	-164.257	-0.226	0.010
-341.362	207.813	-0.102	-0.159
-340.348	-2.550	-0.091	-0.063
-339.333	-12.678	-0.133	0.086
-338.318	-163.393	0.277	0.013
-337.304	57.743	-0.138	0.134
-336.289	70.979	0.270	0.278
-335.275	-200.000	-0.060	0.293
-334.260	-126.757	0.255	-0.037
-333.245	195.313	-0.156	0.236
-332.231	-63.222	0.213	0.087
-331.216	268.917	-0.161	0.281
-330.202	800.000	0.139	0.487
-329.187	800.000	-0.052	0.216
-328.172	41.821	0.224	0.202
-327.158	145.311	0.205	0.273
-326.143	431.896	0.035	0.075
-325.129	414.195	0.064	0.135
-324.114	-45.965	-0.198	0.097
-323.099	30.612	0.145	0.123
-322.085	-200.000	0.039	-0.291
-321.070	172.504	-0.077	-0.109
-320.056	256.104	-0.116	-0.198
-319.041	98.569	-0.197	-0.225
-318.026	-140.975	0.154	0.016
-317.012	272.863	-0.161	0.283
-315.997	167.035	0.106	-0.149
-314.983	375.505	0.067	0.135
-313.968	1.134	-0.054	-0.038
-312.953	152.147	0.219	0.297
-311.939	422.593	0.131	0.280
-310.924	800.000	0.055	0.167
-309.910	-200.000	0.010	-0.155
-308.895	210.021	0.154	0.239
-307.880	260.584	-0.021	0.036
-306.866	339.217	-0.058	0.112
-305.851	76.307	0.326	0.343
-304.837	312.981	-0.049	-0.091
-303.822	-71.644	-0.265	0.098
-302.807	689.682	0.062	-0.161
-301.793	99.992	0.181	0.208
-300.778	8.639	0.069	0.051
-299.764	113.178	0.059	0.071
-298.749	-106.903	0.082	0.018
-297.735	800.000	-0.068	-0.204
-296.720	23.540	0.167	0.136
-295.705	210.905	-0.114	0.178
-294.691	800.000	0.055	-0.172
-293.676	61.801	-0.243	0.240
-292.662	265.625	0.064	0.111
-291.647	110.626	-0.343	-0.409
-290.632	-77.571	-0.301	-0.103
-289.618	567.286	0.066	0.160
-288.603	0.365	0.316	-0.224
-287.589	-200.000	0.007	0.097
-286.574	784.832	-0.030	-0.082
-285.559	-97.101	-0.233	-0.061
-284.545	64.986	-0.015	0.015
-283.530	-50.286	-0.126	0.059
-282.516	32.142	0.187	0.160
-281.501	-200.000	0.001	0.066
-280.486	671.132	0.094	-0.241
-279.472	-142.928	0.090	0.009
-278.457	-114.054	-0.401	-0.077
-277.443	82.735	0.178	-0.192
-276.428	800.000	0.138	-0.380
-275.413	389.743	-0.137	0.283
-274.399	-108.940	0.032	-0.007
-273.384	-59.297	0.245	-0.104
-272.370	-158.457	-0.155	0.009
-271.355	-200.000	-0.009	0.233
-270.340	-173.494	-0.254	-0.008
-269.326	-83.837	-0.108	-0.034
-268.311	213.728	0.228	-0.357
-267.297	368.739	-0.035	-0.070
-266.282	-139.483	0.054	0.006
-265.267	103.732	0.120	-0.139
-264.253	-200.000	-0.048	0.303
-263.238	165.369	-0.128	-0.179
-262.224	800.000	-0.059	-0.239
-261.209	177.884	-0.065	0.094
-260.195	-66.255	-0.156	-0.061
-259.180	800.000	0.106	0.293
-258.165	-9.486	0.290	0.192
-257.151	800.000	0.022	0.079
-256.136	800.000	0.123	-0.375
-255.122	800.000	-0.062	-0.250
-254.107	-9.474	-0.143	-0.094
-253.092	-129.630	0.318	-0.043
-252.078	800.000	0.048	0.200
-251.063	54.049	-0.198	-0.189
-250.049	197.583	0.131	-0.198
-249.034	-168.853	0.161	0.006
-248.019	284.609	-0.101	-0.181
-247.005	800.000	0.136	0.377
-245.990	-159.163	-0.021	0.001
-244.976	-200.000	-0.027	-0.253
-243.961	54.443	-0.216	0.206
-242.946	512.476	0.085	-0.197
-241.932	26.202	0.225	-0.186
-240.917	800.000	0.046	-0.131
-239.903	12.185	0.347	-0.265
-238.888	140.023	0.277	0.361
-237.873	50.197	0.131	0.123
-236.859	620.145	-0.050	0.126
-235.844	668.976	-0.029	0.075
-234.830	195.475	-0.113	-0.170
-233.815	772.110	0.055	0.148
-232.800	800.000	-0.054	-0.199
-231.786	-200.000	0.038	-0.213
-230.771	-72.931	0.081	-0.030
-229.757	61.932	-0.195	0.192
-228.742	-1.056	0.311	0.218
-227.727	-200.000	-0.066	0.296
-226.713	332.518	0.181	0.346
-225.698	-66.606	0.137	-0.054
-224.684	225.082	0.193	-0.309
-223.669	-200.000	-0.004	0.264
-222.655	18.553	0.050	-0.040
-221.640	800.000	-0.052	-0.187
-220.625	-111.151	-0.132	-0.027
-219.611	-49.327	0.276	-0.130
-218.596	1.362	0.110	-0.078
-217.582	38.157	-0.140	-0.123
-216.567	82.227	0.171	-0.184
-215.552	-200.000	0.004	-0.053
-214.538	800.000	-0.145	0.473
-213.523	253.052	-0.177	0.298
-212.509	-63.295	0.516	-0.210
-211.494	63.845	0.377	-0.375
-210.479	-200.000	0.026	-0.220
-209.465	89.973	-0.080	-0.088
-208.450	112.743	0.141	-0.169
-207.436	-200.000	-0.077	0.415
-206.421	-49.344	-0.116	-0.055
-205.406	-200.000	-0.044	-0.317
-204.392	-200.000	0.027	0.411
-203.377	-40.081	-0.397	0.204
-202.363	-167.971	-0.370	-0.014
-201.348	170.760	0.043	0.061
-200.333	144.579	-0.200	0.264
-199.319	-200.000	-0.008	-0.087
-198.304	648.302	-0.118	-0.299
-197.290	800.000	0.043	-0.144
-196.275	235.284	0.059	0.096
-195.260	44.731	0.147	-0.134
-194.246	-145.785	0.448	-0.039
-193.231	-81.963	-0.312	-0.101
-192.217	-59.781	-0.369	0.156
-191.202	-200.000	-0.014	0.108
-190.187	-200.000	0.039	0.344
-189.173	-61.258	-0.160	0.067
-188.158	193.513	0.076	0.114
-187.144	-37.104	-0.037	-0.020
-186.129	-200.000	-0.006	-0.127
-185.114	-63.029	0.243	0.099
-184.100	77.087	0.236	-0.248
-183.085	-200.000	0.009	0.271
-182.071	19.617	-0.151	-0.120
-181.056	-122.663	0.252	0.040
-180.042	-104.029	-0.309	-0.071
-179.027	-50.765	0.109	0.051
-178.012	-200.000	-0.111	-0.500
-176.998	-200.000	0.012	-0.183
-175.983	-124.111	-0.491	0.076
-174.969	-10.310	-0.180	0.118
-173.954	-107.164	0.471	-0.103
-172.939	152.711	0.126	-0.170
-171.925	-78.434	-0.408	0.138
-170.910	-153.635	-0.322	0.022
-169.896	90.155	-0.071	-0.078
-168.881	79.917	-0.181	-0.192
-167.866	212.345	-0.211	-0.329
-166.852	133.430	0.051	-0.066
-165.837	-98.021	-0.195	-0.050
-164.823	728.736	-0.031	0.081
-163.808	192.406	-0.126	-0.188
-162.793	-200.000	0.062	0.310
-161.779	14.953	0.095	-0.073
-160.764	800.000	-0.044	-0.170
-159.750	540.266	-0.020	0.048
-158.735	137.588	0.109	0.141
-157.720	7.606	0.402	0.297
-156.706	-15.658	-0.232	0.146
-155.691	83.582	-0.047	0.050
-154.677	-200.000	-0.000	-0.062
-153.662	-200.000	0.010	0.055
-152.647	212.386	0.066	0.102
-151.633	-200.000	0.017	0.198
-150.618	45.703	-0.205	0.187
-149.604	9.109	0.126	0.094
-148.589	-66.617	0.182	-0.071
-147.574	139.410	0.172	-0.223
-146.560	-77.961	0.203	-0.069
-145.545	-33.224	-0.045	-0.025
-144.531	-120.505	-0.375	-0.063
-143.516	-110.149	-0.348	0.072
-142.502	-76.451	-0.443	-0.154
-141.487	-200.000	0.002	-0.179
-140.472	-116.259	-0.224	0.041
-139.458	-86.892	-0.258	0.078
-138.443	-4.912	0.153	0.104
-137.429	-44.191	-0.221	0.109
-136.414	-200.000	0.009	-0.048
-135.399	319.127	0.041	-0.077
-134.385	-66.496	0.274	0.107
-133.370	125.473	-0.042	-0.052
-132.356	47.488	0.032	0.030
-131.341	800.000	0.093	0.278
-130.326	403.521	0.192	0.399
-129.312	88.204	-0.031	0.034
-128.297	25.696	-0.156	-0.128
-127.283	-200.000	0.028	0.185
-126.268	158.756	-0.110	-0.151
-125.253	-89.824	-0.221	0.064
-124.239	800.000	0.086	0.257
-123.224	22.500	0.053	-0.043
-122.210	58.920	-0.171	-0.166
-121.195	2.370	0.171	-0.122
-120.180	49.895	0.202	-0.188
-119.166	-94.892	0.219	0.058
-118.151	800.000	-0.078	-0.246
-117.137	152.934	-0.164	-0.222
-116.122	800.000	0.074	0.219
-115.107	538.797	-0.078	-0.184
-114.093	-146.898	0.226	-0.019
-113.078	-155.963	0.075	-0.005
-112.064	20.010	0.135	0.107
-111.049	647.658	0.106	0.267
-110.034	-200.000	-0.014	0.195
-109.020	-187.775	-0.098	0.001
-108.005	336.617	0.184	0.352
-106.991	-69.279	0.127	-0.048
-105.976	560.019	-0.129	-0.307
-104.962	-97.253	0.232	-0.060
-103.947	-75.160	0.130	0.046
-102.932	-24.337	-0.225	-0.132
-101.918	11.713	0.084	0.063
-100.903	-101.181	0.564	0.136
-99.889	800.000	-0.080	-0.229
-98.874	-101.732	-0.186	-0.044
-97.859	-74.002	0.338	0.121
-96.845	383.996	-0.044	-0.089
-95.830	-200.000	0.003	0.060
-94.816	539.292	0.050	-0.118
-93.801	800.000	-0.050	0.139
-92.786	-109.964	0.394	-0.081
-91.772	-200.000	0.037	-0.253
-90.757	581.425	-0.115	0.278
-89.743	343.495	0.078	-0.151
-88.728	-25.641	0.413	0.240
-87.713	-135.529	-0.352	-0.041
-86.699	-200.000	0.029	-0.300
-85.684	91.700	0.165	-0.183
-84.670	-87.859	0.354	-0.105
-83.655	-168.517	0.027	0.001
-82.640	264.539	0.069	0.117
-81.626	11.575	-0.264	-0.199
-80.611	-200.000	0.010	0.274
-79.597	72.652	-0.086	-0.088
-78.582	-200.000	0.030	-0.145
-77.567	-200.000	-0.011	-0.236
-76.553	800.000	0.081	0.237
-75.538	532.574	-0.065	0.152
-74.524	445.372	-0.042	-0.090
-73.509	800.000	-0.105	0.335
-72.494	225.703	0.283	0.451
-71.480	-200.000	0.011	0.116
-70.465	-54.228	-0.205	0.091
-69.451	-165.339	0.238	-0.010
-68.436	-200.000	-0.002	0.289
-67.422	-66.460	0.141	0.055
-66.407	-200.000	-0.061	-0.271
-65.392	47.873	0.214	-0.196
-64.378	-136.402	0.090	-0.010
-63.363	45.275	0.226	0.205
-62.349	-34.913	-0.049	-0.026
-61.334	211.794	-0.532	-0.824
-60.319	800.000	0.215	0.585
-59.305	462.026	-0.437	-0.959
-58.290	270.736	0.584	1.010
-57.276	230.884	0.848	1.365
-56.261	-200.000	94.936	574.134
-55.246	514.847	1406.827	3228.382
-54.232	154.033	2603.558	3509.933
-53.217	112.139	2189.745	2601.686
-52.203	43.936	1635.637	1473.065
-51.188	35.255	1366.977	1178.007
-50.173	32.060	1324.377	1122.188
-49.159	55.103	1371.015	1302.107
-48.144	56.440	1388.152	1326.439
-47.130	35.338	1347.982	1161.955
-46.115	31.782	1329.750	1124.896
-45.100	31.643	1324.737	1119.776
-44.086	31.571	1322.466	1117.384
-43.071	31.503	1320.644	1115.392
-42.057	31.516	1318.245	1113.403
-41.042	31.553	1316.631	1112.214
-40.027	31.520	1315.153	1110.725
-39.013	31.514	1312.952	1108.787
-37.998	31.608	1310.836	1107.512
-36.984	31.607	1309.053	1105.955
-35.969	31.716	1307.475	1105.224
-34.954	31.589	1306.259	1103.400
-33.940	31.666	1304.804	1102.581
-32.925	31.580	1303.641	1101.049
-31.911	31.762	1301.362	1100.149
-30.896	31.686	1300.787	1099.172
-29.881	31.747	1299.142	1098.096
-28.867	31.768	1297.318	1096.639
-27.852	31.833	1295.803	1095.690
-26.838	31.742	1294.357	1093.897
-25.823	31.848	1292.985	1093.310
-24.809	31.642	1292.330	1091.512
-23.794	31.803	1290.429	1090.798
-22.779	31.680	1289.060	1088.885
-21.765	31.687	1288.202	1088.154
-20.750	31.613	1286.275	1086.057
-19.736	31.674	1285.197	1085.457
-18.721	31.640	1284.049	1084.249
-17.706	31.546	1283.401	1083.114
-16.692	31.579	1282.002	1082.081
-15.677	31.547	1280.908	1080.929
-14.663	31.459	1280.079	1079.677
-13.648	31.686	1278.039	1079.225
-12.633	31.544	1277.175	1077.632
-11.619	31.539	1276.655	1077.122
-10.604	31.585	1275.467	1076.343
-9.590	31.532	1274.799	1075.430
-8.575	31.468	1273.766	1074.147
-7.560	31.573	1272.428	1073.581
-6.546	31.561	1271.765	1072.909
-5.531	31.464	1271.331	1071.943
-4.517	31.497	1270.400	1071.306
-3.502	31.545	1269.733	1070.976
-2.487	31.562	1268.352	1069.864
-1.473	31.533	1264.402	1066.326
-0.458	30.184	1249.417	1046.042
0.556	25.177	1230.882	1006.100
1.571	21.086	1235.740	986.890
2.586	19.684	1249.552	989.808
3.600	18.945	1238.042	976.410
4.615	13.766	1163.716	889.994
5.629	5.207	1085.473	787.096
6.644	0.797	1065.580	750.746
7.659	0.463	1063.283	747.404
8.673	0.356	1061.992	745.900
9.688	0.385	1061.163	745.394
10.702	0.624	1058.881	744.908
11.717	5.641	1065.888	774.630
12.731	13.686	1076.315	822.172
13.746	17.017	1080.073	841.518
14.761	17.130	1079.044	841.200
15.775	16.273	1077.347	835.562
16.790	15.224	1075.459	828.839
17.804	14.644	1073.540	824.423
18.819	14.193	1072.682	821.464
19.834	13.895	1071.652	819.135
20.848	13.667	1070.831	817.311
21.863	13.545	1069.727	815.795
22.877	13.356	1069.126	814.337
23.892	13.293	1067.955	813.061
24.907	13.224	1067.480	812.290
25.921	13.266	1066.844	811.940
26.936	13.305	1066.052	811.456
27.950	13.424	1065.248	811.354
28.965	13.378	1064.004	810.109
29.980	13.429	1062.677	809.280
30.994	13.497	1061.552	808.680
32.009	13.655	1060.330	808.451
33.023	13.586	1059.479	807.392
34.038	13.472	1058.148	805.754
35.053	13.484	1057.746	805.433
36.067	13.479	1056.896	804.689
37.082	13.418	1056.035	803.669
38.096	13.463	1055.397	803.330
39.111	13.524	1054.578	802.931
40.126	13.453	1053.134	801.416
41.140	13.269	1052.347	799.858
42.155	13.274	1051.011	798.795
43.169	13.222	1050.086	797.769
44.184	13.290	1049.341	797.462
45.199	13.275	1048.029	796.322
46.213	13.263	1047.264	795.611
47.228	13.365	1046.149	795.187
48.242	13.340	1044.871	794.024
49.257	13.281	1044.270	793.212
50.271	13.373	1043.237	792.797
51.286	13.416	1041.929	791.939
52.301	13.413	1041.303	791.380
53.315	13.268	1040.307	789.864
54.330	13.416	1038.912	789.439
55.344	13.216	1038.664	788.224
56.359	13.285	1037.633	787.701
57.374	13.291	1036.594	786.874
58.388	13.291	1035.870	786.254
59.403	13.210	1035.379	785.427
60.417	13.403	1034.308	785.461
61.432	13.206	1033.493	783.836
62.447	13.138	1033.069	783.124
63.461	13.193	1032.068	782.555
64.476	13.245	1031.064	781.971
65.490	13.118	1030.411	780.806
66.505	13.257	1029.349	780.592
67.520	13.261	1028.748	780.083
68.534	13.298	1028.320	779.867
69.549	13.292	1027.379	779.053
70.563	13.181	1026.498	777.793
71.578	13.197	1026.075	777.478
72.593	13.200	1025.090	776.678
73.607	13.144	1024.597	775.976
74.622	13.202	1023.906	775.655
75.636	13.231	1023.131	775.136
76.651	13.209	1022.149	774.219
77.666	13.090	1021.928	773.427
78.680	13.089	1021.368	772.929
79.695	13.198	1020.222	772.505
80.709	13.290	1019.516	772.331
81.724	13.318	1018.655	771.742
82.739	13.273	1018.486	771.334
83.753	13.340	1017.671	770.961
84.768	13.481	1016.243	770.466
85.782	13.425	1015.410	769.506
86.797	13.356	1014.885	768.722
87.812	13.430	1013.852	768.213
88.826	13.391	1012.742	767.122
89.841	13.494	1011.720	766.759
90.855	13.468	1011.042	766.054
91.870	13.511	1010.247	765.587
92.884	13.498	1009.092	764.581
93.899	13.415	1008.934	764.011
94.914	13.540	1007.439	763.390
95.928	13.539	1007.108	763.065
96.943	13.277	1006.436	761.283
97.957	13.440	1005.131	760.976
98.972	13.658	1003.920	760.996
99.987	13.456	1003.214	759.466
101.001	13.445	1001.964	758.398
102.016	13.489	1001.340	758.061
103.030	13.436	1000.978	757.480
104.045	13.582	999.477	756.945
105.060	13.477	999.138	756.139
106.074	13.379	998.290	754.987
107.089	13.382	996.999	753.956
108.103	13.343	996.401	753.256
109.118	13.474	995.300	752.956
110.133	13.354	994.492	751.732
111.147	13.374	993.562	751.052
112.162	13.383	992.835	750.479
113.176	13.335	992.219	749.730
114.191	13.436	991.327	749.447
115.206	13.512	990.397	749.020
116.220	13.279	990.068	747.652
117.235	13.427	988.854	747.338
118.249	13.507	987.823	746.851
119.264	13.312	987.402	745.587
120.279	13.418	986.409	745.248
121.293	13.366	985.868	744.542
122.308	13.283	984.967	743.421
123.322	13.371	984.039	743.052
124.337	13.356	982.986	742.122
125.352	13.408	981.574	741.226
126.366	13.451	980.286	740.377
127.381	13.453	979.633	739.830
128.395	13.306	978.952	738.591
129.410	13.507	977.906	738.637
130.424	13.511	977.116	737.990
131.439	13.360	976.494	736.784
132.454	13.416	975.451	736.179
133.468	13.476	975.022	736.059
134.483	13.436	973.804	734.896
135.497	13.571	972.661	734.565
136.512	13.566	972.039	734.010
137.527	13.548	971.229	733.254
138.541	13.503	970.627	732.533
139.556	13.594	969.502	732.022
140.570	13.690	969.207	732.161
141.585	13.721	967.728	731.115
142.600	13.711	966.978	730.440
143.614	13.707	966.293	729.838
144.629	13.692	965.595	729.182
145.643	13.670	964.693	728.341
146.658	13.665	963.728	727.525
147.673	13.529	962.914	726.248
148.687	13.562	961.852	725.527
149.702	13.603	961.322	725.243
150.716	13.579	960.655	724.573
151.731	13.542	959.918	723.788
152.746	13.407	959.320	722.686
153.760	13.568	958.370	722.610
154.775	13.640	957.516	722.214
155.789	13.625	956.958	721.663
156.804	13.761	956.365	721.745
157.819	13.742	955.906	721.251
158.833	13.777	955.234	720.834
159.848	13.777	954.232	720.014
160.862	13.724	953.332	719.040
161.877	13.729	952.409	718.304
162.892	13.669	951.832	717.545
163.906	13.523	950.800	716.070
164.921	13.659	950.125	716.088
165.935	13.794	948.732	715.554
166.950	13.704	948.018	714.565
167.964	13.715	947.259	713.978
168.979	13.706	946.161	713.050
169.994	13.723	945.204	712.337
171.008	13.786	944.720	712.179
172.023	13.895	943.725	711.833
173.037	13.697	943.701	710.904
174.052	13.878	942.541	710.743
175.067	13.903	941.902	710.306
176.081	13.697	941.580	709.120
177.096	13.658	941.004	708.454
178.110	13.747	940.098	708.089
179.125	13.834	939.496	707.945
180.140	13.797	939.101	707.428
181.154	13.872	938.714	707.393
182.169	13.863	938.073	706.810
183.183	13.992	937.307	706.717
184.198	14.042	936.556	706.300
185.213	14.034	935.913	705.721
186.227	13.989	935.289	704.998
187.242	14.062	934.498	704.645
188.256	14.074	933.808	704.114
189.271	13.967	933.199	703.142
190.286	13.976	932.345	702.474
191.300	13.814	931.762	701.286
192.315	13.854	931.416	701.136
193.329	13.968	930.444	700.823
194.344	13.922	929.958	700.200
195.359	14.024	929.235	700.022
196.373	14.008	928.821	699.582
197.388	14.109	928.032	699.349
198.402	14.120	927.747	699.120
199.417	14.179	927.186	698.885
200.432	14.169	926.706	698.417
201.446	14.351	925.551	698.246
202.461	14.241	925.782	697.899
203.475	14.332	924.892	697.548
204.490	14.413	923.787	696.992
205.504	14.246	923.222	695.806
206.519	14.079	922.892	694.798
207.534	14.319	921.557	694.731
208.548	14.294	920.821	694.013
209.563	14.271	920.389	693.530
210.577	14.292	919.859	693.154
211.592	14.435	919.408	693.348
212.607	14.306	918.202	691.841
213.621	14.316	917.856	691.563
214.636	14.355	917.040	691.047
215.650	14.479	916.314	690.952
216.665	14.295	915.589	689.583
217.680	14.304	914.887	689.032
218.694	14.477	913.907	688.946
219.709	14.402	913.708	688.425
220.723	14.554	912.671	688.213
221.738	14.588	912.064	687.832
222.753	14.564	911.239	687.052
223.767	14.589	910.726	686.706
224.782	14.725	910.181	686.793
225.796	14.472	909.944	685.512
226.811	14.650	908.910	685.404
227.826	14.686	908.078	684.866
228.840	14.621	907.591	684.173
229.855	14.629	906.674	683.451
230.869	14.639	905.694	682.694
231.884	14.648	905.406	682.452
232.899	14.627	904.881	681.911
233.913	14.520	904.288	680.965
234.928	14.608	903.255	680.487
235.942	14.548	902.797	679.837
236.957	14.674	902.234	679.867
237.972	14.654	901.802	679.400
238.986	14.717	900.990	678.983
240.001	14.668	900.387	678.270
241.015	14.672	899.575	677.614
242.030	14.695	899.054	677.257
243.045	14.652	898.662	676.726
244.059	14.640	897.883	676.032
245.074	14.616	897.656	675.704
246.088	14.762	896.349	675.248
247.103	14.891	896.033	675.475
248.117	14.760	895.483	674.470
249.132	14.963	894.656	674.605
250.147	14.904	894.175	673.945
251.161	15.100	893.423	674.107
252.176	14.983	892.891	673.179
253.190	15.055	892.326	672.980
254.205	15.076	891.516	672.395
255.220	15.036	891.036	671.813
256.234	15.035	890.814	671.584
257.249	15.157	889.539	671.050
258.263	15.207	888.878	670.692
259.278	15.132	888.106	669.749
260.293	15.177	887.871	669.694
261.307	15.115	887.626	669.203
262.322	15.266	886.895	669.196
263.336	15.242	885.779	668.197
264.351	15.247	884.966	667.545
265.366	15.310	884.556	667.426
266.380	15.409	883.580	667.025
267.395	15.295	883.429	666.401
268.409	15.177	882.631	665.270
269.424	15.454	881.547	665.494
270.439	15.395	880.881	664.698
271.453	15.373	880.487	664.254
272.468	15.249	880.005	663.341
273.482	15.294	879.267	662.903
274.497	15.304	878.896	662.606
275.512	15.251	878.098	661.736
276.526	15.313	877.525	661.490
277.541	15.314	877.251	661.229
278.555	15.548	876.271	661.353
279.570	15.570	875.708	660.957
280.585	15.463	874.955	659.911
281.599	15.462	874.386	659.417
282.614	15.559	873.679	659.205
283.628	15.529	873.298	658.743
284.643	15.567	872.661	658.355
285.657	15.687	871.790	658.106
286.672	15.631	871.197	657.381
287.687	15.492	870.588	656.322
288.701	15.584	870.148	656.290
289.716	15.600	869.887	656.096
290.730	15.569	869.107	655.333
291.745	15.637	868.233	654.880
292.760	15.788	867.671	654.983
293.774	15.644	867.401	654.163
294.789	15.656	866.351	653.358
295.803	15.648	865.612	652.714
296.818	15.722	864.998	652.480
297.833	15.642	864.379	651.647
298.847	15.604	863.951	651.118
299.862	15.753	863.403	651.226
300.876	15.737	862.467	650.401
301.891	15.757	862.164	650.189
302.906	15.866	861.331	649.926
303.920	15.907	860.950	649.739
304.935	15.910	860.434	649.305
305.949	15.934	859.776	648.841
306.964	15.973	859.013	648.358
307.979	15.909	858.831	647.919
308.993	16.006	858.033	647.630
310.008	15.978	857.287	646.902
311.022	15.935	857.054	646.507
312.037	15.967	856.575	646.211
313.052	16.017	855.435	645.481
314.066	16.123	854.799	645.352
315.081	15.948	854.820	644.641
316.095	15.988	853.851	644.006
317.110	16.012	853.613	643.862
318.125	16.086	852.840	643.503
319.139	16.070	852.043	642.784
320.154	16.039	851.984	642.565
321.168	16.015	851.894	642.347
322.183	15.917	851.506	641.626
323.197	15.959	850.887	641.263
324.212	16.169	849.865	641.234
325.227	16.111	848.956	640.270
326.241	16.050	849.083	640.077
327.256	16.049	848.020	639.219
328.270	16.079	847.618	638.970
329.285	16.219	846.912	638.914
330.300	15.845	846.537	637.157
331.314	16.016	845.977	637.327
332.329	16.100	845.266	637.053
333.343	16.142	845.182	637.092
334.358	16.143	844.587	636.590
335.373	16.104	844.153	636.061
336.387	16.169	843.982	636.118
337.402	16.361	843.440	636.379
338.416	16.313	843.245	635.994
339.431	16.276	842.998	635.611
340.446	16.249	842.421	635.019
341.460	16.417	842.002	635.277
342.475	16.472	841.239	634.854
343.489	16.423	840.964	634.405
344.504	16.422	840.496	633.993
345.519	16.415	840.228	633.708
346.533	16.387	839.533	633.022
347.548	16.501	838.995	632.989
348.562	16.499	838.191	632.317
349.577	16.339	837.997	631.516
350.592	16.284	837.500	630.883
351.606	16.472	836.395	630.696
352.621	16.447	835.652	629.986
353.635	16.444	835.178	629.563
354.650	16.438	834.710	629.131
355.665	16.486	834.342	628.977
356.679	16.634	833.343	628.717
357.694	16.714	832.550	628.360
358.708	16.671	831.986	627.719
359.723	16.600	831.666	627.160
360.738	16.595	831.250	626.771
361.752	16.690	830.299	626.351
362.767	16.679	829.758	625.846
363.781	16.757	829.529	625.908
364.796	16.797	828.804	625.450
365.810	16.764	828.714	625.205
366.825	16.880	827.881	624.950
367.840	16.883	827.831	624.870
368.854	16.839	826.865	623.922
369.869	16.899	826.486	623.801
370.883	16.932	826.177	623.634
371.898	16.905	825.789	623.186
372.913	16.817	825.605	622.669
373.927	17.015	825.006	622.889
374.942	16.991	824.511	622.372
375.956	17.027	823.913	621.997
376.971	16.874	823.838	621.326
377.986	17.020	822.966	621.147
379.000	17.116	822.478	621.076
380.015	17.107	822.374	620.907
381.029	17.135	821.598	620.371
382.044	17.128	821.110	619.921
383.059	17.385	820.265	620.165
384.073	17.185	819.640	618.911
385.088	17.129	819.310	618.404
386.102	17.171	818.605	617.968
387.117	17.148	818.025	617.392
388.132	17.221	817.486	617.197
389.146	17.178	817.013	616.628
390.161	17.152	816.483	616.081
391.175	17.226	815.988	615.918
392.190	17.265	815.789	615.858
393.205	17.119	815.558	615.099
394.219	17.207	814.865	614.838
395.234	17.297	814.450	614.799
396.248	17.333	813.793	614.379
397.263	17.215	813.521	613.693
398.278	17.244	813.020	613.365
399.292	17.330	812.489	613.219
400.307	17.224	812.452	612.755
401.321	17.319	811.962	612.672
402.336	17.242	811.580	612.055
403.350	17.384	810.663	611.818
404.365	17.466	810.321	611.803
405.380	17.325	809.713	610.781
406.394	17.534	809.392	611.235
407.409	17.314	809.407	610.402
408.423	17.444	808.606	610.210
409.438	17.531	808.279	610.223
410.453	17.650	807.690	610.148
411.467	17.592	807.300	609.594
412.482	17.435	807.004	608.755
413.496	17.700	806.558	609.310
414.511	17.540	806.379	608.552
415.526	17.712	805.766	608.649
416.540	17.677	805.495	608.264
417.555	17.679	804.964	607.817
418.569	17.775	804.192	607.521
419.584	17.769	803.716	607.089
420.599	17.674	803.580	606.594
421.613	108.510	1290.400	1461.899
422.628	93.472	1361.308	1462.012
