DTS Sentinel unit serial number:	SN413079Multiplexer serial number:	ORYXHardware model number:	OX4-SRSoftware version number:	ORYX F/W v4.00 Oryx Data Collector v3.7.2.0data status	okinstallation	princeton_trtdifferential loss correction	single-endedforward channel	channel 1reverse channel	N/Adate	2019/09/12time	07:52:11forward acquisition time	60.00reverse acquisition time	0.00gamma	496.2192k internal	0.2315k external	0.2315temperature offset calibration	1.0045default loss term (dB/km)	0.3790temperature slope calibration	1.0000multiplexer offset coefficient	1.0000multiplexer slope coefficient	1.0000fibre end	0.00T internal ref (°C)	32.92T ext. ref 1 (°C)	1.65T ext. ref 2 (°C)	29.06length (m)	temperature (°C)	Stokes	anti-Stokes-747.200	-200.000	0.027	0.223
-746.185	-200.000	-0.023	0.308
-745.171	-25.278	0.168	0.101
-744.156	-117.112	-0.232	0.043
-743.142	107.215	-0.094	0.113
-742.127	110.329	0.191	0.233
-741.112	-77.817	0.418	0.146
-740.098	-29.649	-0.205	-0.119
-739.083	524.727	0.106	-0.253
-738.069	354.482	0.185	0.372
-737.054	26.185	-0.145	-0.123
-736.039	-12.436	0.139	-0.092
-735.025	-33.199	-0.162	0.091
-734.010	278.976	0.082	0.149
-732.996	357.520	-0.290	-0.586
-731.981	-22.576	-0.187	-0.115
-730.966	-119.826	0.216	0.038
-729.952	800.000	-0.106	0.464
-728.937	-82.793	-0.537	-0.176
-727.923	460.175	0.068	0.154
-726.908	-124.555	-0.362	-0.057
-725.894	800.000	0.035	-0.106
-724.879	-72.194	-0.256	-0.096
-723.864	85.613	0.193	-0.215
-722.850	-126.096	-0.118	0.018
-721.835	39.727	0.089	-0.081
-720.821	272.967	-0.113	0.202
-719.806	-178.087	-0.293	-0.007
-718.791	173.734	0.069	-0.101
-717.777	-83.280	-0.093	0.030
-716.762	-140.378	-0.233	-0.025
-715.748	-148.390	0.385	0.032
-714.733	546.816	0.034	0.082
-713.718	66.630	-0.147	0.151
-712.704	47.543	0.124	-0.117
-711.689	54.280	-0.301	-0.293
-710.675	516.179	-0.088	-0.208
-709.660	104.537	0.103	-0.123
-708.645	395.304	-0.073	-0.154
-707.631	188.452	0.197	-0.298
-706.616	800.000	-0.047	-0.156
-705.602	-154.754	0.181	0.012
-704.587	58.992	-0.090	0.089
-703.572	800.000	0.065	0.214
-702.558	-200.000	-0.005	-0.070
-701.543	-28.462	0.222	0.129
-700.529	-200.000	-0.008	0.159
-699.514	-200.000	0.055	-0.375
-698.499	333.304	0.050	-0.097
-697.485	-2.708	-0.245	-0.173
-696.470	-150.692	0.192	-0.015
-695.456	800.000	0.132	0.447
-694.441	225.421	-0.053	-0.086
-693.426	63.411	0.177	0.179
-692.412	57.186	-0.198	0.196
-691.397	-56.619	-0.390	0.175
-690.383	-200.000	0.012	-0.115
-689.368	-142.876	-0.126	-0.012
-688.354	-25.094	0.208	-0.125
-687.339	586.813	-0.050	0.125
-686.324	-86.645	0.049	-0.015
-685.310	137.386	0.097	-0.129
-684.295	-200.000	0.024	-0.148
-683.281	-128.903	-0.231	-0.033
-682.266	56.966	-0.009	0.009
-681.251	42.508	-0.061	-0.056
-680.237	-106.451	0.139	-0.031
-679.222	-84.405	-0.321	0.103
-678.208	197.365	0.068	0.105
-677.193	75.999	-0.251	-0.268
-676.178	-200.000	-0.018	-0.228
-675.164	-38.458	0.116	-0.062
-674.149	3.224	-0.238	-0.175
-673.135	-200.000	0.025	-0.153
-672.120	82.350	-0.092	-0.101
-671.105	800.000	-0.147	0.425
-670.091	-47.726	0.113	0.055
-669.076	604.212	0.120	0.302
-668.062	-200.000	-0.044	-0.292
-667.047	89.563	-0.176	-0.199
-666.032	-200.000	-0.029	0.267
-665.018	-4.479	0.143	-0.100
-664.003	-150.591	0.244	-0.019
-662.989	-33.661	-0.176	-0.098
-661.974	-99.100	-0.141	0.036
-660.959	-200.000	0.007	-0.095
-659.945	-136.646	-0.243	0.028
-658.930	59.536	0.218	-0.217
-657.916	12.086	0.032	0.025
-656.901	396.036	0.082	-0.172
-655.886	643.527	-0.041	-0.106
-654.872	-200.000	0.004	-0.081
-653.857	105.542	0.120	0.143
-652.843	78.912	0.211	-0.228
-651.828	-95.746	0.489	0.132
-650.814	-82.912	-0.089	0.029
-649.799	155.530	0.126	0.175
-648.784	61.047	-0.150	0.150
-647.770	258.414	-0.165	0.287
-646.755	96.584	-0.189	-0.219
-645.741	-123.694	-0.130	0.021
-644.726	53.073	-0.303	0.293
-643.711	-104.854	-0.305	-0.071
-642.697	-200.000	0.043	-0.273
-641.682	-200.000	0.011	0.059
-640.668	-90.506	0.063	-0.018
-639.653	-34.086	0.395	-0.219
-638.638	-71.113	-0.162	-0.062
-637.624	800.000	-0.108	-0.313
-636.609	60.000	0.190	0.189
-635.595	230.466	-0.125	-0.206
-634.580	232.216	0.106	-0.175
-633.565	-108.903	0.236	0.051
-632.551	-126.610	-0.130	0.019
-631.536	236.590	0.054	0.090
-630.522	310.701	0.041	-0.078
-629.507	-7.530	0.384	0.262
-628.492	-200.000	0.004	0.076
-627.478	-200.000	-0.063	0.290
-626.463	-108.293	0.200	-0.044
-625.449	-4.079	-0.066	-0.046
-624.434	-121.657	-0.164	0.027
-623.419	-138.064	0.181	-0.020
-622.405	116.771	-0.209	0.258
-621.390	-74.726	0.175	0.063
-620.376	757.075	0.149	0.407
-619.361	79.102	-0.233	-0.251
-618.346	219.587	0.048	-0.078
-617.332	800.000	0.015	-0.063
-616.317	-200.000	-0.005	0.256
-615.303	212.790	0.082	0.131
-614.288	41.329	0.246	-0.224
-613.273	800.000	-0.106	-0.446
-612.259	-95.992	0.324	0.087
-611.244	460.175	0.042	-0.094
-610.230	-155.322	0.087	-0.006
-609.215	177.336	-0.097	0.143
-608.201	800.000	0.018	0.068
-607.186	360.126	0.190	-0.384
-606.171	358.457	-0.244	-0.490
-605.157	-121.564	0.286	-0.048
-604.142	-200.000	-0.010	-0.062
-603.128	-101.388	-0.284	0.070
-602.113	-200.000	0.029	0.207
-601.098	187.328	-0.049	-0.074
-600.084	-87.789	-0.301	0.091
-599.069	-49.755	0.075	-0.036
-598.055	77.884	0.238	-0.256
-597.040	800.000	0.048	-0.144
-596.025	-1.665	0.139	-0.099
-595.011	272.049	-0.158	0.280
-593.996	-99.427	-0.212	0.054
-592.982	-33.486	0.068	-0.038
-591.967	70.558	0.245	0.256
-590.952	-200.000	-0.006	0.092
-589.938	-200.000	-0.009	-0.127
-588.923	762.666	-0.047	-0.127
-587.909	86.286	0.120	-0.133
-586.894	-93.710	0.231	-0.064
-585.879	105.124	0.065	-0.078
-584.865	138.837	0.087	-0.115
-583.850	800.000	-0.099	0.394
-582.836	159.469	-0.231	-0.323
-581.821	340.132	-0.111	-0.219
-580.806	470.946	0.037	-0.084
-579.792	21.229	-0.130	-0.106
-578.777	-70.290	-0.138	0.053
-577.763	-200.000	0.028	0.295
-576.748	800.000	0.078	-0.230
-575.733	587.457	0.067	-0.166
-574.719	225.966	0.111	0.181
-573.704	800.000	0.106	-0.374
-572.690	-22.195	-0.375	0.229
-571.675	800.000	0.101	-0.297
-570.661	-115.506	-0.336	0.064
-569.646	-159.750	-0.339	0.019
-568.631	-162.919	-0.186	0.009
-567.617	-77.272	0.102	-0.036
-566.602	-11.253	-0.230	-0.153
-565.588	38.610	0.089	-0.080
-564.573	684.194	0.111	-0.292
-563.558	-55.281	-0.265	0.120
-562.544	143.252	0.247	-0.330
-561.529	170.559	0.232	0.334
-560.515	126.756	0.184	-0.234
-559.500	444.627	-0.151	-0.334
-558.485	-8.755	-0.063	0.043
-557.471	412.577	0.197	0.421
-556.456	-117.405	0.149	0.027
-555.442	181.400	0.132	-0.196
-554.427	-200.000	-0.002	-0.186
-553.412	-16.456	-0.109	0.070
-552.398	-29.258	-0.129	-0.074
-551.383	-200.000	-0.043	-0.227
-550.369	-200.000	-0.011	0.221
-549.354	-153.251	0.360	-0.025
-548.339	318.618	0.032	0.061
-547.325	-31.643	-0.085	-0.048
-546.310	90.974	0.234	-0.263
-545.296	-3.597	0.206	0.144
-544.281	27.228	-0.064	0.054
-543.266	-200.000	-0.007	0.085
-542.252	183.326	0.035	-0.053
-541.237	-200.000	-0.037	0.253
-540.223	468.214	0.045	-0.101
-539.208	-200.000	-0.050	-0.296
-538.193	-101.414	-0.089	0.022
-537.179	164.370	-0.216	-0.306
-536.164	-200.000	0.028	0.290
-535.150	36.334	0.204	0.181
-534.135	-200.000	-0.044	0.233
-533.121	182.813	-0.113	-0.168
-532.106	800.000	-0.067	0.225
-531.091	-200.000	-0.068	0.309
-530.077	772.075	0.090	-0.247
-529.062	800.000	-0.022	-0.071
-528.048	3.471	0.124	-0.091
-527.033	-126.514	-0.234	0.035
-526.018	-43.328	0.171	-0.087
-525.004	66.503	0.140	0.143
-523.989	800.000	-0.136	-0.395
-522.975	-115.979	0.290	0.054
-521.960	-57.957	-0.415	0.182
-520.945	108.412	0.161	0.193
-519.931	184.107	0.034	0.051
-518.916	173.133	0.140	-0.203
-517.902	-66.938	-0.330	-0.131
-516.887	-85.210	0.333	0.105
-515.872	26.052	0.135	-0.113
-514.858	385.735	-0.040	0.084
-513.843	78.621	0.077	0.083
-512.829	-96.290	-0.141	-0.037
-511.814	-43.321	-0.229	-0.116
-510.799	559.852	0.107	0.260
-509.785	114.527	0.207	0.253
-508.770	11.185	0.223	0.171
-507.756	-200.000	0.007	0.380
-506.741	86.858	-0.108	-0.120
-505.726	-16.095	0.192	-0.123
-504.712	-141.761	0.286	-0.029
-503.697	4.738	0.186	0.137
-502.683	-200.000	-0.011	0.093
-501.668	-157.243	0.159	0.010
-500.653	-200.000	-0.019	0.230
-499.639	578.273	-0.026	-0.063
-498.624	-96.284	0.427	0.114
-497.610	608.676	0.093	0.234
-496.595	171.024	0.092	-0.132
-495.581	-102.863	-0.163	-0.039
-494.566	92.163	-0.140	0.158
-493.551	197.322	0.047	-0.073
-492.537	9.323	-0.071	0.054
-491.522	38.123	0.047	-0.042
-490.508	-48.138	-0.158	-0.076
-489.493	-109.004	-0.188	0.040
-488.478	-200.000	0.000	-0.295
-487.464	598.381	0.057	0.142
-486.449	193.896	0.090	-0.137
-485.435	-200.000	0.013	-0.369
-484.420	-72.719	0.187	0.069
-483.405	227.562	-0.132	0.216
-482.391	-200.000	-0.013	0.168
-481.376	88.489	0.147	-0.163
-480.362	800.000	-0.094	0.352
-479.347	-150.673	-0.126	-0.010
-478.332	17.310	0.114	-0.091
-477.318	134.304	-0.097	0.125
-476.303	382.249	-0.106	-0.218
-475.289	301.211	-0.131	0.243
-474.274	-200.000	0.015	0.148
-473.259	54.715	0.240	-0.232
-472.245	-84.328	0.143	0.046
-471.230	345.619	-0.077	-0.152
-470.216	800.000	0.056	-0.236
-469.201	345.157	-0.055	-0.108
-468.186	-200.000	0.066	0.312
-467.172	-57.540	-0.247	-0.109
-466.157	27.592	0.220	0.185
-465.143	548.036	-0.080	0.193
-464.128	254.263	-0.127	0.217
-463.113	454.658	0.067	-0.148
-462.099	194.405	-0.026	0.040
-461.084	-54.165	0.119	-0.054
-460.070	147.377	-0.189	-0.256
-459.055	-125.425	-0.072	-0.011
-458.040	-45.759	-0.174	0.086
-457.026	79.328	-0.070	0.075
-456.011	125.659	-0.147	-0.186
-454.997	181.868	-0.084	-0.124
-453.982	-4.328	-0.071	-0.049
-452.968	-68.981	-0.165	0.064
-451.953	763.944	0.104	-0.283
-450.938	-5.872	-0.135	-0.093
-449.924	54.578	-0.125	0.120
-448.909	800.000	-0.095	0.374
-447.895	-141.447	0.191	0.019
-446.880	118.898	-0.012	0.015
-445.865	-157.234	-0.231	0.014
-444.851	109.353	0.081	-0.097
-443.836	-200.000	0.015	-0.067
-442.822	-200.000	0.000	-0.059
-441.807	-200.000	0.021	0.249
-440.792	295.803	-0.070	-0.129
-439.778	-200.000	0.013	-0.214
-438.763	-50.609	-0.189	0.089
-437.749	235.753	0.167	-0.276
-436.734	-25.956	0.133	-0.078
-435.719	-103.212	-0.390	0.092
-434.705	-36.687	0.156	0.084
-433.690	16.652	-0.078	-0.062
-432.676	800.000	0.034	-0.126
-431.661	-89.206	0.366	-0.108
-430.646	-44.508	-0.153	0.077
-429.632	4.530	-0.102	0.075
-428.617	-163.125	0.256	0.012
-427.603	12.348	0.302	-0.233
-426.588	4.456	-0.173	0.127
-425.573	24.837	0.167	-0.139
-424.559	-123.267	-0.359	-0.057
-423.544	-10.123	-0.174	-0.116
-422.530	800.000	-0.083	-0.239
-421.515	-9.279	0.225	-0.150
-420.500	-72.106	-0.067	0.025
-419.486	-2.125	-0.198	0.139
-418.471	-3.849	-0.231	0.160
-417.457	115.027	0.078	-0.095
-416.442	118.286	0.143	0.177
-415.428	-200.000	-0.043	0.285
-414.413	-188.947	0.089	0.001
-413.398	800.000	0.047	-0.190
-412.384	534.013	-0.050	0.120
-411.369	-120.783	0.133	0.023
-410.355	249.166	0.122	-0.206
-409.340	-53.589	-0.068	0.031
-408.325	-200.000	-0.002	0.184
-407.311	-200.000	0.017	-0.137
-406.296	-151.985	0.094	0.007
-405.282	-37.282	0.249	0.133
-404.267	90.478	0.064	0.072
-403.252	-97.986	0.304	-0.078
-402.238	209.710	0.159	-0.249
-401.223	324.320	0.096	-0.183
-400.209	-85.227	-0.006	0.002
-399.194	-63.950	-0.365	-0.149
-398.179	-200.000	0.180	-0.000
-397.165	800.000	0.072	-0.223
-396.150	108.271	-0.184	-0.219
-395.136	-6.292	-0.268	-0.183
-394.121	-200.000	-0.052	-0.249
-393.106	-88.388	0.174	0.052
-392.092	-37.155	-0.158	0.085
-391.077	-200.000	-0.049	-0.280
-390.063	-88.787	0.065	0.019
-389.048	56.420	0.083	0.080
-388.033	-200.000	0.006	0.072
-387.019	96.945	0.059	0.068
-386.004	121.769	-0.088	-0.109
-384.990	-71.656	0.163	0.061
-383.975	-142.972	-0.021	-0.002
-382.960	-200.000	-0.045	0.233
-381.946	52.832	0.178	0.170
-380.931	-63.723	0.076	0.031
-379.917	123.833	-0.091	0.114
-378.902	-200.000	0.032	0.266
-377.888	259.886	-0.205	0.353
-376.873	71.441	0.013	0.013
-375.858	6.157	-0.061	-0.045
-374.844	-27.779	0.122	0.070
-373.829	-131.319	-0.341	0.045
-372.815	800.000	-0.045	0.174
-371.800	-24.230	0.153	0.091
-370.785	-74.253	-0.092	0.033
-369.771	-10.304	0.163	0.108
-368.756	241.709	-0.054	0.090
-367.742	800.000	0.017	-0.069
-366.727	-20.200	0.323	-0.199
-365.712	201.565	-0.123	-0.189
-364.698	-15.326	-0.222	-0.142
-363.683	69.654	0.132	0.135
-362.669	-28.517	-0.194	-0.112
-361.654	-24.023	0.165	-0.099
-360.639	-67.028	-0.205	-0.081
-359.625	800.000	-0.028	-0.087
-358.610	183.471	-0.123	-0.181
-357.596	214.551	0.123	0.194
-356.581	-123.666	0.249	0.039
-355.566	-200.000	-0.005	-0.159
-354.552	-10.556	-0.119	0.079
-353.537	-180.034	-0.187	-0.004
-352.523	-200.000	-0.148	-0.648
-351.508	-89.013	0.208	-0.061
-350.493	-200.000	-0.001	-0.190
-349.479	-97.383	0.050	0.013
-348.464	44.948	0.075	0.069
-347.450	716.091	-0.048	0.126
-346.435	105.932	0.117	-0.139
-345.420	-200.000	0.004	0.123
-344.406	-73.498	-0.207	-0.075
-343.391	-11.202	0.266	-0.175
-342.377	-24.531	-0.217	0.129
-341.362	266.805	0.108	0.188
-340.348	157.218	-0.189	0.261
-339.333	-75.735	0.211	0.075
-338.318	25.763	-0.367	0.305
-337.304	-59.712	0.188	0.080
-336.289	45.835	-0.049	0.046
-335.275	91.378	0.059	0.066
-334.260	-118.018	0.162	0.029
-333.245	211.844	0.110	0.173
-332.231	71.648	-0.203	0.210
-331.216	-171.819	0.254	-0.008
-330.202	-200.000	0.002	0.104
-329.187	-200.000	0.002	-0.240
-328.172	-200.000	0.056	-0.432
-327.158	-27.057	0.326	-0.190
-326.143	800.000	-0.114	0.398
-325.129	800.000	0.117	0.470
-324.114	679.029	-0.103	-0.267
-323.099	-66.098	-0.202	-0.080
-322.085	90.004	0.230	0.256
-321.070	26.946	-0.057	0.048
-320.056	-123.715	-0.335	-0.053
-319.041	-94.488	-0.220	-0.060
-318.026	-109.559	0.373	-0.078
-317.012	-53.394	0.153	0.070
-315.997	-38.668	-0.079	0.042
-314.983	-200.000	0.022	0.143
-313.968	-71.018	-0.146	-0.055
-312.953	-75.959	0.415	0.146
-311.939	0.848	-0.181	0.129
-310.924	92.899	0.033	-0.037
-309.910	-18.219	0.236	0.147
-308.895	-29.527	0.058	0.033
-307.880	-82.464	-0.478	-0.155
-306.866	175.435	0.083	0.120
-305.851	-147.853	-0.278	0.023
-304.837	145.321	-0.085	0.113
-303.822	-200.000	0.009	0.310
-302.807	-119.787	-0.461	0.079
-301.793	-200.000	0.028	0.242
-300.778	164.539	-0.271	0.380
-299.764	-114.531	-0.516	0.099
-298.749	188.129	-0.118	-0.176
-297.735	-33.025	-0.073	0.040
-296.720	429.785	0.073	-0.158
-295.705	-54.292	0.165	-0.075
-294.691	-153.807	-0.205	0.014
-293.676	-63.613	0.240	0.098
-292.662	-200.000	0.036	0.220
-291.647	-58.039	-0.077	0.033
-290.632	-128.229	0.146	0.021
-289.618	-138.938	-0.263	-0.028
-288.603	-154.862	-0.091	0.006
-287.589	123.513	0.042	0.052
-286.574	-128.379	0.259	-0.037
-285.559	89.418	-0.023	-0.025
-284.545	-118.621	-0.161	-0.028
-283.530	-200.000	-0.026	-0.143
-282.516	273.709	0.137	-0.241
-281.501	-118.568	0.193	0.034
-280.486	-70.467	-0.139	0.052
-279.472	-65.707	0.309	0.123
-278.457	-200.000	-0.053	0.308
-277.443	83.865	-0.076	0.083
-276.428	31.729	0.168	0.144
-275.413	-200.000	0.055	-0.359
-274.399	-59.542	-0.261	-0.112
-273.384	-113.851	-0.158	-0.030
-272.370	-89.440	-0.221	-0.065
-271.355	-200.000	-0.035	0.236
-270.340	39.003	-0.057	0.051
-269.326	238.990	0.064	-0.106
-268.311	-200.000	-0.046	0.336
-267.297	800.000	-0.065	-0.234
-266.282	128.829	-0.207	0.263
-265.267	800.000	0.024	0.075
-264.253	161.463	0.091	-0.126
-263.238	-170.934	-0.238	-0.008
-262.224	-200.000	0.024	0.173
-261.209	-71.400	-0.187	0.070
-260.195	198.296	0.161	-0.245
-259.180	272.316	0.100	0.175
-258.165	-65.735	0.265	-0.106
-257.151	72.320	-0.030	0.031
-256.136	406.926	-0.032	-0.067
-255.122	800.000	0.026	0.113
-254.107	800.000	0.017	0.064
-253.092	-75.567	-0.166	-0.059
-252.078	-79.157	0.267	0.090
-251.063	-200.000	-0.006	0.165
-250.049	135.289	0.149	0.193
-249.034	-106.107	-0.139	0.031
-248.019	522.225	0.137	-0.319
-247.005	-200.000	0.004	-0.074
-245.990	800.000	-0.079	-0.219
-244.976	-81.457	0.020	-0.006
-243.961	-59.773	-0.168	-0.072
-242.946	-200.000	-0.000	-0.041
-241.932	100.041	-0.106	-0.122
-240.917	-26.458	0.132	-0.077
-239.903	-11.590	0.347	0.226
-238.888	800.000	-0.124	0.347
-237.873	288.688	-0.046	0.083
-236.859	81.337	0.169	-0.182
-235.844	800.000	0.164	0.453
-234.830	-28.783	-0.083	-0.048
-233.815	145.062	0.170	-0.226
-232.800	18.780	-0.172	0.137
-231.786	-129.866	-0.306	-0.042
-230.771	714.990	0.027	0.071
-229.757	800.000	0.061	0.170
-228.742	-127.481	-0.299	0.043
-227.727	-90.182	-0.185	-0.053
-226.713	-200.000	-0.005	-0.169
-225.698	175.524	-0.167	-0.241
-224.684	-182.092	0.347	0.006
-223.669	-43.339	0.164	0.082
-222.655	-12.097	0.090	0.058
-221.640	63.175	0.131	0.131
-220.625	-28.227	-0.222	0.127
-219.611	-0.534	0.140	-0.099
-218.596	800.000	-0.021	0.062
-217.582	800.000	0.080	0.296
-216.567	-200.000	0.019	-0.112
-215.552	-195.346	0.085	0.001
-214.538	47.351	0.318	-0.294
-213.523	339.096	-0.279	-0.539
-212.509	105.349	0.079	0.092
-211.494	-179.907	0.089	-0.002
-210.479	-12.199	0.166	-0.108
-209.465	276.570	0.074	0.131
-208.450	50.637	-0.297	0.279
-207.436	-115.404	0.160	0.030
-206.421	20.226	-0.237	-0.190
-205.406	-200.000	0.008	0.230
-204.392	467.863	0.107	-0.238
-203.377	246.842	-0.198	-0.331
-202.363	635.695	-0.009	-0.023
-201.348	93.201	-0.096	-0.107
-200.333	769.039	-0.068	0.184
-199.319	17.174	0.189	-0.149
-198.304	307.046	0.186	-0.344
-197.290	-98.923	0.162	0.041
-196.275	65.686	0.213	-0.214
-195.260	-57.159	0.133	-0.058
-194.246	387.223	-0.055	-0.112
-193.231	182.454	-0.124	-0.181
-192.217	4.779	0.200	-0.146
-191.202	-54.268	0.305	-0.137
-190.187	-160.516	-0.113	-0.006
-189.173	658.582	-0.133	0.338
-188.158	-89.258	-0.147	0.043
-187.144	-2.841	-0.239	-0.166
-186.129	1.535	-0.122	0.087
-185.114	800.000	-0.052	0.158
-184.100	-85.802	0.136	-0.042
-183.085	-25.343	-0.546	-0.320
-182.071	800.000	-0.083	-0.279
-181.056	-68.926	-0.205	0.078
-180.042	-200.000	0.006	0.040
-179.027	311.518	-0.063	0.117
-178.012	-29.332	-0.223	0.127
-176.998	-73.244	0.250	0.091
-175.983	-200.000	0.025	-0.193
-174.969	-90.341	-0.098	-0.028
-173.954	-78.289	0.090	-0.031
-172.939	58.191	0.093	-0.090
-171.925	-200.000	-0.018	-0.183
-170.910	649.230	-0.079	-0.201
-169.896	800.000	0.063	0.205
-168.881	53.874	-0.130	0.123
-167.866	-200.000	-0.017	0.261
-166.852	-76.846	0.299	0.104
-165.837	-23.775	0.085	-0.051
-164.823	-80.224	-0.285	0.095
-163.808	66.145	0.104	-0.105
-162.793	427.403	-0.215	-0.460
-161.779	136.043	0.136	0.175
-160.764	-157.486	-0.281	-0.017
-159.750	800.000	0.074	0.309
-158.735	-59.885	0.195	0.082
-157.720	165.215	-0.111	-0.155
-156.706	-117.973	0.246	0.044
-155.691	-68.962	-0.279	0.106
-154.677	208.309	-0.057	0.089
-153.662	13.215	0.336	0.258
-152.647	800.000	0.128	0.402
-151.633	163.352	0.095	-0.132
-150.618	-0.898	0.182	0.127
-149.604	108.787	-0.043	-0.051
-148.589	491.303	0.174	0.395
-147.574	211.874	-0.035	0.054
-146.560	-39.380	0.099	0.051
-145.545	73.822	-0.185	0.192
-144.531	-40.275	-0.126	-0.065
-143.516	223.041	-0.124	-0.198
-142.502	-50.866	0.133	-0.062
-141.487	69.987	0.202	-0.206
-140.472	229.103	-0.173	0.279
-139.458	-57.024	0.270	-0.118
-138.443	24.223	-0.257	-0.210
-137.429	-114.566	0.220	0.042
-136.414	-57.684	-0.298	-0.129
-135.399	-104.369	0.109	0.025
-134.385	152.504	0.324	0.438
-133.370	800.000	0.056	0.173
-132.356	-101.007	-0.026	-0.006
-131.341	-168.015	0.339	-0.013
-130.326	25.911	-0.140	-0.116
-129.312	-67.863	0.102	-0.039
-128.297	-129.095	0.073	-0.010
-127.283	-77.764	-0.187	-0.064
-126.268	38.761	0.244	-0.215
-125.253	143.357	0.225	-0.296
-124.239	71.045	-0.199	-0.204
-123.224	15.805	-0.184	0.143
-122.210	800.000	0.067	-0.252
-121.195	311.087	0.274	-0.507
-120.180	-57.187	0.125	0.054
-119.166	-50.797	0.247	0.115
-118.151	-200.000	0.014	-0.062
-117.137	-33.956	-0.133	-0.072
-116.122	-63.528	0.207	0.084
-115.107	-200.000	0.043	0.322
-114.093	-200.000	0.004	-0.164
-113.078	-67.993	0.076	0.029
-112.064	800.000	0.081	0.264
-111.049	381.496	-0.072	-0.145
-110.034	494.698	0.113	0.256
-109.020	-101.855	0.167	-0.040
-108.005	-200.000	0.042	0.204
-106.991	800.000	-0.019	-0.072
-105.976	-36.520	-0.327	0.174
-104.962	-200.000	-0.002	-0.128
-103.947	236.121	0.115	0.189
-102.932	245.172	-0.222	-0.370
-101.918	129.074	0.061	-0.077
-100.903	800.000	-0.052	-0.143
-99.889	-35.190	0.255	0.137
-98.874	-141.086	0.196	0.020
-97.859	-200.000	-0.012	-0.173
-96.845	-119.539	0.068	0.012
-95.830	-200.000	-0.010	0.044
-94.816	642.151	-0.079	-0.198
-93.801	-137.543	0.325	-0.036
-92.786	5.286	-0.332	0.242
-91.772	-200.000	0.002	-0.104
-90.757	-11.708	0.197	-0.128
-89.743	-110.964	-0.154	-0.031
-88.728	-16.952	0.094	-0.058
-87.713	75.710	-0.092	0.096
-86.699	-110.473	0.257	-0.053
-85.684	80.191	-0.082	-0.087
-84.670	326.437	0.058	0.109
-83.655	111.065	0.249	-0.296
-82.640	52.785	-0.132	0.125
-81.626	-95.164	-0.180	0.048
-80.611	-85.926	0.309	0.094
-79.597	183.795	0.217	0.318
-78.582	-84.096	0.088	0.028
-77.567	800.000	0.003	0.011
-76.553	-200.000	0.003	0.063
-75.538	-133.153	-0.292	-0.036
-74.524	-120.634	0.357	0.060
-73.509	346.207	0.099	0.193
-72.494	-44.019	0.143	-0.071
-71.480	101.832	0.197	0.227
-70.465	-147.905	0.171	0.014
-69.451	-200.000	-0.000	0.203
-68.436	800.000	0.072	0.207
-67.422	-155.345	0.271	-0.017
-66.407	371.392	0.110	0.219
-65.392	-19.027	0.173	0.106
-64.378	-133.597	0.155	-0.019
-63.363	13.928	-0.174	-0.134
-62.349	800.000	0.110	0.449
-61.334	38.161	-0.945	-0.830
-60.319	-86.450	0.525	0.159
-59.305	-200.000	-0.120	-1.220
-58.290	135.019	0.762	0.977
-57.276	593.798	0.650	1.584
-56.261	-200.000	97.753	597.969
-55.246	538.147	1411.064	3308.246
-54.232	152.699	2598.872	3502.588
-53.217	112.221	2164.370	2580.857
-52.203	44.547	1618.412	1466.839
-51.188	36.462	1353.941	1178.048
-50.173	33.212	1311.672	1121.987
-49.159	56.245	1359.348	1302.155
-48.144	58.195	1375.627	1329.433
-47.130	36.636	1333.164	1160.831
-46.115	33.126	1315.863	1124.880
-45.100	33.004	1311.240	1120.161
-44.086	32.771	1309.096	1116.901
-43.071	32.820	1306.934	1115.303
-42.057	32.760	1304.635	1112.943
-41.042	32.852	1303.267	1112.278
-40.027	32.870	1301.472	1110.805
-39.013	32.840	1299.922	1109.261
-37.998	32.830	1298.124	1107.628
-36.984	32.815	1296.732	1106.307
-35.969	32.994	1294.160	1105.114
-34.954	33.014	1292.544	1103.808
-33.940	32.981	1291.306	1102.518
-32.925	32.932	1290.119	1101.170
-31.911	33.032	1288.244	1100.108
-30.896	33.083	1286.450	1098.832
-29.881	32.901	1286.062	1097.398
-28.867	33.141	1283.803	1096.821
-27.852	33.166	1282.466	1095.776
-26.838	33.091	1281.088	1094.122
-25.823	33.168	1280.026	1093.619
-24.809	33.086	1278.440	1091.746
-23.794	32.902	1277.511	1089.848
-22.779	32.970	1276.118	1089.006
-21.765	33.045	1274.857	1088.319
-20.750	32.980	1273.373	1086.636
-19.736	32.817	1272.686	1085.068
-18.721	32.895	1271.177	1084.188
-17.706	32.868	1269.963	1082.954
-16.692	32.941	1269.117	1082.612
-15.677	32.863	1267.885	1081.070
-14.663	32.793	1266.729	1079.642
-13.648	32.739	1266.365	1078.979
-12.633	32.792	1264.669	1077.793
-11.619	32.885	1264.045	1077.750
-10.604	32.906	1263.005	1076.941
-9.590	32.758	1261.801	1075.024
-8.575	32.740	1261.268	1074.425
-7.560	32.927	1259.922	1074.305
-6.546	32.797	1259.316	1073.004
-5.531	32.876	1258.395	1072.626
-4.517	32.775	1257.760	1071.469
-3.502	32.922	1256.641	1071.303
-2.487	32.883	1255.860	1070.377
-1.473	32.866	1252.077	1067.011
-0.458	31.769	1237.417	1048.345
0.556	28.375	1220.240	1011.974
1.571	24.756	1225.969	996.515
2.586	24.003	1241.223	1004.575
3.600	23.355	1229.924	991.714
4.615	16.655	1156.061	896.704
5.629	6.435	1078.384	785.632
6.644	2.048	1058.034	749.237
7.659	1.624	1055.780	745.500
8.673	1.434	1054.465	743.573
9.688	1.516	1052.913	742.816
10.702	1.734	1051.457	742.783
11.717	7.999	1059.933	779.439
12.731	18.212	1075.610	841.371
13.746	23.849	1081.920	874.034
14.761	25.121	1082.801	880.926
15.775	25.084	1082.497	880.418
16.790	24.751	1081.604	877.977
17.804	24.723	1081.482	877.665
18.819	24.775	1081.434	877.800
19.834	25.030	1080.692	878.370
20.848	25.081	1080.512	878.396
21.863	25.031	1079.685	877.405
22.877	24.991	1078.977	876.552
23.892	24.967	1078.277	875.790
24.907	24.899	1077.768	874.966
25.921	25.061	1076.356	874.534
26.936	25.065	1075.506	873.788
27.950	24.980	1073.467	871.640
28.965	24.834	1071.736	869.446
29.980	24.827	1070.345	868.207
30.994	25.067	1069.250	868.406
32.009	25.120	1068.113	867.661
33.023	24.937	1067.129	865.900
34.038	24.836	1067.109	865.319
35.053	24.956	1066.321	865.185
36.067	24.998	1065.051	864.281
37.082	25.164	1064.550	864.597
38.096	25.213	1064.162	864.441
39.111	25.340	1062.861	863.920
40.126	25.163	1061.232	861.669
41.140	24.769	1059.672	858.437
42.155	24.467	1058.671	856.100
43.169	24.655	1057.426	855.920
44.184	24.541	1056.910	854.878
45.199	24.604	1055.531	853.988
46.213	24.725	1054.989	854.054
47.228	24.846	1054.229	853.940
48.242	24.944	1053.181	853.485
49.257	24.986	1052.931	853.406
50.271	25.062	1052.130	853.043
51.286	25.253	1050.458	852.519
52.301	25.094	1050.181	851.465
53.315	24.996	1049.025	849.987
54.330	25.090	1048.188	849.677
55.344	25.080	1047.365	848.889
56.359	24.943	1046.898	847.786
57.374	24.855	1045.630	846.269
58.388	24.802	1044.963	845.402
59.403	24.786	1043.994	844.469
60.417	24.623	1043.043	842.857
61.432	24.696	1042.220	842.461
62.447	24.725	1042.230	842.528
63.461	24.765	1041.438	842.004
64.476	24.777	1040.295	841.061
65.490	24.803	1038.786	839.889
66.505	24.667	1038.378	838.848
67.520	24.726	1037.829	838.607
68.534	24.488	1037.106	836.833
69.549	24.181	1035.736	834.213
70.563	24.270	1034.799	833.801
71.578	24.337	1033.644	833.113
72.593	24.074	1033.508	831.698
73.607	24.284	1032.655	831.922
74.622	24.535	1032.201	832.651
75.636	24.486	1031.739	831.977
76.651	24.503	1030.165	830.713
77.666	24.391	1029.953	829.947
78.680	24.508	1029.095	829.727
79.695	24.521	1028.501	829.232
80.709	24.576	1028.151	829.134
81.724	24.609	1027.028	828.306
82.739	24.632	1026.575	827.976
83.753	25.049	1025.830	829.230
84.768	25.331	1025.066	829.842
85.782	25.445	1024.367	829.730
86.797	25.310	1023.352	828.213
87.812	25.222	1021.898	826.558
88.826	25.276	1021.151	826.130
89.841	25.480	1019.683	825.806
90.855	25.398	1019.256	825.009
91.870	25.330	1018.431	823.957
92.884	25.151	1017.060	821.954
93.899	25.105	1015.907	820.741
94.914	25.295	1015.572	821.265
95.928	25.242	1014.118	819.774
96.943	24.768	1013.649	817.159
97.957	24.577	1012.330	815.150
98.972	24.503	1011.194	813.827
99.987	24.733	1010.422	814.180
101.001	25.007	1009.455	814.576
102.016	24.964	1008.887	813.853
103.030	24.914	1008.181	812.983
104.045	24.773	1007.119	811.414
105.060	24.609	1006.261	809.908
106.074	24.827	1005.335	810.078
107.089	25.088	1005.386	811.228
108.103	24.902	1003.771	809.013
109.118	24.768	1002.474	807.292
110.133	24.868	1001.101	806.565
111.147	24.507	1000.620	804.481
112.162	24.441	999.328	803.074
113.176	24.653	998.947	803.650
114.191	24.603	998.007	802.596
115.206	24.245	997.384	800.419
116.220	24.190	996.376	799.293
117.235	24.371	995.765	799.540
118.249	24.402	995.129	799.098
119.264	24.420	993.849	798.080
120.279	24.405	993.295	797.497
121.293	24.487	992.321	797.011
122.308	24.516	991.539	796.443
123.322	24.355	990.435	794.769
124.337	24.250	989.329	793.344
125.352	23.814	987.751	790.069
126.366	23.764	986.378	788.678
127.381	24.500	986.701	792.136
128.395	24.801	986.481	793.223
129.410	24.907	985.681	792.979
130.424	24.823	984.685	791.735
131.439	24.800	983.900	790.935
132.454	24.962	982.396	790.369
133.468	24.913	981.722	789.543
134.483	24.985	981.138	789.319
135.497	25.052	980.642	789.147
136.512	25.166	979.418	788.591
137.527	25.198	978.541	787.956
138.541	25.219	978.121	787.639
139.556	24.985	977.525	786.063
140.570	25.244	976.161	786.033
141.585	25.323	974.915	785.303
142.600	25.257	973.793	784.044
143.614	25.404	973.628	784.485
144.629	25.544	972.510	784.124
145.643	25.250	971.799	782.201
146.658	25.095	970.353	780.292
147.673	25.140	968.863	779.222
148.687	25.042	968.399	778.353
149.702	24.919	967.484	777.013
150.716	24.875	966.932	776.314
151.731	25.059	966.229	776.478
152.746	25.278	965.609	776.859
153.760	25.489	964.661	776.940
154.775	25.489	964.211	776.506
155.789	25.389	963.156	775.158
156.804	25.362	962.170	774.178
157.819	25.435	961.270	773.699
158.833	25.542	960.819	773.730
159.848	25.527	959.991	772.931
160.862	25.344	958.880	771.180
161.877	25.388	957.999	770.593
162.892	25.417	956.850	769.725
163.906	25.272	955.739	768.143
164.921	25.394	954.558	767.646
165.935	25.332	954.009	766.873
166.950	25.418	953.167	766.497
167.964	25.447	952.332	765.881
168.979	25.201	951.305	763.936
169.994	25.331	950.192	763.529
171.008	25.435	949.900	763.671
172.023	25.439	949.103	762.979
173.037	25.238	948.097	761.251
174.052	24.991	947.270	759.472
175.067	25.084	946.566	759.232
176.081	25.275	945.764	759.333
177.096	25.226	944.730	758.225
178.110	24.914	944.028	756.278
179.125	24.650	943.402	754.598
180.140	24.809	943.090	754.951
181.154	24.863	943.281	755.263
182.169	25.157	942.918	756.147
183.183	25.360	942.457	756.564
184.198	25.258	941.441	755.252
185.213	25.258	940.508	754.440
186.227	25.414	939.707	754.382
187.242	25.436	939.594	754.321
188.256	25.501	938.837	753.917
189.271	25.420	938.147	752.956
190.286	25.080	937.100	750.627
191.300	24.521	935.416	746.875
192.315	23.741	934.049	742.458
193.329	23.744	933.546	742.004
194.344	24.619	934.131	746.060
195.359	25.117	934.142	748.080
196.373	25.264	933.526	748.134
197.388	25.324	932.956	747.860
198.402	25.244	932.353	746.979
199.417	25.294	932.037	746.865
200.432	25.042	930.535	744.549
201.446	24.834	930.482	743.575
202.461	24.925	929.663	743.237
203.475	24.009	927.880	737.949
204.490	23.241	926.412	733.535
205.504	24.249	926.450	737.674
206.519	24.825	926.255	739.835
207.534	24.803	926.313	739.727
208.548	25.372	925.756	741.566
209.563	25.103	925.062	739.834
210.577	24.989	924.439	738.797
211.592	25.440	924.142	740.356
212.607	25.371	923.404	739.415
213.621	25.427	922.557	738.902
214.636	25.410	921.848	738.199
215.650	25.398	921.267	737.617
216.665	25.517	920.740	737.621
217.680	25.380	919.890	736.312
218.694	24.980	918.658	733.621
219.709	24.791	918.417	732.591
220.723	25.047	917.498	732.838
221.738	25.251	916.978	733.194
222.753	25.289	916.340	732.772
223.767	25.251	916.112	732.371
224.782	25.610	915.993	733.676
225.796	25.484	915.422	732.642
226.811	24.908	913.809	728.940
227.826	24.313	912.263	725.224
228.840	24.529	911.599	725.510
229.855	24.552	910.958	725.026
230.869	24.137	910.154	722.641
231.884	24.496	910.425	724.250
232.899	25.231	910.364	727.115
233.913	25.165	909.531	726.118
234.928	25.143	909.235	725.729
235.942	25.145	908.323	724.944
236.957	24.707	907.793	722.686
237.972	24.857	906.948	722.557
238.986	25.028	906.238	722.619
240.001	24.835	906.232	721.768
241.015	24.920	905.529	721.488
242.030	25.274	904.941	722.382
243.045	25.245	904.767	722.061
244.059	25.261	904.499	721.850
245.074	25.208	903.099	720.456
246.088	24.970	902.128	718.660
247.103	25.203	901.569	719.086
248.117	25.731	901.681	721.228
249.132	26.068	901.264	722.179
250.147	25.915	901.279	721.514
251.161	26.261	900.282	722.038
252.176	26.216	899.356	721.050
253.190	26.107	899.100	720.348
254.205	26.347	898.766	720.974
255.220	26.279	898.163	720.155
256.234	26.125	897.204	718.707
257.249	26.161	896.315	718.076
258.263	26.123	895.934	717.557
259.278	26.302	895.262	717.665
260.293	26.205	895.077	717.070
261.307	26.069	894.278	715.825
262.322	25.958	893.279	714.522
263.336	25.121	891.679	709.869
264.351	24.136	889.574	704.235
265.366	24.318	889.170	704.573
266.380	25.419	889.948	709.478
267.395	25.818	889.529	710.657
268.409	25.688	889.059	709.703
269.424	25.905	888.781	710.277
270.439	25.831	888.143	709.411
271.453	26.068	886.990	709.359
272.468	26.044	887.341	709.484
273.482	26.268	886.603	709.712
274.497	25.820	885.391	706.921
275.512	25.512	884.363	704.830
276.526	25.807	884.399	705.951
277.541	26.111	884.054	706.803
278.555	25.790	883.336	704.910
279.570	25.712	882.855	704.159
280.585	25.757	882.072	703.651
281.599	25.713	881.491	702.953
282.614	25.202	879.802	699.549
283.628	25.379	879.312	699.787
284.643	25.626	879.290	700.670
285.657	25.196	878.018	697.922
286.672	24.975	876.812	696.044
287.687	25.403	877.454	698.157
288.701	25.488	876.994	698.057
289.716	25.152	876.065	695.954
290.730	25.193	874.983	695.193
291.745	24.923	874.169	693.436
292.760	25.221	874.424	694.732
293.774	26.141	874.829	698.556
294.789	26.561	873.999	699.452
295.803	26.540	874.016	699.325
296.818	26.547	873.062	698.528
297.833	26.222	872.053	696.404
298.847	26.018	871.030	694.738
299.862	26.222	871.194	695.594
300.876	26.490	871.275	696.629
301.891	26.440	870.057	695.401
302.906	26.005	869.280	693.047
303.920	26.143	869.219	693.467
304.935	26.502	869.123	694.710
305.949	26.368	868.289	693.468
306.964	26.105	867.365	691.661
307.979	26.245	866.643	691.559
308.993	26.637	866.772	693.100
310.008	26.688	866.301	692.860
311.022	26.345	865.256	690.652
312.037	26.160	864.953	689.643
313.052	26.084	863.423	688.070
314.066	25.083	861.775	682.884
315.081	24.677	861.161	680.793
316.095	25.573	861.809	684.658
317.110	26.017	861.519	686.055
318.125	25.197	859.954	681.633
319.139	24.250	858.274	676.649
320.154	24.141	858.357	676.242
321.168	25.135	858.267	679.879
322.183	25.728	858.959	682.619
323.197	26.176	858.104	683.575
324.212	26.266	857.784	683.600
325.227	26.216	857.242	682.920
326.241	25.993	856.667	681.559
327.256	25.985	855.857	680.824
328.270	25.874	855.444	680.016
329.285	25.833	854.196	678.808
330.300	25.583	853.814	677.504
331.314	25.832	853.591	678.204
332.329	26.278	853.632	679.856
333.343	26.207	853.503	679.426
334.358	26.375	852.474	679.178
335.373	26.424	852.487	679.311
336.387	26.582	852.000	679.456
337.402	26.827	851.960	680.283
338.416	26.676	851.672	679.425
339.431	26.837	851.149	679.552
340.446	27.075	850.996	680.262
341.460	26.612	851.148	678.587
342.475	26.701	849.793	677.781
343.489	26.885	849.408	678.102
344.504	27.139	848.950	678.626
345.519	27.264	848.799	678.912
346.533	27.169	848.462	678.226
347.548	27.204	848.074	677.987
348.562	27.116	847.317	676.994
349.577	27.133	846.672	676.483
350.592	27.060	846.188	675.764
351.606	26.950	845.669	674.880
352.621	26.963	844.330	673.799
353.635	26.802	843.615	672.575
354.650	26.205	842.102	669.097
355.665	25.283	840.945	664.704
356.679	25.830	840.490	666.310
357.694	26.243	840.265	667.601
358.708	26.046	839.567	666.257
359.723	26.482	839.709	667.923
360.738	26.742	839.242	668.450
361.752	26.916	838.703	668.604
362.767	27.133	838.593	669.257
363.781	27.405	838.357	670.011
364.796	27.522	837.849	669.973
365.810	27.549	837.571	669.792
366.825	27.481	836.704	668.791
367.840	27.321	835.931	667.525
368.854	26.905	834.821	665.057
369.869	26.811	834.877	664.697
370.883	26.911	834.331	664.571
371.898	26.901	833.812	664.061
372.913	27.025	833.518	664.220
373.927	27.106	833.691	664.597
374.942	27.133	833.114	664.176
375.956	27.224	832.622	664.059
376.971	27.440	832.191	664.443
377.986	27.457	831.758	664.103
379.000	27.368	831.084	663.180
380.015	27.267	830.005	661.893
381.029	27.380	829.866	662.136
382.044	27.471	829.293	661.950
383.059	27.552	828.640	661.664
384.073	27.542	828.423	661.396
385.088	27.540	827.730	660.777
386.102	27.191	826.993	658.867
387.117	27.220	826.322	658.377
388.132	26.919	825.187	656.327
389.146	26.396	824.101	653.517
390.161	26.708	824.513	654.910
391.175	27.193	824.178	656.340
392.190	26.860	822.943	654.096
393.205	25.383	820.660	646.910
394.219	23.972	819.272	640.683
395.234	23.907	819.054	640.221
396.248	25.681	820.213	647.458
397.263	27.063	821.347	653.271
398.278	27.011	820.532	652.377
399.292	26.701	820.094	650.858
400.307	26.647	819.712	650.303
401.321	26.809	819.151	650.381
402.336	27.316	819.122	652.119
403.350	27.637	819.081	653.181
404.365	27.962	818.859	654.106
405.380	28.202	818.569	654.678
406.394	28.367	818.035	654.783
407.409	28.217	817.359	653.649
408.423	27.964	817.647	652.914
409.438	28.180	816.986	653.101
410.453	28.188	816.232	652.471
411.467	28.120	815.970	651.958
412.482	28.210	815.670	651.983
413.496	28.277	815.299	651.867
414.511	28.362	814.653	651.596
415.526	28.191	814.551	650.848
416.540	28.058	813.384	649.387
417.555	27.913	812.721	648.283
418.569	27.844	812.482	647.793
419.584	27.739	812.012	646.986
420.599	27.756	811.305	646.426
421.613	109.150	1285.243	1454.665
422.628	94.375	1354.287	1454.746
