DTS Sentinel unit serial number:	SN413079Multiplexer serial number:	ORYXHardware model number:	OX4-SRSoftware version number:	ORYX F/W v4.00 Oryx Data Collector v3.7.2.0data status	okinstallation	princeton_trtdifferential loss correction	single-endedforward channel	channel 1reverse channel	N/Adate	2019/09/12time	15:28:11forward acquisition time	60.00reverse acquisition time	0.00gamma	496.2192k internal	0.2292k external	0.2292temperature offset calibration	1.0062default loss term (dB/km)	0.3790temperature slope calibration	1.0000multiplexer offset coefficient	1.0000multiplexer slope coefficient	1.0000fibre end	0.00T internal ref (°C)	40.66T ext. ref 1 (°C)	2.38T ext. ref 2 (°C)	34.03length (m)	temperature (°C)	Stokes	anti-Stokes-747.200	-72.771	0.337	0.127
-746.185	-15.115	-0.130	0.085
-745.171	54.628	-0.085	-0.084
-744.156	-200.000	-0.056	0.397
-743.142	560.277	0.080	-0.199
-742.127	477.656	-0.128	0.295
-741.112	-52.032	0.264	-0.126
-740.098	58.265	0.038	-0.038
-739.083	-163.576	-0.247	0.012
-738.069	306.390	0.151	0.288
-737.054	-17.367	0.357	-0.230
-736.039	-200.000	0.030	0.286
-735.025	-114.233	0.059	0.012
-734.010	-148.794	-0.161	-0.013
-732.996	131.015	0.124	-0.162
-731.981	658.562	-0.166	-0.437
-730.966	-105.549	-0.242	0.056
-729.952	-128.510	-0.201	-0.029
-728.937	-200.000	-0.036	0.240
-727.923	-141.865	-0.391	-0.040
-726.908	32.501	-0.183	-0.162
-725.894	7.760	0.063	-0.048
-724.879	90.895	0.101	0.116
-723.864	-118.445	0.151	-0.027
-722.850	-47.216	0.069	-0.034
-721.835	-30.615	-0.213	-0.124
-720.821	7.141	-0.035	-0.027
-719.806	-159.717	0.218	-0.012
-718.791	-26.857	-0.362	-0.216
-717.777	-60.901	0.007	-0.003
-716.762	800.000	-0.135	-0.450
-715.748	-86.880	0.065	0.020
-714.733	-174.220	-0.173	-0.005
-713.718	28.700	0.193	0.167
-712.704	-200.000	-0.009	0.178
-711.689	-45.669	-0.176	-0.089
-710.675	192.926	0.121	0.186
-709.660	-148.854	-0.049	0.004
-708.645	-165.023	-0.239	0.011
-707.631	-200.000	-0.006	-0.151
-706.616	800.000	0.073	-0.219
-705.602	489.023	-0.149	-0.347
-704.587	-166.927	0.150	0.006
-703.572	-155.743	0.182	0.012
-702.558	-200.000	0.064	0.355
-701.543	800.000	0.057	0.181
-700.529	-109.967	-0.313	-0.067
-699.514	21.658	-0.079	-0.066
-698.499	-20.769	-0.113	-0.071
-697.485	237.473	0.150	-0.255
-696.470	51.055	-0.232	0.224
-695.456	-200.000	0.055	-0.253
-694.441	30.755	0.205	-0.179
-693.426	-95.290	-0.201	-0.055
-692.412	-200.000	-0.032	-0.228
-691.397	242.738	0.047	0.080
-690.383	58.217	0.116	-0.116
-689.368	-5.019	-0.409	0.288
-688.354	185.903	-0.091	0.138
-687.339	-121.395	0.115	0.019
-686.324	25.293	0.150	0.128
-685.310	-35.386	-0.292	0.162
-684.295	-200.000	-0.004	-0.199
-683.281	-85.768	-0.178	-0.056
-682.266	320.690	0.087	0.169
-681.251	-73.197	0.204	-0.076
-680.237	-200.000	-0.307	-0.001
-679.222	1.080	-0.095	0.070
-678.208	-68.695	-0.195	-0.077
-677.193	170.299	0.078	-0.114
-676.178	114.485	0.133	-0.165
-675.164	265.544	0.067	0.120
-674.149	-70.444	-0.135	0.052
-673.135	568.722	0.129	-0.320
-672.120	429.627	-0.063	-0.140
-671.105	-200.000	0.009	0.095
-670.091	-95.842	0.198	-0.054
-669.076	-122.448	0.211	-0.035
-668.062	-146.320	0.105	0.009
-667.047	-200.000	0.007	-0.161
-666.032	-153.026	0.185	0.013
-665.018	-162.598	0.295	-0.015
-664.003	-119.553	-0.433	0.077
-662.989	800.000	0.054	0.213
-661.974	-200.000	-0.027	-0.226
-660.959	-16.619	0.334	-0.216
-659.945	-200.000	0.007	-0.221
-658.930	-198.380	-0.347	-0.002
-657.916	-96.857	0.245	-0.066
-656.901	-161.984	-0.106	-0.005
-655.886	2.613	0.404	0.299
-654.872	87.576	0.168	0.190
-653.857	115.808	-0.253	0.316
-652.843	-62.801	-0.151	-0.064
-651.828	-200.000	0.007	0.200
-650.814	-60.514	0.381	-0.165
-649.799	-200.000	-0.008	0.173
-648.784	93.033	-0.195	0.225
-647.770	-26.115	-0.161	-0.096
-646.755	-200.000	0.000	0.051
-645.741	180.433	0.115	-0.172
-644.726	-200.000	-0.030	-0.204
-643.711	67.397	-0.027	-0.029
-642.697	-28.869	-0.338	-0.198
-641.682	18.106	0.261	-0.212
-640.668	-131.310	0.169	-0.023
-639.653	88.234	0.181	0.205
-638.638	-112.384	-0.139	0.028
-637.624	-200.000	0.033	-0.178
-636.609	-175.426	0.034	0.001
-635.595	-26.894	0.239	0.142
-634.580	-143.546	-0.344	-0.033
-633.565	-200.000	-0.025	-0.119
-632.551	-105.603	-0.315	-0.073
-631.536	-22.790	-0.064	-0.039
-630.522	800.000	-0.072	-0.235
-629.507	-38.347	-0.074	0.040
-628.492	-175.622	0.219	-0.006
-627.478	577.317	0.136	-0.339
-626.463	45.423	0.306	-0.288
-625.449	800.000	-0.020	0.057
-624.434	-113.871	0.094	-0.019
-623.419	92.235	-0.074	-0.085
-622.405	-100.923	-0.267	-0.067
-621.390	-20.473	0.269	-0.168
-620.376	-200.000	-0.064	0.317
-619.361	94.167	0.103	-0.119
-618.346	374.051	0.142	-0.295
-617.332	413.814	0.081	-0.175
-616.317	-142.739	0.459	0.046
-615.303	-200.000	-0.031	0.180
-614.288	-106.089	-0.332	-0.076
-613.273	290.305	-0.108	-0.200
-612.259	-200.000	0.017	-0.216
-611.244	-22.299	-0.371	-0.229
-610.230	75.439	0.063	-0.068
-609.215	-10.788	-0.248	0.167
-608.201	-200.000	-0.018	-0.343
-607.186	800.000	-0.053	0.222
-606.171	800.000	-0.039	-0.133
-605.157	-136.726	-0.152	0.018
-604.142	-155.371	-0.202	-0.013
-603.128	15.030	0.158	0.126
-602.113	263.359	-0.072	-0.128
-601.098	-190.122	0.297	-0.003
-600.084	42.309	-0.036	-0.034
-599.069	-107.577	-0.213	0.047
-598.055	800.000	-0.056	-0.174
-597.040	800.000	-0.035	-0.108
-596.025	80.496	0.230	-0.252
-595.011	-12.343	0.113	0.075
-593.996	178.163	-0.140	0.208
-592.982	19.441	-0.249	-0.204
-591.967	-62.896	-0.329	-0.139
-590.952	116.487	-0.222	-0.277
-589.938	-59.576	-0.280	0.122
-588.923	-8.207	-0.245	-0.168
-587.909	-156.771	0.158	-0.010
-586.894	209.140	0.101	0.161
-585.879	-97.381	-0.145	0.039
-584.865	401.665	-0.116	-0.247
-583.850	-5.132	0.060	-0.042
-582.836	-200.000	0.017	-0.091
-581.821	-200.000	0.054	-0.323
-580.806	10.269	0.216	0.167
-579.792	800.000	0.099	0.374
-578.777	101.239	0.143	-0.169
-577.763	800.000	-0.030	-0.106
-576.748	-21.358	0.203	0.126
-575.733	91.601	-0.042	0.048
-574.719	735.981	-0.115	-0.314
-573.704	-200.000	-0.013	0.262
-572.690	32.932	0.176	0.155
-571.675	233.279	-0.031	0.051
-570.661	1.557	0.169	-0.124
-569.646	-94.344	0.310	-0.086
-568.631	-81.215	-0.482	0.162
-567.617	-42.830	-0.146	0.076
-566.602	-200.000	-0.018	0.173
-565.588	-18.151	-0.185	-0.118
-564.573	-177.487	-0.111	-0.003
-563.558	505.474	-0.055	-0.130
-562.544	220.528	-0.266	-0.434
-561.529	800.000	0.087	-0.300
-560.515	-138.098	0.129	0.015
-559.500	-21.454	-0.283	-0.175
-558.485	211.585	0.139	-0.223
-557.471	8.045	-0.150	0.114
-556.456	-65.622	-0.563	0.229
-555.442	800.000	-0.079	-0.275
-554.427	-114.107	-0.132	0.026
-553.412	-22.608	0.267	0.164
-552.398	-111.921	-0.089	-0.018
-551.383	433.770	0.134	-0.296
-550.369	-178.792	-0.209	-0.005
-549.354	-105.485	-0.119	0.028
-548.339	-200.000	0.023	-0.213
-547.325	48.652	-0.162	-0.155
-546.310	450.689	-0.083	0.187
-545.296	83.229	0.107	0.119
-544.281	-98.803	-0.210	-0.054
-543.266	421.456	-0.072	-0.157
-542.252	800.000	-0.127	-0.381
-541.237	-100.314	-0.181	-0.046
-540.223	132.988	-0.195	0.255
-539.208	-135.164	0.182	-0.022
-538.193	-113.054	-0.121	-0.024
-537.179	800.000	0.070	-0.212
-536.164	-75.702	0.211	-0.076
-535.150	-43.521	0.265	-0.136
-534.135	-200.000	-0.002	-0.089
-533.121	-42.541	-0.197	0.102
-532.106	180.069	-0.086	0.127
-531.091	800.000	0.056	-0.205
-530.077	-48.670	0.057	-0.028
-529.062	287.399	-0.034	-0.062
-528.048	800.000	-0.069	0.213
-527.033	659.645	0.115	0.299
-526.018	119.021	-0.274	0.343
-525.004	-8.506	-0.140	-0.096
-523.989	108.153	-0.109	0.132
-522.975	-131.140	-0.120	-0.016
-521.960	49.821	0.022	0.021
-520.945	-200.000	0.030	-0.277
-519.931	-200.000	0.061	-0.298
-518.916	123.275	0.135	-0.171
-517.902	-200.000	0.011	-0.148
-516.887	-166.878	-0.275	0.011
-515.872	800.000	0.066	0.229
-514.858	173.800	-0.037	-0.055
-513.843	-100.963	-0.405	0.101
-512.829	190.435	0.112	-0.170
-511.814	284.058	0.132	-0.242
-510.799	166.460	-0.076	-0.109
-509.785	-142.990	0.093	-0.009
-508.770	191.734	-0.064	-0.097
-507.756	-72.511	-0.032	0.012
-506.741	-62.687	-0.124	0.052
-505.726	-200.000	-0.033	-0.228
-504.712	-140.499	-0.223	-0.024
-503.697	160.615	0.159	-0.226
-502.683	-200.000	0.037	-0.446
-501.668	800.000	-0.049	0.217
-500.653	204.281	0.278	0.436
-499.639	-200.000	0.028	0.209
-498.624	769.093	0.041	-0.112
-497.610	184.295	0.014	0.021
-496.595	-200.000	0.045	-0.405
-495.581	800.000	-0.084	0.265
-494.566	216.440	0.011	-0.018
-493.551	15.879	0.092	-0.073
-492.537	-200.000	0.023	-0.353
-491.522	-200.000	-0.026	-0.307
-490.508	-53.836	-0.315	-0.146
-489.493	153.555	0.059	0.082
-488.478	800.000	0.050	0.165
-487.464	-91.285	0.267	-0.077
-486.449	-200.000	-0.054	0.347
-485.435	-36.412	0.132	-0.072
-484.420	-163.121	0.176	-0.009
-483.405	-178.325	-0.247	0.006
-482.391	92.817	0.075	-0.086
-481.376	25.496	0.138	0.116
-480.362	-200.000	0.003	0.145
-479.347	-200.000	0.011	-0.407
-478.332	698.707	0.047	-0.126
-477.318	-138.855	0.158	-0.017
-476.303	-200.000	0.014	-0.112
-475.289	-82.329	-0.078	0.026
-474.274	-200.000	-0.058	0.448
-473.259	-94.570	0.192	0.053
-472.245	-115.968	0.169	0.032
-471.230	800.000	-0.016	0.068
-470.216	129.829	0.109	-0.141
-469.201	-24.249	-0.267	0.162
-468.186	-143.171	0.409	-0.040
-467.172	4.098	-0.153	-0.114
-466.157	16.568	-0.039	-0.031
-465.143	800.000	0.037	-0.152
-464.128	-56.114	0.222	0.100
-463.113	-82.885	-0.312	-0.102
-462.099	320.159	0.065	0.126
-461.084	-177.087	0.143	0.004
-460.070	4.773	0.155	-0.116
-459.055	55.500	-0.131	0.128
-458.040	65.716	0.063	-0.065
-457.026	38.776	-0.167	-0.151
-456.011	330.951	0.031	0.061
-454.997	-200.000	-0.040	-0.551
-453.982	303.575	0.148	0.278
-452.968	-200.000	-0.010	0.094
-451.953	-92.917	-0.128	-0.036
-450.938	-9.720	0.023	0.015
-449.924	144.787	-0.156	-0.211
-448.909	-165.662	0.191	0.008
-447.895	-200.000	-0.033	0.182
-446.880	381.042	0.025	0.051
-445.865	97.503	-0.177	0.206
-444.851	209.959	-0.148	-0.234
-443.836	-109.115	-0.089	-0.019
-442.822	-10.680	0.048	0.032
-441.807	-200.000	0.004	0.164
-440.792	200.683	-0.104	0.162
-439.778	-200.000	-0.022	-0.124
-438.763	-72.361	-0.252	-0.094
-437.749	178.619	-0.108	-0.159
-436.734	-66.468	-0.138	0.055
-435.719	-200.000	-0.013	0.266
-434.705	-200.000	-0.007	-0.074
-433.690	374.118	-0.200	-0.412
-432.676	-125.148	0.136	-0.021
-431.661	-184.028	-0.161	0.003
-430.646	-30.797	0.248	-0.142
-429.632	510.212	0.046	0.109
-428.617	-200.000	-0.106	0.544
-427.603	103.201	-0.165	0.195
-426.588	25.325	0.074	0.062
-425.573	277.679	-0.116	-0.209
-424.559	122.898	0.148	0.187
-423.544	-101.774	-0.227	0.056
-422.530	-200.000	0.001	0.135
-421.515	36.669	-0.110	-0.098
-420.500	330.907	-0.016	-0.031
-419.486	-200.000	-0.004	-0.143
-418.471	313.358	0.134	-0.254
-417.457	76.540	-0.205	0.219
-416.442	309.002	0.076	0.143
-415.428	-167.010	-0.128	-0.005
-414.413	-118.621	0.319	-0.057
-413.398	-29.702	0.211	0.122
-412.384	-169.250	-0.479	0.018
-411.369	-200.000	-0.042	-0.212
-410.355	86.226	-0.136	-0.152
-409.340	-103.335	-0.214	0.051
-408.325	-138.076	-0.081	0.009
-407.311	-200.000	0.010	-0.050
-406.296	220.521	-0.158	-0.256
-405.282	69.636	0.069	-0.072
-404.267	-92.325	-0.396	-0.113
-403.252	-80.278	-0.121	0.041
-402.238	-120.067	0.218	-0.038
-401.223	-76.680	-0.201	0.071
-400.209	3.451	-0.196	0.144
-399.194	117.229	0.152	0.188
-398.179	-200.000	0.041	0.199
-397.165	-26.930	-0.120	0.071
-396.150	58.846	0.146	0.145
-395.136	-77.400	0.203	0.071
-394.121	5.601	-0.072	0.054
-393.106	767.365	0.056	0.154
-392.092	-92.183	-0.209	-0.060
-391.077	-54.918	-0.087	-0.040
-390.063	800.000	0.028	0.118
-389.048	-73.611	0.078	-0.029
-388.033	109.775	-0.115	0.139
-387.019	99.028	0.136	-0.159
-386.004	-200.000	0.024	-0.326
-384.990	-87.819	-0.374	0.114
-383.975	-30.172	0.096	-0.055
-382.960	-66.088	-0.168	-0.068
-381.946	89.484	-0.185	0.208
-380.931	800.000	0.053	-0.188
-379.917	-32.769	-0.244	0.137
-378.902	1.829	0.057	-0.042
-377.888	796.794	-0.124	0.344
-376.873	393.818	-0.100	0.211
-375.858	144.377	0.216	0.290
-374.844	-131.833	0.076	0.010
-373.829	175.938	-0.079	-0.115
-372.815	-7.781	0.259	-0.177
-371.800	-200.000	-0.008	-0.307
-370.785	85.006	-0.286	-0.316
-369.771	-140.335	-0.059	-0.006
-368.756	-131.454	0.414	0.055
-367.742	379.602	-0.052	-0.108
-366.727	69.488	0.278	-0.289
-365.712	800.000	0.095	0.329
-364.698	800.000	0.051	0.185
-363.683	-200.000	0.022	-0.177
-362.669	41.254	-0.191	0.174
-361.654	800.000	-0.080	-0.314
-360.639	65.983	-0.030	-0.031
-359.625	52.706	-0.079	-0.076
-358.610	-64.096	0.329	0.135
-357.596	-134.612	-0.189	0.023
-356.581	-200.000	0.009	0.272
-355.566	-116.699	0.053	-0.010
-354.552	14.927	-0.134	0.105
-353.537	-119.308	0.112	-0.020
-352.523	-108.662	-0.464	0.100
-351.508	12.564	-0.107	0.084
-350.493	138.959	0.247	-0.327
-349.479	-200.000	-0.046	0.249
-348.464	-200.000	0.019	0.260
-347.450	555.972	-0.055	-0.134
-346.435	142.342	-0.113	0.151
-345.420	-36.868	0.297	-0.161
-344.406	125.293	0.255	-0.324
-343.391	-76.663	0.129	-0.046
-342.377	800.000	-0.015	0.052
-341.362	-200.000	-0.002	0.347
-340.348	130.386	0.060	0.077
-339.333	800.000	0.029	-0.080
-338.318	-200.000	0.036	0.204
-337.304	9.958	-0.419	0.321
-336.289	396.427	-0.111	0.233
-335.275	-200.000	0.068	-0.345
-334.260	58.269	-0.075	-0.075
-333.245	-200.000	-0.072	0.464
-332.231	-200.000	0.010	0.156
-331.216	-145.323	0.083	-0.008
-330.202	800.000	-0.045	0.158
-329.187	-142.864	-0.087	0.009
-328.172	-126.193	-0.229	0.034
-327.158	-131.795	0.315	0.041
-326.143	800.000	0.063	-0.224
-325.129	60.972	-0.295	0.294
-324.114	27.579	0.186	-0.157
-323.099	-48.519	0.580	0.281
-322.085	589.609	-0.045	-0.112
-321.070	-90.637	-0.037	0.011
-320.056	487.375	-0.190	0.437
-319.041	132.826	0.092	0.119
-318.026	-85.844	0.387	0.121
-317.012	-174.724	0.476	0.014
-315.997	243.286	0.086	0.145
-314.983	-200.000	-0.039	0.250
-313.968	-112.120	0.272	0.055
-312.953	800.000	0.136	0.552
-311.939	-103.069	0.038	0.009
-310.924	197.468	0.051	-0.078
-309.910	-24.124	-0.223	-0.134
-308.895	-80.841	0.098	0.033
-307.880	-100.466	0.350	0.087
-306.866	112.426	0.380	-0.463
-305.851	-122.351	0.226	0.037
-304.837	-128.857	0.238	-0.034
-303.822	52.503	-0.405	0.389
-302.807	-200.000	0.023	0.593
-301.793	-116.326	0.197	-0.037
-300.778	723.352	0.084	-0.224
-299.764	266.377	0.086	0.152
-298.749	567.896	0.045	0.109
-297.735	-200.000	0.058	0.301
-296.720	32.582	0.215	-0.187
-295.705	-31.608	0.257	0.145
-294.691	-200.000	-0.004	0.067
-293.676	234.997	-0.169	0.280
-292.662	-32.725	-0.160	-0.090
-291.647	32.978	-0.144	0.125
-290.632	3.527	0.074	-0.054
-289.618	715.321	-0.055	0.147
-288.603	-76.864	0.399	0.140
-287.589	-36.746	-0.088	-0.047
-286.574	60.124	-0.085	-0.084
-285.559	-62.160	0.141	0.059
-284.545	-19.525	-0.031	0.019
-283.530	-200.000	-0.007	0.125
-282.516	-200.000	-0.033	0.186
-281.501	-200.000	-0.093	0.427
-280.486	-106.903	-0.253	0.056
-279.472	117.982	0.136	-0.168
-278.457	-200.000	0.135	0.596
-277.443	161.672	0.041	0.058
-276.428	-200.000	0.006	-0.432
-275.413	-39.816	0.323	0.169
-274.399	-200.000	0.038	0.246
-273.384	45.307	-0.148	0.137
-272.370	-200.000	-0.044	0.221
-271.355	-46.389	-0.203	-0.100
-270.340	21.451	0.281	0.229
-269.326	37.401	-0.119	-0.106
-268.311	104.879	-0.069	-0.081
-267.297	-54.461	0.449	0.205
-266.282	60.071	0.216	0.214
-265.267	-48.460	0.192	-0.093
-264.253	-137.738	0.156	0.018
-263.238	-59.405	-0.246	-0.106
-262.224	71.192	-0.133	0.138
-261.209	18.977	-0.244	0.196
-260.195	800.000	-0.052	-0.151
-259.180	-79.365	-0.263	-0.089
-258.165	-200.000	0.036	0.158
-257.151	-35.854	0.279	-0.151
-256.136	-66.588	0.158	-0.063
-255.122	-98.491	0.281	0.072
-254.107	144.402	0.191	0.256
-253.092	800.000	0.127	-0.375
-252.078	506.535	0.080	-0.187
-251.063	-142.770	0.422	0.041
-250.049	-200.000	-0.058	0.314
-249.034	-141.474	0.125	0.013
-248.019	800.000	0.024	0.104
-247.005	149.455	-0.195	0.265
-245.990	800.000	0.055	0.195
-244.976	-69.026	0.075	0.029
-243.961	12.243	0.107	-0.083
-242.946	800.000	-0.043	0.142
-241.932	-35.561	0.119	-0.065
-240.917	-200.000	0.012	0.179
-239.903	646.897	0.067	0.171
-238.888	197.584	-0.060	-0.092
-237.873	395.090	0.150	-0.313
-236.859	-23.936	0.294	0.177
-235.844	205.516	0.083	0.130
-234.830	-39.108	0.263	0.139
-233.815	-50.475	-0.049	0.023
-232.800	800.000	-0.039	-0.128
-231.786	-200.000	-0.071	-0.325
-230.771	-79.813	0.332	-0.112
-229.757	55.003	-0.184	-0.178
-228.742	-12.002	0.215	0.141
-227.727	-52.604	0.119	0.055
-226.713	-19.134	-0.142	-0.088
-225.698	-115.482	0.305	-0.058
-224.684	-54.784	0.176	-0.080
-223.669	12.509	-0.232	-0.180
-222.655	-184.046	0.118	0.002
-221.640	419.301	-0.173	0.371
-220.625	-5.411	-0.151	0.104
-219.611	69.228	-0.283	-0.291
-218.596	17.584	0.137	0.109
-217.582	246.213	0.040	-0.068
-216.567	13.005	-0.290	0.225
-215.552	55.905	0.072	0.070
-214.538	1.456	-0.210	0.152
-213.523	-79.551	-0.134	0.045
-212.509	-29.221	-0.169	0.097
-211.494	747.312	0.144	-0.390
-210.479	-200.000	0.037	0.327
-209.465	9.372	-0.161	0.122
-208.450	-178.259	0.097	0.002
-207.436	97.873	-0.216	0.249
-206.421	63.909	0.088	0.089
-205.406	-107.529	0.233	-0.051
-204.392	52.760	-0.084	0.080
-203.377	-171.965	0.363	-0.012
-202.363	-4.705	0.114	0.079
-201.348	-147.243	-0.128	0.011
-200.333	-106.094	-0.675	0.152
-199.319	151.760	0.093	-0.128
-198.304	-38.635	0.265	-0.140
-197.290	-30.000	-0.022	-0.013
-196.275	-200.000	-0.054	0.319
-195.260	382.228	-0.029	-0.059
-194.246	-144.117	0.354	-0.033
-193.231	800.000	-0.027	0.101
-192.217	113.790	-0.179	0.217
-191.202	-161.657	0.324	-0.017
-190.187	-200.000	-0.014	-0.376
-189.173	-134.727	0.227	0.028
-188.158	-49.230	0.308	-0.148
-187.144	-34.921	0.060	0.033
-186.129	-70.784	0.318	0.120
-185.114	258.430	-0.038	0.066
-184.100	-58.336	0.280	0.122
-183.085	-175.787	0.312	0.008
-182.071	-43.817	0.362	0.183
-181.056	800.000	-0.082	-0.309
-180.042	148.959	-0.255	-0.345
-179.027	155.444	-0.191	-0.264
-178.012	800.000	0.072	-0.211
-176.998	800.000	0.055	0.199
-175.983	-126.554	-0.270	-0.040
-174.969	2.999	-0.042	-0.031
-173.954	-148.740	0.192	0.016
-172.939	-200.000	-0.006	0.204
-171.925	6.567	-0.105	0.078
-170.910	-86.966	-0.162	-0.049
-169.896	-130.647	-0.274	-0.037
-168.881	15.009	-0.166	0.130
-167.866	83.841	-0.088	-0.096
-166.852	-200.000	-0.020	-0.118
-165.837	33.486	-0.070	-0.061
-164.823	-200.000	-0.009	0.073
-163.808	177.802	-0.213	0.311
-162.793	4.009	0.026	-0.019
-161.779	231.496	0.043	-0.070
-160.764	-200.000	0.023	-0.113
-159.750	-45.677	0.035	-0.017
-158.735	-200.000	0.054	-0.269
-157.720	177.875	-0.052	0.075
-156.706	-138.721	-0.255	0.028
-155.691	486.523	0.091	-0.208
-154.677	50.948	0.243	-0.230
-153.662	339.349	-0.098	-0.190
-152.647	-200.000	0.014	-0.174
-151.633	-200.000	-0.018	-0.320
-150.618	-73.711	0.104	0.038
-149.604	375.978	-0.065	-0.133
-148.589	-8.601	0.013	-0.009
-147.574	-48.877	0.080	0.039
-146.560	-200.000	-0.007	-0.153
-145.545	-122.068	-0.259	-0.043
-144.531	107.362	-0.054	0.065
-143.516	-200.000	0.004	0.203
-142.502	800.000	0.081	-0.240
-141.487	-94.535	-0.150	-0.041
-140.472	-3.862	0.268	-0.186
-139.458	37.301	0.315	0.279
-138.443	128.922	0.365	0.465
-137.429	38.651	0.211	0.188
-136.414	-147.463	0.203	-0.017
-135.399	-41.255	0.148	-0.076
-134.385	-200.000	0.000	-0.186
-133.370	-58.275	-0.377	0.164
-132.356	-11.408	0.167	0.110
-131.341	800.000	-0.072	-0.284
-130.326	800.000	-0.033	-0.111
-129.312	61.037	0.245	0.243
-128.297	-200.000	0.011	0.074
-127.283	82.670	0.201	0.218
-126.268	-192.634	-0.119	0.001
-125.253	-200.000	0.005	0.024
-124.239	-7.791	0.040	0.027
-123.224	-121.551	-0.040	0.007
-122.210	-200.000	-0.027	0.218
-121.195	800.000	-0.089	0.266
-120.180	173.487	0.215	0.310
-119.166	-200.000	0.001	0.169
-118.151	-44.732	-0.089	-0.044
-117.137	-92.058	0.151	-0.043
-116.122	-200.000	0.073	0.324
-115.107	-200.000	-0.014	0.376
-114.093	800.000	-0.066	0.229
-113.078	-13.361	-0.092	-0.060
-112.064	148.865	0.041	0.055
-111.049	161.884	0.062	-0.087
-110.034	795.488	0.060	-0.164
-109.020	-57.932	0.077	0.034
-108.005	-86.918	0.401	-0.122
-106.991	800.000	-0.095	-0.408
-105.976	800.000	-0.088	-0.308
-104.962	-51.471	-0.092	-0.043
-103.947	-200.000	0.008	0.088
-102.932	-0.884	-0.027	-0.019
-101.918	123.341	-0.278	-0.348
-100.903	-21.303	0.147	-0.090
-99.889	673.302	0.145	-0.375
-98.874	-151.295	0.228	0.017
-97.859	126.627	-0.074	0.094
-96.845	-87.889	0.469	-0.141
-95.830	-119.515	-0.416	0.072
-94.816	-129.645	0.090	-0.012
-93.801	-136.314	0.225	0.026
-92.786	-129.419	0.297	0.041
-91.772	139.959	0.110	-0.144
-90.757	-200.000	0.034	0.220
-89.743	287.213	0.100	0.180
-88.728	-158.150	-0.181	0.011
-87.713	-79.614	-0.106	0.036
-86.699	219.060	0.141	-0.224
-85.684	551.613	-0.147	-0.352
-84.670	-101.905	-0.381	-0.092
-83.655	51.653	-0.281	-0.266
-82.640	49.893	0.096	0.091
-81.626	-111.533	0.213	0.043
-80.611	-37.486	-0.605	0.322
-79.597	-57.146	0.188	0.083
-78.582	-102.384	-0.236	0.056
-77.567	-113.507	0.254	0.050
-76.553	-11.507	0.170	-0.111
-75.538	-200.000	0.025	0.129
-74.524	-103.682	0.163	0.038
-73.509	107.207	-0.024	0.029
-72.494	-115.471	0.216	-0.041
-71.480	199.930	-0.108	-0.165
-70.465	437.872	-0.129	-0.280
-69.451	-200.000	0.032	0.269
-68.436	284.737	0.089	-0.160
-67.422	800.000	-0.057	-0.175
-66.407	351.592	0.081	0.161
-65.392	398.321	-0.109	0.228
-64.378	-200.000	-0.017	-0.142
-63.363	-50.480	0.340	0.160
-62.349	-200.000	0.008	-0.093
-61.334	58.132	-0.787	-0.768
-60.319	-16.016	0.522	0.331
-59.305	-200.000	-0.104	-0.773
-58.290	234.707	0.448	0.736
-57.276	-200.000	0.384	1.679
-56.261	-200.000	76.730	512.803
-55.246	516.616	1320.909	3076.146
-54.232	148.684	2544.443	3425.349
-53.217	116.276	2222.332	2712.618
-52.203	52.123	1675.204	1590.326
-51.188	44.241	1402.172	1281.590
-50.173	40.666	1356.969	1218.330
-49.159	59.112	1392.346	1364.737
-48.144	65.881	1411.199	1425.027
-47.130	44.884	1373.295	1258.968
-46.115	40.816	1356.825	1218.928
-45.100	40.522	1352.098	1212.838
-44.086	40.423	1349.821	1210.137
-43.071	40.349	1347.486	1207.547
-42.057	40.458	1344.813	1205.764
-41.042	40.593	1342.711	1204.657
-40.027	40.603	1341.918	1203.955
-39.013	40.600	1339.699	1201.899
-37.998	40.572	1337.842	1200.016
-36.984	40.649	1336.178	1198.943
-35.969	40.666	1334.278	1197.293
-34.954	40.795	1332.166	1196.123
-33.940	40.695	1331.062	1194.483
-32.925	40.689	1330.133	1193.566
-31.911	40.790	1328.801	1192.932
-30.896	40.701	1327.127	1190.848
-29.881	40.802	1325.486	1189.935
-28.867	40.899	1323.669	1188.835
-27.852	40.727	1322.586	1186.788
-26.838	40.692	1321.486	1185.543
-25.823	40.666	1319.903	1183.922
-24.809	40.703	1318.452	1182.795
-23.794	40.743	1317.131	1181.799
-22.779	40.720	1315.313	1179.986
-21.765	40.737	1314.104	1178.955
-20.750	40.825	1312.380	1177.884
-19.736	40.656	1311.283	1175.850
-18.721	40.615	1310.385	1174.754
-17.706	40.569	1309.249	1173.418
-16.692	40.547	1308.007	1172.127
-15.677	40.610	1306.918	1171.477
-14.663	40.612	1306.181	1170.785
-13.648	40.557	1304.752	1169.131
-12.633	40.623	1303.617	1168.455
-11.619	40.580	1302.657	1167.296
-10.604	40.649	1301.828	1166.915
-9.590	40.642	1300.814	1165.917
-8.575	40.562	1299.902	1164.584
-7.560	40.611	1299.170	1164.167
-6.546	40.519	1298.705	1163.165
-5.531	40.535	1297.473	1162.108
-4.517	40.681	1296.003	1161.603
-3.502	40.660	1295.437	1160.926
-2.487	40.618	1294.170	1159.502
-1.473	40.568	1290.660	1156.019
-0.458	38.931	1274.277	1131.866
0.556	34.460	1252.991	1082.427
1.571	29.836	1255.565	1058.178
2.586	28.478	1270.115	1062.483
3.600	26.994	1259.103	1044.648
4.615	19.520	1183.024	940.866
5.629	8.048	1099.963	816.272
6.644	2.914	1076.028	772.661
7.659	2.328	1073.968	768.172
8.673	2.176	1072.128	766.021
9.688	2.125	1070.772	764.730
10.702	2.546	1069.691	765.995
11.717	9.101	1079.940	806.277
12.731	20.050	1095.701	873.472
13.746	25.225	1101.500	904.172
14.761	25.850	1101.979	907.639
15.775	25.738	1101.910	906.934
16.790	25.509	1100.644	904.662
17.804	25.441	1099.993	903.705
18.819	25.527	1099.627	903.757
19.834	25.672	1099.586	904.372
20.848	25.821	1098.515	904.155
21.863	25.745	1098.153	903.400
22.877	25.524	1097.925	902.020
23.892	25.574	1096.966	901.406
24.907	25.701	1095.988	901.158
25.921	25.675	1095.110	900.227
26.936	25.681	1093.420	898.787
27.950	25.615	1091.730	896.991
28.965	25.492	1090.140	894.993
29.980	25.478	1088.664	893.630
30.994	25.799	1087.526	894.210
32.009	25.631	1086.769	892.677
33.023	25.435	1085.599	890.667
34.038	25.512	1085.049	890.515
35.053	25.569	1084.924	890.619
36.067	25.605	1083.233	889.328
37.082	25.665	1083.044	889.389
38.096	25.869	1082.502	889.873
39.111	25.825	1081.766	888.976
40.126	25.768	1080.153	887.290
41.140	25.371	1078.309	883.744
42.155	25.106	1077.405	881.619
43.169	25.343	1076.148	881.680
44.184	25.344	1075.501	881.075
45.199	25.122	1074.528	879.112
46.213	25.222	1073.741	878.879
47.228	25.336	1073.007	878.761
48.242	25.413	1072.368	878.533
49.257	25.655	1071.025	878.537
50.271	25.685	1070.590	878.252
51.286	25.698	1069.650	877.464
52.301	25.710	1069.211	877.086
53.315	25.584	1068.150	875.522
54.330	25.472	1067.272	874.182
55.344	25.580	1066.613	874.092
56.359	25.509	1065.912	873.094
57.374	25.337	1064.535	871.055
58.388	25.399	1063.756	870.642
59.403	25.265	1062.814	869.144
60.417	25.152	1061.963	867.823
61.432	25.351	1061.431	868.274
62.447	25.365	1061.096	867.992
63.461	25.431	1060.010	867.342
64.476	25.405	1058.817	866.169
65.490	25.183	1058.145	864.471
66.505	25.322	1057.613	864.627
67.520	25.405	1056.927	864.390
68.534	25.140	1055.406	861.795
69.549	24.834	1054.726	859.693
70.563	24.856	1053.802	858.973
71.578	24.922	1052.641	858.264
72.593	24.777	1051.730	856.750
73.607	24.751	1051.977	856.755
74.622	25.053	1051.268	857.547
75.636	25.263	1050.423	857.784
76.651	25.135	1049.068	855.993
77.666	24.986	1048.943	855.101
78.680	25.049	1048.189	854.710
79.695	25.020	1047.882	854.249
80.709	25.254	1046.749	854.361
81.724	25.173	1046.046	853.329
82.739	25.232	1045.302	852.927
83.753	25.498	1045.030	853.894
84.768	25.952	1043.918	855.063
85.782	25.942	1042.957	854.151
86.797	26.027	1041.918	853.628
87.812	25.698	1041.086	851.316
88.826	25.761	1040.687	851.209
89.841	25.892	1039.522	850.799
90.855	25.844	1038.644	849.779
91.870	25.824	1037.696	848.834
92.884	25.688	1036.401	847.061
93.899	25.669	1035.552	846.201
94.914	25.897	1034.681	846.488
95.928	25.753	1033.801	845.015
96.943	25.403	1032.605	842.326
97.957	25.192	1031.486	840.349
98.972	25.128	1030.114	838.858
99.987	25.293	1029.880	839.363
101.001	25.575	1028.778	839.708
102.016	25.597	1028.029	839.126
103.030	25.457	1027.081	837.623
104.045	25.371	1026.003	836.270
105.060	25.222	1024.963	834.655
106.074	25.320	1024.431	834.607
107.089	25.643	1023.652	835.394
108.103	25.451	1022.686	833.642
109.118	25.212	1021.520	831.514
110.133	25.225	1020.329	830.528
111.147	25.008	1019.457	828.743
112.162	24.955	1018.392	827.560
113.176	25.303	1017.758	828.577
114.191	25.178	1016.835	827.177
115.206	24.833	1015.654	824.549
116.220	24.806	1014.741	823.613
117.235	24.975	1014.211	823.889
118.249	25.017	1013.067	823.078
119.264	24.938	1012.419	822.118
120.279	25.068	1011.863	822.186
121.293	25.055	1010.787	821.180
122.308	25.004	1010.106	820.323
123.322	24.987	1008.962	819.246
124.337	24.723	1007.456	816.743
125.352	24.343	1006.191	813.909
126.366	24.231	1005.480	812.750
127.381	25.003	1005.550	816.258
128.395	25.407	1005.088	817.648
129.410	25.600	1004.164	817.700
130.424	25.474	1003.301	816.355
131.439	25.565	1001.838	815.503
132.454	25.510	1001.032	814.526
133.468	25.385	1000.387	813.365
134.483	25.620	999.481	813.618
135.497	25.767	998.794	813.653
136.512	25.916	997.840	813.475
137.527	25.773	997.243	812.273
138.541	25.866	996.171	811.744
139.556	25.959	995.642	811.660
140.570	25.876	995.173	810.835
141.585	25.969	993.742	810.016
142.600	25.858	992.491	808.424
143.614	26.030	992.133	808.835
144.629	26.164	991.330	808.709
145.643	26.067	989.743	806.906
146.658	25.817	988.774	804.929
147.673	25.783	987.627	803.770
148.687	25.697	987.045	802.846
149.702	25.446	986.191	800.960
150.716	25.528	984.966	800.258
151.731	25.670	984.620	800.538
152.746	25.883	983.734	800.692
153.760	25.883	983.399	800.350
154.775	26.008	982.856	800.392
155.789	26.007	981.712	799.384
156.804	25.910	980.798	798.141
157.819	25.878	980.586	797.757
158.833	26.098	979.592	797.851
159.848	26.085	977.967	796.396
160.862	25.894	977.385	795.013
161.877	25.892	976.340	794.083
162.892	25.901	975.350	793.245
163.906	25.818	974.261	791.926
164.921	25.762	973.529	791.013
165.935	25.863	972.477	790.533
166.950	25.896	971.776	790.036
167.964	25.914	970.656	789.138
168.979	25.861	969.325	787.752
169.994	25.759	968.576	786.631
171.008	25.938	968.293	787.111
172.023	26.010	966.917	786.237
173.037	25.674	966.450	784.324
174.052	25.634	965.008	782.908
175.067	25.633	964.669	782.560
176.081	25.675	964.451	782.495
177.096	25.721	963.577	781.918
178.110	25.388	962.748	779.730
179.125	25.211	961.583	777.950
180.140	25.377	961.463	778.505
181.154	25.633	961.338	779.445
182.169	25.700	961.243	779.587
183.183	25.998	960.553	780.251
184.198	25.782	959.640	778.507
185.213	25.866	958.985	778.267
186.227	25.970	958.030	777.871
187.242	25.905	957.939	777.448
188.256	26.072	956.793	777.169
189.271	26.091	956.149	776.660
190.286	25.672	955.071	773.912
191.300	24.939	953.715	769.597
192.315	24.294	952.014	765.390
193.329	24.242	951.135	764.393
194.344	25.108	952.169	768.869
195.359	25.757	951.799	771.285
196.373	25.924	951.098	771.364
197.388	25.851	950.656	770.625
198.402	25.766	950.195	769.821
199.417	25.923	949.054	769.498
200.432	25.630	948.303	767.570
201.446	25.480	947.574	766.272
202.461	25.543	946.919	765.943
203.475	24.682	945.587	761.136
204.490	23.945	944.103	756.738
205.504	24.743	944.516	760.399
206.519	25.432	944.407	763.170
207.534	25.450	943.705	762.611
208.548	25.791	943.786	764.054
209.563	25.767	942.591	762.921
210.577	25.469	942.257	761.319
211.592	25.968	941.916	763.091
212.607	25.945	941.093	762.260
213.621	26.044	940.374	762.025
214.636	25.953	939.727	761.049
215.650	25.942	938.732	760.130
216.665	26.077	938.398	760.363
217.680	26.008	937.611	759.365
218.694	25.700	936.125	756.800
219.709	25.436	935.743	755.316
220.723	25.765	935.259	756.239
221.738	25.755	934.738	755.712
222.753	25.740	934.108	755.073
223.767	25.901	933.630	755.294
224.782	26.012	933.819	755.843
225.796	26.101	932.939	755.439
226.811	25.391	931.660	751.365
227.826	24.736	930.105	747.308
228.840	25.074	929.551	748.209
229.855	25.011	929.028	747.460
230.869	24.709	927.542	744.939
231.884	25.084	927.791	746.636
232.899	25.834	927.982	749.846
233.913	25.648	927.440	748.569
234.928	25.757	926.657	748.323
235.942	25.656	925.822	747.165
236.957	25.382	924.985	745.283
237.972	25.346	924.671	744.817
238.986	25.459	924.226	744.863
240.001	25.492	923.393	744.262
241.015	25.460	922.884	743.650
242.030	25.721	922.480	744.339
243.045	25.769	921.988	744.076
244.059	26.030	921.623	744.794
245.074	25.668	920.800	742.570
246.088	25.482	919.368	740.580
247.103	25.598	919.449	741.061
248.117	26.188	919.555	743.507
249.132	26.406	919.045	743.926
250.147	26.614	918.456	744.239
251.161	26.583	918.098	743.758
252.176	26.684	917.422	743.557
253.190	26.865	916.619	743.584
254.205	26.857	916.507	743.392
255.220	26.822	915.572	742.428
256.234	26.631	915.018	741.131
257.249	26.685	914.227	740.645
258.263	26.637	913.567	739.850
259.278	26.669	913.070	739.510
260.293	26.807	912.379	739.447
261.307	26.687	911.279	738.003
262.322	26.623	910.377	736.949
263.336	25.835	908.581	732.227
264.351	24.707	906.949	726.269
265.366	24.754	906.549	726.074
266.380	25.724	907.556	730.755
267.395	26.312	907.120	732.724
268.409	26.227	906.393	731.729
269.424	26.597	905.452	732.399
270.439	26.454	905.208	731.560
271.453	26.628	904.685	731.776
272.468	26.855	904.100	732.156
273.482	26.812	903.846	731.711
274.497	26.342	902.755	728.868
275.512	25.997	901.247	726.195
276.526	26.471	901.477	728.226
277.541	26.491	901.392	728.173
278.555	26.397	900.254	726.811
279.570	26.222	899.745	725.634
280.585	26.372	899.348	725.854
281.599	26.494	897.776	725.010
282.614	25.667	897.025	721.025
283.628	25.680	896.399	720.512
284.643	25.991	896.236	721.561
285.657	25.638	895.503	719.493
286.672	25.437	894.374	717.721
287.687	26.018	893.974	719.655
288.701	25.971	893.823	719.282
289.716	25.852	892.500	717.680
290.730	25.797	891.991	716.989
291.745	25.495	891.147	715.046
292.760	25.766	891.367	716.237
293.774	26.721	891.390	719.989
294.789	27.070	891.248	721.195
295.803	26.982	890.611	720.268
296.818	27.109	890.167	720.347
297.833	26.623	888.461	716.982
298.847	26.371	888.414	715.881
299.862	26.731	888.329	717.174
300.876	26.975	887.780	717.634
301.891	26.935	886.937	716.728
302.906	26.448	886.251	714.191
303.920	26.788	885.549	714.901
304.935	27.059	885.405	715.791
305.949	27.050	884.665	715.095
306.964	26.832	884.090	713.707
307.979	26.708	884.106	713.169
308.993	27.285	883.059	714.528
310.008	27.201	882.600	713.764
311.022	26.911	881.872	711.973
312.037	26.757	881.184	710.754
313.052	26.482	880.298	708.897
314.066	25.656	878.456	704.120
315.081	25.273	877.724	701.975
316.095	26.078	878.346	705.560
317.110	26.625	878.111	707.445
318.125	25.910	876.503	703.296
319.139	24.807	874.955	697.695
320.154	24.830	874.568	697.416
321.168	25.672	875.022	700.994
322.183	26.383	875.068	703.739
323.197	26.553	874.546	703.919
324.212	26.741	874.345	704.426
325.227	26.879	873.760	704.427
326.241	26.709	873.096	703.171
327.256	26.658	872.622	702.530
328.270	26.450	871.883	701.065
329.285	26.313	870.559	699.407
330.300	26.182	870.156	698.515
331.314	26.413	869.739	699.012
332.329	26.717	869.700	700.095
333.343	26.796	869.550	700.218
334.358	26.881	869.171	700.179
335.373	27.106	868.784	700.673
336.387	27.216	868.940	701.158
337.402	27.226	868.711	700.951
338.416	27.308	867.949	700.591
339.431	27.335	868.054	700.718
340.446	27.451	867.610	700.745
341.460	27.269	867.610	699.982
342.475	27.156	866.508	698.596
343.489	27.236	865.922	698.370
344.504	27.567	865.395	699.150
345.519	27.732	865.222	699.583
346.533	27.696	865.092	699.278
347.548	27.587	864.631	698.425
348.562	27.731	863.646	698.120
349.577	27.588	863.005	696.993
350.592	27.626	862.301	696.508
351.606	27.762	861.605	696.402
352.621	27.388	861.027	694.449
353.635	27.515	859.728	693.821
354.650	26.767	858.539	689.953
355.665	25.787	857.037	684.963
356.679	26.271	856.623	686.411
357.694	26.701	856.399	687.803
358.708	26.449	855.642	686.178
359.723	27.083	855.360	688.293
360.738	27.374	855.230	689.230
361.752	27.489	854.621	689.115
362.767	27.869	854.532	690.419
363.781	27.901	854.433	690.399
364.796	28.038	853.895	690.419
365.810	28.097	853.586	690.331
366.825	28.015	853.071	689.544
367.840	27.717	852.149	687.614
368.854	27.452	850.860	685.516
369.869	27.347	850.648	684.890
370.883	27.463	850.359	685.034
371.898	27.343	849.919	684.169
372.913	27.424	849.647	684.193
373.927	27.522	849.324	684.239
374.942	27.699	848.815	684.434
375.956	27.726	848.780	684.445
376.971	27.816	848.469	684.470
377.986	28.146	847.626	684.965
379.000	28.167	846.706	684.242
380.015	27.885	846.195	682.714
381.029	27.929	845.946	682.616
382.044	27.964	845.268	682.140
383.059	28.043	844.731	681.941
384.073	28.091	844.173	681.610
385.088	27.996	843.725	680.832
386.102	27.774	842.845	679.238
387.117	27.805	842.013	678.622
388.132	27.417	840.908	676.230
389.146	26.883	840.189	673.609
390.161	27.402	840.197	675.481
391.175	27.749	839.714	676.320
392.190	27.490	838.611	674.415
393.205	26.157	836.838	667.998
394.219	24.622	834.839	660.673
395.234	24.306	834.629	659.280
396.248	25.945	836.406	666.696
397.263	27.526	837.046	672.992
398.278	27.570	836.365	672.546
399.292	27.083	836.127	670.498
400.307	27.287	835.139	670.399
401.321	27.402	834.915	670.584
402.336	27.762	835.070	671.975
403.350	28.222	834.953	673.514
404.365	28.434	834.963	674.240
405.380	28.616	834.392	674.391
406.394	28.681	834.179	674.395
407.409	28.626	833.203	673.346
408.423	28.728	832.928	673.437
409.438	28.736	832.536	673.092
410.453	28.820	831.957	672.873
411.467	28.641	831.285	671.614
412.482	28.733	830.897	671.576
413.496	28.964	830.232	671.823
414.511	28.632	830.483	670.753
415.526	28.722	830.103	670.716
416.540	28.631	829.306	669.682
417.555	28.311	828.589	667.875
418.569	28.304	828.241	667.511
419.584	28.474	827.320	667.327
420.599	28.228	826.828	665.977
421.613	95.351	1266.960	1377.270
422.628	82.362	1331.109	1377.416
