DTS Sentinel unit serial number:	SN413079Multiplexer serial number:	ORYXHardware model number:	OX4-SRSoftware version number:	ORYX F/W v4.00 Oryx Data Collector v3.7.2.0data status	okinstallation	princeton_trtdifferential loss correction	single-endedforward channel	channel 1reverse channel	N/Adate	2019/09/14time	19:46:35forward acquisition time	60.00reverse acquisition time	0.00gamma	496.2192k internal	0.2313k external	0.2313temperature offset calibration	1.0029default loss term (dB/km)	0.3790temperature slope calibration	1.0000multiplexer offset coefficient	1.0000multiplexer slope coefficient	1.0000fibre end	0.00T internal ref (°C)	34.37T ext. ref 1 (°C)	4.89T ext. ref 2 (°C)	28.57length (m)	temperature (°C)	Stokes	anti-Stokes-747.200	137.666	0.041	0.055
-746.185	312.892	-0.081	0.154
-745.171	-98.176	0.173	0.045
-744.156	51.947	-0.129	0.125
-743.142	-65.914	-0.182	-0.074
-742.127	384.802	0.108	0.226
-741.112	53.338	0.275	0.268
-740.098	-200.000	0.048	0.240
-739.083	-63.958	-0.239	0.099
-738.069	-163.818	-0.468	0.022
-737.054	205.808	0.109	-0.172
-736.039	-11.514	-0.184	0.123
-735.025	-132.426	0.413	-0.054
-734.010	-66.516	0.122	0.049
-732.996	-51.853	-0.159	-0.075
-731.981	0.432	0.030	-0.022
-730.966	8.202	-0.132	0.101
-729.952	-200.000	0.037	-0.212
-728.937	-172.725	-0.109	-0.003
-727.923	-80.492	0.061	-0.021
-726.908	-72.976	-0.112	-0.042
-725.894	-200.000	0.010	-0.134
-724.879	-200.000	-0.033	-0.287
-723.864	-103.401	-0.347	-0.083
-722.850	800.000	-0.053	0.177
-721.835	50.969	-0.030	-0.029
-720.821	25.797	-0.171	0.144
-719.806	617.284	0.181	-0.460
-718.791	148.834	-0.233	-0.319
-717.777	742.173	0.076	-0.208
-716.762	-200.000	0.042	-0.272
-715.748	-108.966	0.346	-0.075
-714.733	-0.313	0.415	0.299
-713.718	-46.527	0.185	-0.092
-712.704	74.111	-0.186	-0.198
-711.689	-60.125	0.283	-0.122
-710.675	-107.373	-0.242	-0.054
-709.660	196.706	0.109	0.167
-708.645	133.944	0.234	0.306
-707.631	23.995	0.133	-0.111
-706.616	-28.770	-0.168	0.098
-705.602	800.000	0.110	0.397
-704.587	221.283	0.169	0.275
-703.572	800.000	-0.042	-0.173
-702.558	-200.000	0.024	0.231
-701.543	145.676	0.198	-0.268
-700.529	25.983	0.224	-0.189
-699.514	5.738	0.028	-0.021
-698.499	-200.000	-0.018	-0.228
-697.485	125.292	0.127	-0.162
-696.470	-6.683	0.165	0.114
-695.456	88.584	-0.084	-0.095
-694.441	358.496	-0.145	-0.293
-693.426	-200.000	-0.055	0.488
-692.412	37.483	0.043	-0.038
-691.397	-120.900	0.053	0.009
-690.383	-200.000	-0.018	-0.380
-689.368	-77.083	0.073	-0.026
-688.354	-100.946	0.303	0.075
-687.339	12.774	-0.320	-0.250
-686.324	-81.020	-0.433	0.145
-685.310	72.093	-0.112	0.118
-684.295	285.077	-0.217	-0.395
-683.281	4.546	0.191	-0.142
-682.266	800.000	-0.063	-0.277
-681.251	-140.036	0.158	0.017
-680.237	6.838	-0.137	-0.103
-679.222	-200.000	0.001	-0.047
-678.208	-132.512	-0.109	0.014
-677.193	800.000	0.093	0.350
-676.178	-200.000	-0.069	-0.375
-675.164	-200.000	-0.039	-0.233
-674.149	136.881	-0.136	-0.180
-673.135	136.398	0.324	0.428
-672.120	-178.834	-0.099	-0.002
-671.105	-200.000	0.039	-0.176
-670.091	45.403	-0.132	0.123
-669.076	621.219	0.066	-0.168
-668.062	-200.000	0.054	-0.386
-667.047	-62.944	-0.238	0.099
-666.032	800.000	-0.038	0.153
-665.018	-49.799	-0.183	-0.088
-664.003	165.587	-0.097	0.139
-662.989	-200.000	0.057	-0.302
-661.974	800.000	-0.069	-0.201
-660.959	-200.000	-0.005	0.137
-659.945	73.304	0.094	-0.100
-658.930	-68.371	-0.123	0.048
-657.916	283.015	0.129	-0.234
-656.901	368.502	0.073	0.149
-655.886	-94.277	-0.201	-0.055
-654.872	-19.392	0.199	-0.124
-653.857	-152.151	-0.423	0.031
-652.843	-131.938	-0.149	-0.020
-651.828	800.000	-0.015	-0.048
-650.814	-141.515	0.395	-0.040
-649.799	-30.782	-0.183	0.105
-648.784	11.700	-0.231	-0.179
-647.770	754.344	-0.152	-0.415
-646.755	3.796	0.211	0.155
-645.741	-56.880	0.232	0.103
-644.726	-200.000	-0.043	-0.245
-643.711	800.000	0.057	-0.205
-642.697	-41.570	-0.265	0.137
-641.682	23.967	-0.126	-0.105
-640.668	67.661	0.065	0.067
-639.653	540.982	-0.133	0.319
-638.638	49.147	-0.166	-0.158
-637.624	-91.001	-0.118	0.034
-636.609	58.483	0.033	0.033
-635.595	-90.387	-0.148	-0.043
-634.580	614.909	0.010	0.026
-633.565	-100.823	-0.260	-0.065
-632.551	27.192	-0.105	-0.089
-631.536	-107.849	-0.242	-0.053
-630.522	23.608	0.194	0.161
-629.507	-200.000	-0.008	-0.166
-628.492	-135.492	-0.311	0.037
-627.478	210.323	0.046	0.073
-626.463	332.187	0.080	-0.156
-625.449	238.335	0.178	-0.299
-624.434	-13.019	0.263	-0.172
-623.419	-65.227	-0.374	-0.152
-622.405	120.319	0.046	-0.058
-621.390	-200.000	0.039	0.330
-620.376	800.000	0.020	-0.069
-619.361	-128.991	0.129	0.018
-618.346	-22.037	-0.200	0.122
-617.332	-100.129	-0.074	0.019
-616.317	800.000	-0.059	0.242
-615.303	18.733	-0.126	-0.101
-614.288	-40.820	-0.351	-0.183
-613.273	-36.646	0.287	-0.156
-612.259	-12.684	-0.285	0.188
-611.244	-65.898	0.100	-0.040
-610.230	-123.442	0.161	-0.026
-609.215	800.000	-0.147	-0.417
-608.201	-68.086	-0.017	0.007
-607.186	-158.211	-0.291	-0.017
-606.171	185.458	-0.070	0.105
-605.157	104.079	-0.134	-0.158
-604.142	-109.986	-0.135	-0.029
-603.128	-83.824	-0.228	-0.073
-602.113	663.215	0.121	-0.315
-601.098	1.016	-0.090	-0.065
-600.084	-200.000	-0.037	-0.292
-599.069	-15.553	-0.167	0.107
-598.055	73.802	0.190	-0.200
-597.040	-196.206	-0.226	0.002
-596.025	120.870	0.198	-0.248
-595.011	-136.554	-0.044	-0.005
-593.996	-46.986	-0.239	-0.118
-592.982	-85.373	0.298	0.094
-591.967	-76.576	0.323	-0.114
-590.952	-90.942	-0.274	0.080
-589.938	250.185	0.132	0.226
-588.923	-200.000	0.038	0.382
-587.909	-2.229	-0.094	-0.067
-586.894	86.736	-0.221	0.246
-585.879	-68.307	-0.236	-0.092
-584.865	393.776	-0.053	0.112
-583.850	-185.651	-0.269	0.004
-582.836	-121.604	-0.160	0.027
-581.821	-200.000	-0.026	-0.383
-580.806	221.330	-0.040	0.065
-579.792	19.039	-0.114	0.092
-578.777	-200.000	-0.002	-0.340
-577.763	112.784	-0.201	-0.245
-576.748	-139.849	0.456	-0.049
-575.733	96.408	0.182	0.210
-574.719	16.750	0.134	-0.107
-573.704	-38.455	-0.114	-0.061
-572.690	-123.912	0.050	0.008
-571.675	257.987	0.111	0.192
-570.661	-73.755	-0.410	-0.150
-569.646	15.891	0.059	-0.047
-568.631	103.642	0.170	-0.201
-567.617	-153.861	0.383	-0.026
-566.602	-27.562	-0.156	0.091
-565.588	-200.000	-0.027	-0.369
-564.573	-43.243	-0.319	-0.162
-563.558	-133.416	0.211	0.027
-562.544	-119.327	0.116	-0.020
-561.529	-136.769	-0.363	-0.042
-560.515	-200.000	0.054	0.286
-559.500	255.986	0.056	0.097
-558.485	-136.227	0.240	-0.028
-557.471	-200.000	0.019	0.092
-556.456	-47.481	-0.068	0.034
-555.442	-111.762	-0.201	-0.041
-554.427	800.000	-0.049	0.194
-553.412	80.221	0.129	-0.139
-552.398	-60.039	-0.180	-0.077
-551.383	800.000	-0.096	0.287
-550.369	-71.772	-0.331	0.124
-549.354	-6.738	0.087	0.059
-548.339	-53.497	0.376	0.173
-547.325	304.664	0.134	-0.250
-546.310	653.590	-0.030	0.077
-545.296	-9.894	-0.168	-0.112
-544.281	45.357	0.094	0.087
-543.266	-200.000	-0.014	-0.301
-542.252	-29.865	0.023	-0.013
-541.237	186.769	0.051	-0.077
-540.223	-124.161	-0.164	0.026
-539.208	-39.771	-0.137	-0.072
-538.193	-17.569	-0.045	-0.029
-537.179	-82.562	-0.323	0.105
-536.164	-66.684	0.146	0.058
-535.150	-200.000	-0.026	0.187
-534.135	-200.000	0.075	0.391
-533.121	-200.000	0.011	-0.144
-532.106	-75.094	-0.183	0.066
-531.091	-75.954	-0.163	-0.058
-530.077	-72.721	-0.237	-0.088
-529.062	291.811	0.167	-0.306
-528.048	-43.495	-0.350	-0.178
-527.033	71.475	-0.128	-0.134
-526.018	22.708	0.230	0.189
-525.004	-85.653	-0.202	0.063
-523.989	486.128	-0.258	0.591
-522.975	800.000	-0.027	0.084
-521.960	800.000	0.060	-0.250
-520.945	-200.000	0.182	-0.001
-519.931	800.000	0.053	-0.230
-518.916	303.198	0.028	0.051
-517.902	-200.000	-0.042	0.259
-516.887	362.954	0.114	0.231
-515.872	468.060	-0.111	-0.250
-514.858	-39.966	-0.072	0.038
-513.843	425.095	-0.097	0.209
-512.829	-20.861	0.215	0.133
-511.814	-111.735	0.137	0.028
-510.799	568.460	0.125	0.304
-509.785	26.206	-0.210	-0.177
-508.770	10.700	0.184	0.141
-507.756	-23.661	0.240	0.144
-506.741	55.614	0.199	0.194
-505.726	44.050	0.245	-0.226
-504.712	-200.000	-0.041	-0.335
-503.697	-142.292	-0.336	0.033
-502.683	-200.000	0.017	-0.081
-501.668	-70.856	-0.310	0.117
-500.653	800.000	-0.082	0.351
-499.639	-162.078	-0.266	-0.013
-498.624	-200.000	-0.028	0.127
-497.610	-158.910	0.224	-0.013
-496.595	800.000	0.058	-0.226
-495.581	-51.716	-0.368	-0.172
-494.566	-200.000	0.050	-0.472
-493.551	-74.765	0.204	0.074
-492.537	165.006	-0.153	0.216
-491.522	197.428	-0.034	0.051
-490.508	355.619	-0.034	-0.067
-489.493	-200.000	-0.036	0.168
-488.478	-200.000	0.017	0.125
-487.464	-21.989	-0.133	0.081
-486.449	63.796	0.256	0.259
-485.435	800.000	0.047	-0.187
-484.420	-200.000	0.021	-0.263
-483.405	-82.945	-0.131	0.042
-482.391	513.866	0.054	0.126
-481.376	133.937	0.211	-0.275
-480.362	601.729	0.048	0.120
-479.347	-152.619	0.198	-0.014
-478.332	-200.000	0.007	-0.032
-477.318	273.673	-0.125	0.222
-476.303	121.822	0.068	0.085
-475.289	5.972	0.086	0.064
-474.274	8.658	0.281	-0.212
-473.259	7.127	0.329	0.246
-472.245	28.559	-0.241	-0.204
-471.230	-118.998	0.260	-0.046
-470.216	-107.915	0.376	0.082
-469.201	145.526	-0.064	-0.086
-468.186	-29.678	0.339	-0.194
-467.172	800.000	-0.058	0.224
-466.157	-200.000	-0.013	-0.212
-465.143	-83.472	-0.086	-0.028
-464.128	60.495	0.048	-0.047
-463.113	55.019	-0.083	0.081
-462.099	113.453	-0.040	0.048
-461.084	-99.792	0.200	0.050
-460.070	-89.751	-0.338	0.099
-459.055	800.000	0.053	0.211
-458.040	-200.000	0.335	-0.001
-457.026	312.989	0.066	-0.124
-456.011	-80.296	-0.034	0.012
-454.997	184.612	0.182	0.270
-453.982	-200.000	-0.003	-0.123
-452.968	800.000	0.110	-0.352
-451.953	800.000	0.055	-0.165
-450.938	800.000	-0.017	-0.056
-449.924	-92.830	0.223	-0.063
-448.909	800.000	0.084	0.297
-447.895	170.242	0.170	0.244
-446.880	294.314	0.086	-0.157
-445.865	-130.961	-0.276	0.037
-444.851	-19.888	-0.171	-0.106
-443.836	-200.000	-0.025	-0.266
-442.822	-200.000	0.014	-0.168
-441.807	-200.000	0.001	0.015
-440.792	100.733	0.114	-0.133
-439.778	82.598	-0.022	-0.024
-438.763	-101.265	0.087	0.021
-437.749	-68.454	-0.243	-0.094
-436.734	254.767	-0.073	0.125
-435.719	555.215	-0.026	-0.063
-434.705	-87.259	0.258	0.079
-433.690	113.098	-0.071	0.087
-432.676	-99.287	-0.031	0.008
-431.661	-120.488	-0.338	0.057
-430.646	-46.036	0.096	-0.048
-429.632	61.997	0.202	0.201
-428.617	-148.135	0.352	-0.029
-427.603	-51.625	0.119	0.055
-426.588	27.926	-0.150	0.127
-425.573	-124.030	0.169	0.027
-424.559	25.342	-0.041	-0.034
-423.544	-200.000	0.017	0.107
-422.530	-108.054	-0.600	0.130
-421.515	15.535	-0.313	0.246
-420.500	-200.000	-0.015	0.429
-419.486	800.000	0.062	0.199
-418.471	-9.566	0.202	0.135
-417.457	669.788	-0.092	-0.238
-416.442	-138.315	0.258	-0.029
-415.428	-200.000	-0.059	-0.272
-414.413	-179.677	-0.175	0.004
-413.398	-16.063	0.033	-0.021
-412.384	-200.000	0.008	-0.132
-411.369	-114.064	-0.214	0.042
-410.355	-68.605	0.077	-0.030
-409.340	172.725	0.168	-0.242
-408.325	431.452	0.031	-0.066
-407.311	625.140	-0.035	0.087
-406.296	-200.000	0.037	-0.209
-405.282	-52.240	0.150	-0.069
-404.267	15.373	-0.136	0.107
-403.252	-35.227	0.122	-0.066
-402.238	284.657	0.214	0.386
-401.223	-170.567	0.049	-0.002
-400.209	224.341	0.169	0.274
-399.194	218.918	-0.075	-0.121
-398.179	-102.975	0.169	0.040
-397.165	-200.000	-0.016	0.537
-396.150	-134.872	-0.247	-0.030
-395.136	-200.000	0.029	0.217
-394.121	280.092	-0.068	-0.121
-393.106	-83.466	0.253	-0.081
-392.092	-96.015	-0.249	-0.066
-391.077	194.901	-0.103	0.156
-390.063	-200.000	-0.022	0.327
-389.048	86.997	-0.211	-0.233
-388.033	160.991	0.097	-0.136
-387.019	-69.382	-0.152	0.058
-386.004	288.974	-0.152	-0.275
-384.990	-37.107	-0.121	0.065
-383.975	23.915	-0.055	0.046
-382.960	142.729	-0.020	0.026
-381.946	338.057	0.011	0.021
-380.931	-74.364	-0.397	0.143
-379.917	-3.311	0.205	-0.143
-378.902	-200.000	-0.018	-0.405
-377.888	-200.000	-0.010	0.262
-376.873	540.477	0.138	0.329
-375.858	236.790	0.035	-0.058
-374.844	342.965	0.090	-0.175
-373.829	-10.696	-0.218	-0.144
-372.815	138.848	0.169	0.222
-371.800	800.000	0.078	-0.224
-370.785	-200.000	0.011	0.367
-369.771	-200.000	-0.020	-0.160
-368.756	-200.000	0.054	0.398
-367.742	-200.000	-0.066	0.349
-366.727	800.000	-0.067	0.266
-365.712	161.601	-0.056	-0.078
-364.698	16.374	0.227	-0.179
-363.683	-87.682	0.238	-0.072
-362.669	14.856	0.112	-0.087
-361.654	-157.654	-0.223	-0.013
-360.639	-121.545	0.213	-0.035
-359.625	-154.903	0.452	-0.030
-358.610	-79.451	0.046	0.016
-357.596	-67.693	-0.333	0.130
-356.581	-102.394	0.273	0.065
-355.566	-200.000	0.088	0.392
-354.552	-94.197	-0.298	-0.082
-353.537	707.538	-0.051	-0.134
-352.523	2.313	0.185	-0.134
-351.508	60.767	0.167	0.166
-350.493	-131.109	0.169	-0.022
-349.479	280.601	-0.116	0.206
-348.464	34.751	-0.172	-0.150
-347.450	-29.021	0.130	-0.074
-346.435	50.947	-0.180	-0.170
-345.420	-200.000	0.095	-0.429
-344.406	-12.979	-0.185	0.120
-343.391	-95.357	-0.289	-0.078
-342.377	-57.508	0.231	-0.101
-341.362	800.000	0.044	-0.194
-340.348	11.826	-0.256	0.196
-339.333	-200.000	-0.009	0.360
-338.318	45.595	-0.198	0.182
-337.304	-200.000	0.007	-0.180
-336.289	-200.000	-0.018	-0.387
-335.275	138.266	-0.116	0.151
-334.260	800.000	-0.063	0.272
-333.245	-200.000	-0.004	-0.311
-332.231	800.000	0.091	0.275
-331.216	-200.000	0.038	-0.318
-330.202	-31.654	0.251	-0.141
-329.187	800.000	-0.017	-0.065
-328.172	223.954	-0.088	-0.142
-327.158	-58.912	0.127	0.055
-326.143	-113.525	-0.296	0.058
-325.129	-35.673	0.110	0.059
-324.114	-33.565	0.301	0.166
-323.099	-79.326	0.199	0.067
-322.085	-5.813	0.186	0.127
-321.070	179.871	-0.143	0.210
-320.056	113.542	0.187	0.227
-319.041	265.055	-0.105	0.182
-318.026	130.552	0.114	-0.145
-317.012	1.761	0.160	-0.115
-315.997	8.019	-0.229	-0.171
-314.983	-126.083	-0.267	0.040
-313.968	179.834	0.131	0.191
-312.953	800.000	-0.119	0.511
-311.939	624.797	-0.122	0.308
-310.924	473.219	-0.024	0.053
-309.910	-152.334	0.102	-0.007
-308.895	175.450	-0.161	-0.232
-307.880	750.008	-0.108	-0.292
-306.866	368.018	0.242	-0.488
-305.851	259.884	-0.103	0.178
-304.837	800.000	-0.080	0.312
-303.822	-96.598	0.250	-0.066
-302.807	445.818	0.128	-0.280
-301.793	800.000	0.056	0.240
-300.778	800.000	-0.070	-0.205
-299.764	-51.694	0.129	0.060
-298.749	-56.918	0.091	-0.040
-297.735	162.859	-0.169	0.237
-296.720	-200.000	0.003	0.230
-295.705	92.466	-0.147	0.165
-294.691	-60.101	-0.161	-0.069
-293.676	-87.668	0.069	-0.021
-292.662	800.000	0.040	-0.139
-291.647	-83.112	-0.199	-0.064
-290.632	107.208	-0.074	-0.087
-289.618	-69.037	0.295	0.113
-288.603	-76.945	-0.282	0.098
-287.589	77.793	0.198	-0.210
-286.574	-157.080	0.187	-0.011
-285.559	36.915	0.132	0.116
-284.545	-7.206	-0.094	0.064
-283.530	3.484	0.049	-0.036
-282.516	68.114	0.181	0.185
-281.501	180.026	-0.102	-0.149
-280.486	120.402	0.105	0.129
-279.472	-23.200	-0.176	0.106
-278.457	109.487	-0.046	-0.055
-277.443	-177.304	-0.160	0.004
-276.428	-61.912	0.147	0.061
-275.413	-166.721	0.283	-0.012
-274.399	625.561	-0.022	0.056
-273.384	424.909	0.100	-0.214
-272.370	-119.996	0.340	-0.058
-271.355	-15.981	-0.124	-0.079
-270.340	800.000	-0.101	0.312
-269.326	-82.749	0.108	0.035
-268.311	72.431	0.217	0.225
-267.297	-49.133	-0.339	-0.161
-266.282	-200.000	-0.029	0.235
-265.267	68.024	-0.114	0.117
-264.253	-200.000	0.024	0.109
-263.238	-62.212	0.122	-0.051
-262.224	5.445	-0.119	0.088
-261.209	85.650	0.160	-0.175
-260.195	-0.583	0.188	0.132
-259.180	109.227	0.194	-0.231
-258.165	139.380	-0.214	-0.280
-257.151	-200.000	0.003	-0.115
-256.136	255.477	0.205	-0.349
-255.122	-27.402	-0.289	0.167
-254.107	800.000	-0.053	-0.169
-253.092	308.878	-0.035	0.065
-252.078	-71.686	0.388	-0.144
-251.063	-58.267	0.558	-0.242
-250.049	-200.000	-0.085	-0.377
-249.034	88.626	0.073	-0.081
-248.019	-111.266	-0.329	0.067
-247.005	-137.846	0.189	-0.021
-245.990	308.617	-0.099	0.185
-244.976	-127.212	-0.282	0.041
-243.961	-112.532	0.286	0.057
-242.946	-37.706	-0.417	0.221
-241.932	-7.566	0.161	0.108
-240.917	151.307	0.087	0.118
-239.903	800.000	0.044	-0.138
-238.888	248.786	-0.072	0.122
-237.873	-200.000	-0.012	-0.141
-236.859	-153.071	-0.114	-0.008
-235.844	-200.000	-0.006	0.191
-234.830	-172.735	0.203	0.006
-233.815	-93.153	-0.069	-0.019
-232.800	4.874	0.351	-0.257
-231.786	531.235	0.118	0.277
-230.771	-200.000	-0.116	0.000
-229.757	462.466	0.107	-0.237
-228.742	-200.000	0.004	0.424
-227.727	33.799	0.072	-0.062
-226.713	-93.708	0.453	-0.124
-225.698	161.616	0.077	-0.107
-224.684	-200.000	-0.078	0.380
-223.669	-200.000	-0.031	0.222
-222.655	450.031	-0.096	0.210
-221.640	-133.475	-0.266	0.033
-220.625	-117.975	-0.195	0.035
-219.611	-200.000	-0.054	0.348
-218.596	-200.000	0.003	-0.175
-217.582	-125.483	-0.116	-0.018
-216.567	-80.922	-0.064	-0.021
-215.552	-99.364	0.495	-0.124
-214.538	-200.000	0.027	-0.188
-213.523	147.547	0.167	0.223
-212.509	-200.000	0.004	-0.022
-211.494	800.000	0.102	0.370
-210.479	800.000	-0.051	-0.147
-209.465	5.951	0.124	-0.091
-208.450	131.389	-0.194	0.247
-207.436	-113.284	0.079	0.015
-206.421	254.772	0.126	-0.215
-205.406	581.362	0.091	-0.221
-204.392	224.923	-0.152	-0.244
-203.377	664.010	-0.110	-0.282
-202.363	358.036	0.137	-0.272
-201.348	203.168	-0.149	0.229
-200.333	522.687	-0.127	0.297
-199.319	-133.143	0.169	-0.021
-198.304	244.058	-0.044	0.074
-197.290	-158.929	-0.123	0.007
-196.275	-159.173	0.267	-0.015
-195.260	800.000	0.052	-0.150
-194.246	-200.000	-0.016	-0.155
-193.231	-109.999	0.323	-0.067
-192.217	-200.000	-0.018	0.104
-191.202	370.020	0.101	0.203
-190.187	-107.796	-0.169	-0.037
-189.173	-40.784	0.133	-0.069
-188.158	-200.000	0.010	0.134
-187.144	89.726	0.087	0.096
-186.129	800.000	0.046	0.142
-185.114	457.074	0.084	-0.185
-184.100	126.624	-0.089	0.111
-183.085	425.880	0.055	0.118
-182.071	-148.892	-0.072	0.006
-181.056	24.584	-0.167	-0.137
-180.042	-41.471	0.116	-0.059
-179.027	743.058	0.150	-0.399
-178.012	-200.000	0.019	0.170
-176.998	101.641	0.260	-0.301
-175.983	-103.824	-0.093	0.021
-174.969	-55.824	-0.276	0.122
-173.954	45.459	-0.156	0.143
-172.939	-173.939	0.171	0.005
-171.925	-86.201	-0.186	-0.057
-170.910	-37.524	0.174	-0.092
-169.896	800.000	0.116	0.388
-168.881	3.309	-0.304	0.219
-167.866	54.624	-0.144	0.138
-166.852	292.462	-0.034	0.062
-165.837	-57.060	0.070	0.031
-164.823	21.389	-0.053	-0.042
-163.808	225.898	-0.211	-0.340
-162.793	-60.811	0.308	-0.129
-161.779	679.589	0.020	-0.052
-160.764	224.271	0.150	-0.240
-159.750	-78.749	0.279	-0.095
-158.735	-159.263	-0.284	-0.016
-157.720	-94.657	-0.145	0.039
-156.706	-200.000	-0.048	-0.287
-155.691	-200.000	-0.025	-0.231
-154.677	800.000	0.096	-0.334
-153.662	546.126	0.098	0.233
-152.647	800.000	0.064	-0.266
-151.633	-197.017	-0.265	-0.002
-150.618	22.173	0.356	0.288
-149.604	-200.000	0.049	-0.294
-148.589	188.367	-0.303	0.448
-147.574	800.000	0.106	0.402
-146.560	-76.522	-0.185	0.064
-145.545	-32.405	0.203	0.112
-144.531	-133.026	0.249	0.031
-143.516	141.761	0.349	0.458
-142.502	95.494	-0.154	0.174
-141.487	-31.307	-0.212	0.118
-140.472	148.710	0.063	0.084
-139.458	-200.000	-0.025	0.155
-138.443	417.268	-0.102	-0.216
-137.429	-124.387	-0.091	0.014
-136.414	166.395	0.190	-0.267
-135.399	37.194	-0.221	0.193
-134.385	-109.302	0.187	0.039
-133.370	-4.173	0.264	0.181
-132.356	-85.678	0.099	0.031
-131.341	-126.485	-0.159	-0.023
-130.326	-200.000	0.057	0.259
-129.312	77.457	-0.089	-0.094
-128.297	-200.000	0.026	0.158
-127.283	-91.479	0.008	-0.002
-126.268	201.571	-0.172	0.263
-125.253	-77.078	0.165	-0.057
-124.239	-45.934	-0.088	0.043
-123.224	-10.341	-0.183	0.120
-122.210	-100.840	-0.152	-0.037
-121.195	-200.000	-0.048	-0.222
-120.180	800.000	-0.126	0.377
-119.166	-200.000	-0.052	0.337
-118.151	0.718	-0.092	0.065
-117.137	-90.965	0.059	-0.017
-116.122	-160.330	0.459	0.024
-115.107	462.580	-0.131	-0.289
-114.093	-149.211	-0.294	0.023
-113.078	93.927	-0.138	0.155
-112.064	369.477	-0.127	0.253
-111.049	-142.201	0.356	0.035
-110.034	315.494	-0.098	-0.183
-109.020	-200.000	0.068	0.350
-108.005	-79.515	-0.344	0.115
-106.991	-200.000	-0.043	0.299
-105.976	284.374	0.132	-0.235
-104.962	-66.350	-0.106	-0.042
-103.947	800.000	0.024	0.084
-102.932	-27.674	-0.201	-0.115
-101.918	-11.463	-0.194	-0.126
-100.903	64.605	0.212	-0.212
-99.889	177.744	0.253	0.365
-98.874	-139.860	0.390	0.041
-97.859	166.402	0.085	-0.119
-96.845	-79.166	-0.175	-0.059
-95.830	-144.649	-0.243	-0.022
-94.816	8.581	0.146	0.109
-93.801	-200.000	-0.036	-0.282
-92.786	301.996	-0.095	0.174
-91.772	221.001	0.089	0.141
-90.757	800.000	-0.046	0.139
-89.743	730.087	-0.118	-0.313
-88.728	-200.000	-0.022	0.114
-87.713	800.000	0.040	-0.118
-86.699	-111.593	0.225	-0.045
-85.684	11.743	-0.106	-0.081
-84.670	-168.920	0.190	-0.007
-83.655	665.743	0.072	0.185
-82.640	-127.960	0.157	-0.022
-81.626	141.195	-0.047	-0.061
-80.611	398.027	0.081	0.167
-79.597	-3.449	-0.155	0.106
-78.582	-60.253	0.079	0.033
-77.567	-128.685	-0.303	-0.042
-76.553	10.566	0.223	-0.168
-75.538	26.436	-0.131	-0.108
-74.524	188.757	-0.182	0.269
-73.509	-74.804	-0.220	-0.078
-72.494	-98.600	0.305	0.077
-71.480	-43.247	0.119	-0.060
-70.465	-17.604	-0.117	0.072
-69.451	-3.862	-0.171	-0.117
-68.436	-72.631	0.357	-0.130
-67.422	-92.777	0.290	-0.080
-66.407	347.245	0.200	0.389
-65.392	-87.117	0.207	-0.062
-64.378	-46.491	0.028	-0.013
-63.363	53.322	0.097	0.092
-62.349	-200.000	-0.010	0.180
-61.334	66.378	-0.891	-0.894
-60.319	4.267	0.556	0.402
-59.305	-200.000	-0.124	-0.888
-58.290	387.658	0.575	1.174
-57.276	800.000	0.362	1.419
-56.261	-200.000	97.477	576.473
-55.246	631.789	1393.044	3481.986
-54.232	190.633	2587.874	3839.400
-53.217	121.215	2161.779	2656.567
-52.203	46.006	1617.808	1477.900
-51.188	37.944	1354.445	1188.402
-50.173	34.618	1312.471	1131.851
-49.159	57.359	1360.433	1310.808
-48.144	61.073	1378.487	1350.493
-47.130	38.206	1333.745	1171.628
-46.115	34.549	1316.279	1134.544
-45.100	34.443	1311.579	1129.822
-44.086	34.357	1309.202	1127.221
-43.071	34.221	1306.795	1124.296
-42.057	34.125	1305.156	1122.279
-41.042	34.271	1303.494	1121.663
-40.027	34.298	1301.898	1120.407
-39.013	34.265	1300.162	1118.676
-37.998	34.162	1298.711	1116.777
-36.984	34.440	1296.346	1116.323
-35.969	34.395	1294.614	1114.524
-34.954	34.299	1293.709	1113.142
-33.940	34.531	1291.714	1112.736
-32.925	34.577	1290.472	1111.890
-31.911	34.453	1289.120	1109.961
-30.896	34.501	1287.655	1108.934
-29.881	34.441	1286.643	1107.668
-28.867	34.477	1285.315	1106.692
-27.852	34.546	1283.750	1105.701
-26.838	34.578	1281.826	1104.180
-25.823	34.440	1280.821	1102.477
-24.809	34.485	1279.511	1101.561
-23.794	34.454	1278.182	1100.199
-22.779	34.449	1277.457	1099.500
-21.765	34.451	1275.850	1098.086
-20.750	34.475	1274.190	1096.753
-19.736	34.384	1272.995	1095.157
-18.721	34.421	1271.982	1094.455
-17.706	34.343	1270.532	1092.713
-16.692	34.263	1269.629	1091.435
-15.677	34.267	1268.767	1090.673
-14.663	34.285	1267.749	1089.861
-13.648	34.351	1266.259	1088.915
-12.633	34.294	1265.737	1088.094
-11.619	34.265	1264.735	1087.023
-10.604	34.277	1263.645	1086.111
-9.590	34.302	1262.671	1085.374
-8.575	34.281	1261.671	1084.352
-7.560	34.277	1261.076	1083.774
-6.546	34.314	1259.983	1083.006
-5.531	34.247	1259.169	1081.879
-4.517	34.418	1257.827	1081.656
-3.502	34.195	1258.079	1080.561
-2.487	34.342	1256.280	1079.809
-1.473	34.202	1252.694	1075.890
-0.458	32.549	1237.622	1053.664
0.556	28.222	1219.111	1012.539
1.571	24.204	1223.996	994.141
2.586	23.142	1239.663	1000.767
3.600	22.211	1229.170	986.987
4.615	16.999	1157.484	901.715
5.629	8.808	1082.317	802.219
6.644	5.075	1062.151	768.834
7.659	4.641	1060.379	765.345
8.673	4.925	1058.851	765.570
9.688	4.920	1057.309	764.365
10.702	5.033	1055.766	763.735
11.717	9.439	1062.241	790.021
12.731	16.854	1072.665	834.336
13.746	19.794	1074.640	850.273
14.761	18.937	1073.359	844.974
15.775	17.857	1071.101	837.820
16.790	16.772	1069.374	831.075
17.804	15.940	1067.698	825.625
18.819	15.600	1067.002	823.345
19.834	15.429	1065.747	821.470
20.848	15.332	1065.236	820.527
21.863	14.967	1064.329	817.970
22.877	14.871	1063.630	816.891
23.892	14.869	1062.916	816.263
24.907	14.973	1061.645	815.722
25.921	14.867	1061.230	814.814
26.936	14.884	1060.172	814.014
27.950	14.864	1058.296	812.401
28.965	14.965	1056.902	811.749
29.980	15.146	1055.461	811.451
30.994	15.112	1054.488	810.467
32.009	15.240	1053.160	809.992
33.023	15.243	1052.295	809.270
34.038	15.076	1051.431	807.728
35.053	15.008	1050.691	806.759
36.067	15.065	1049.106	805.746
37.082	14.955	1049.031	805.088
38.096	15.080	1048.133	804.928
39.111	15.154	1047.550	804.763
40.126	15.018	1045.977	802.831
41.140	15.042	1044.403	801.667
42.155	14.760	1043.765	799.755
43.169	14.746	1042.665	798.778
44.184	14.769	1041.430	797.872
45.199	14.717	1040.432	796.788
46.213	14.855	1039.638	796.765
47.228	14.939	1038.789	796.445
48.242	15.039	1037.182	795.616
49.257	14.963	1036.331	794.533
50.271	14.990	1035.983	794.326
51.286	15.044	1034.938	793.711
52.301	14.993	1033.809	792.533
53.315	14.905	1033.011	791.435
54.330	14.890	1031.449	790.097
55.344	14.789	1031.635	789.692
56.359	14.884	1030.035	788.847
57.374	14.835	1029.393	788.051
58.388	14.800	1028.336	787.010
59.403	14.803	1027.130	786.028
60.417	14.779	1026.594	785.436
61.432	14.614	1026.193	784.286
62.447	14.706	1025.036	783.765
63.461	14.593	1024.702	782.907
64.476	14.666	1023.380	782.171
65.490	14.601	1022.831	781.379
66.505	14.641	1022.062	780.907
67.520	14.714	1021.379	780.658
68.534	14.735	1020.383	779.926
69.549	14.730	1019.771	779.366
70.563	14.747	1018.845	778.670
71.578	14.693	1018.322	777.948
72.593	14.589	1017.225	776.558
73.607	14.609	1016.471	776.007
74.622	14.569	1016.211	775.552
75.636	14.683	1015.345	775.354
76.651	14.641	1014.492	774.441
77.666	14.583	1013.935	773.678
78.680	14.751	1012.888	773.588
79.695	14.584	1012.627	772.544
80.709	14.724	1012.029	772.667
81.724	14.722	1011.302	772.036
82.739	14.868	1010.474	772.009
83.753	14.995	1009.772	771.992
84.768	15.090	1009.037	771.798
85.782	15.067	1008.129	770.931
86.797	15.104	1007.102	770.246
87.812	14.994	1006.175	768.964
88.826	15.041	1005.504	768.598
89.841	15.064	1004.483	767.859
90.855	15.094	1003.691	767.321
91.870	15.015	1003.130	766.463
92.884	15.301	1001.425	766.402
93.899	15.102	1000.983	765.082
94.914	15.271	1000.112	765.123
95.928	15.243	999.212	764.239
96.943	15.149	998.260	763.014
97.957	15.198	997.542	762.620
98.972	15.086	996.680	761.386
99.987	15.088	996.019	760.824
101.001	15.125	994.821	760.007
102.016	15.271	993.626	759.688
103.030	15.176	992.880	758.623
104.045	15.020	992.727	757.731
105.060	15.075	991.620	757.068
106.074	14.894	990.877	755.613
107.089	14.787	989.933	754.347
108.103	14.799	988.887	753.537
109.118	14.788	987.802	752.595
110.133	14.791	987.091	751.996
111.147	14.736	986.379	751.140
112.162	14.915	985.242	751.014
113.176	14.851	984.782	750.309
114.191	14.916	984.011	749.948
115.206	15.065	982.887	749.691
116.220	14.882	982.380	748.420
117.235	14.891	981.355	747.611
118.249	14.934	980.680	747.223
119.264	14.936	979.634	746.371
120.279	14.754	979.082	745.071
121.293	14.802	978.321	744.639
122.308	14.795	977.316	743.779
123.322	14.758	976.491	742.919
124.337	14.665	975.640	741.794
125.352	14.730	973.936	740.722
126.366	14.790	973.147	740.322
127.381	14.731	972.031	739.147
128.395	14.682	971.964	738.813
129.410	14.799	970.649	738.265
130.424	14.897	969.678	737.891
131.439	14.898	968.868	737.216
132.454	14.931	968.396	736.936
133.468	14.948	967.518	736.281
134.483	15.041	966.407	735.776
135.497	15.017	965.743	735.099
136.512	14.939	964.798	733.972
137.527	14.873	964.223	733.182
138.541	14.830	963.640	732.485
139.556	14.890	963.217	732.362
140.570	15.239	962.320	733.140
141.585	15.186	961.768	732.425
142.600	15.238	960.681	731.761
143.614	15.315	959.802	731.360
144.629	15.244	959.205	730.532
145.643	15.332	958.110	730.017
146.658	15.102	957.176	728.240
147.673	15.071	956.135	727.251
148.687	14.893	955.527	725.950
149.702	14.990	954.412	725.458
150.716	14.966	953.497	724.596
151.731	15.004	952.848	724.201
152.746	14.981	952.414	723.710
153.760	14.937	951.959	723.109
154.775	15.131	951.296	723.380
155.789	15.278	950.392	723.263
156.804	15.258	949.863	722.712
157.819	15.192	949.309	721.941
158.833	15.342	948.138	721.632
159.848	15.437	947.702	721.642
160.862	15.277	947.013	720.368
161.877	15.151	946.054	719.034
162.892	14.981	944.859	717.331
163.906	15.126	944.113	717.323
164.921	15.144	942.978	716.475
165.935	15.225	941.981	716.000
166.950	15.251	941.048	715.339
167.964	15.140	940.644	714.494
168.979	15.158	939.445	713.595
169.994	15.288	938.643	713.479
171.008	15.291	937.747	712.749
172.023	15.397	937.463	712.917
173.037	15.346	936.945	712.245
174.052	15.261	936.023	711.119
175.067	15.287	935.221	710.559
176.081	15.028	935.011	709.239
177.096	15.042	934.417	708.785
178.110	15.208	933.515	708.740
179.125	15.225	932.991	708.350
180.140	15.133	933.024	707.927
181.154	15.295	932.186	707.911
182.169	15.490	931.202	707.922
183.183	15.479	931.109	707.745
184.198	15.384	930.371	706.721
185.213	15.381	929.893	706.282
186.227	15.388	928.793	705.412
187.242	15.528	928.097	705.411
188.256	15.566	927.940	705.387
189.271	15.703	927.182	705.323
190.286	15.404	926.463	703.461
191.300	15.176	925.467	701.687
192.315	15.094	924.611	700.634
193.329	15.153	924.081	700.417
194.344	15.269	923.637	700.502
195.359	15.410	922.650	700.282
196.373	15.354	922.242	699.675
197.388	15.527	921.736	699.953
198.402	15.565	921.738	700.047
199.417	15.601	920.623	699.290
200.432	15.781	920.502	699.884
201.446	15.731	919.855	699.125
202.461	16.018	918.719	699.388
203.475	15.802	919.136	698.748
204.490	15.679	917.766	697.133
205.504	15.674	917.108	696.553
206.519	15.693	916.494	696.102
207.534	15.591	915.824	695.110
208.548	15.689	915.210	694.990
209.563	15.701	914.419	694.375
210.577	15.686	913.680	693.691
211.592	15.815	913.026	693.666
212.607	15.821	912.282	693.062
213.621	15.869	911.699	692.757
214.636	15.780	910.917	691.735
215.650	15.897	910.246	691.646
216.665	15.777	909.841	690.784
217.680	16.016	908.815	690.924
218.694	16.006	908.170	690.331
219.709	15.894	908.076	689.738
220.723	16.149	906.638	689.628
221.738	15.884	906.239	688.181
222.753	16.063	905.566	688.340
223.767	16.088	904.738	687.751
224.782	16.095	904.359	687.431
225.796	16.011	904.204	686.911
226.811	16.112	902.937	686.299
227.826	16.017	902.501	685.520
228.840	15.995	901.534	684.634
229.855	16.077	900.586	684.188
230.869	16.007	900.185	683.537
231.884	15.899	899.805	682.753
232.899	15.986	898.958	682.402
233.913	15.843	898.359	681.306
234.928	15.807	897.762	680.650
235.942	15.900	896.940	680.341
236.957	15.876	896.542	679.881
237.972	15.848	896.067	679.350
238.986	15.923	895.413	679.097
240.001	15.956	894.383	678.386
241.015	16.056	893.880	678.348
242.030	16.095	892.866	677.674
243.045	16.108	892.535	677.416
244.059	16.049	892.613	677.176
245.074	16.145	891.828	676.908
246.088	16.225	890.733	676.338
247.103	16.148	890.354	675.683
248.117	16.284	889.881	675.807
249.132	16.464	889.410	676.109
250.147	16.629	888.465	675.990
251.161	16.621	888.142	675.654
252.176	16.616	887.729	675.261
253.190	16.793	886.700	675.120
254.205	16.459	886.778	673.791
255.220	16.650	885.680	673.657
256.234	16.586	885.159	672.947
257.249	16.629	884.389	672.473
258.263	16.639	883.591	671.846
259.278	16.600	883.250	671.371
260.293	16.674	882.625	671.132
261.307	16.777	881.770	670.832
262.322	16.884	880.883	670.517
263.336	16.756	880.453	669.626
264.351	16.756	879.894	669.143
265.366	16.967	879.060	669.280
266.380	16.838	878.429	668.233
267.395	16.737	877.695	667.219
268.409	16.717	876.778	666.384
269.424	16.702	876.104	665.753
270.439	16.823	875.476	665.693
271.453	16.866	874.827	665.309
272.468	16.609	874.484	663.981
273.482	16.682	873.915	663.777
274.497	16.692	873.504	663.446
275.512	16.894	872.530	663.437
276.526	16.757	872.373	662.722
277.541	16.746	871.975	662.317
278.555	16.834	871.173	661.994
279.570	16.961	870.466	661.893
280.585	16.942	869.975	661.386
281.599	16.855	869.063	660.296
282.614	17.011	868.010	660.046
283.628	16.866	867.869	659.318
284.643	16.789	867.291	658.519
285.657	16.913	866.431	658.288
286.672	17.005	865.740	658.061
287.687	16.952	865.094	657.308
288.701	16.956	864.689	656.958
289.716	17.128	864.299	657.271
290.730	17.018	863.464	656.149
291.745	17.016	862.969	655.708
292.760	17.095	862.511	655.606
293.774	17.234	861.679	655.455
294.789	17.194	861.081	654.787
295.803	16.992	860.691	653.652
296.818	17.016	859.427	652.729
297.833	17.012	859.008	652.338
298.847	16.997	858.528	651.856
299.862	17.046	857.941	651.543
300.876	17.241	857.248	651.707
301.891	17.236	856.830	651.309
302.906	17.326	856.141	651.076
303.920	17.411	856.238	651.416
304.935	17.304	855.973	650.749
305.949	17.362	854.758	649.988
306.964	17.425	854.246	649.783
307.979	17.377	853.608	649.057
308.993	17.507	852.708	648.808
310.008	17.343	852.703	648.121
311.022	17.380	851.838	647.548
312.037	17.233	850.953	646.259
313.052	17.359	850.394	646.258
314.066	17.208	849.967	645.303
315.081	17.093	849.500	644.452
316.095	17.253	849.003	644.626
317.110	17.201	848.248	643.797
318.125	17.264	847.571	643.466
319.139	17.241	847.364	643.165
320.154	17.284	847.130	643.095
321.168	17.355	846.337	642.704
322.183	17.310	845.705	641.996
323.197	17.435	845.030	641.900
324.212	17.462	844.558	641.585
325.227	17.346	844.060	640.713
326.241	17.456	843.598	640.720
327.256	17.360	843.001	639.849
328.270	17.384	842.592	639.571
329.285	17.384	841.760	638.885
330.300	17.403	841.344	638.581
331.314	17.360	840.976	638.085
332.329	17.511	840.634	638.334
333.343	17.821	839.427	638.521
334.358	17.529	839.619	637.518
335.373	17.567	839.253	637.329
336.387	17.503	839.114	636.927
337.402	17.714	838.591	637.261
338.416	17.688	838.338	636.916
339.431	17.695	838.044	636.664
340.446	17.921	837.557	637.078
341.460	17.874	837.044	636.459
342.475	17.833	836.691	635.981
343.489	17.873	836.578	635.987
344.504	17.925	835.998	635.683
345.519	17.835	835.375	634.819
346.533	17.880	834.720	634.431
347.548	17.894	834.103	633.959
348.562	17.852	833.617	633.376
349.577	17.759	832.658	632.247
350.592	17.936	831.920	632.288
351.606	17.757	831.659	631.369
352.621	17.758	830.809	630.673
353.635	17.768	830.820	630.662
354.650	18.016	829.740	630.703
355.665	17.946	829.238	630.008
356.679	17.974	828.541	629.525
357.694	17.982	828.206	629.245
358.708	17.772	827.728	628.054
359.723	17.944	827.012	628.086
360.738	17.992	826.429	627.763
361.752	18.096	825.558	627.429
362.767	18.029	824.975	626.686
363.781	18.282	824.492	627.187
364.796	18.456	823.986	627.385
365.810	18.316	823.849	626.712
366.825	18.367	823.631	626.678
367.840	18.355	823.129	626.199
368.854	18.183	822.416	624.972
369.869	18.198	822.138	624.758
370.883	18.378	821.495	624.871
371.898	18.307	821.271	624.387
372.913	18.402	820.982	624.457
373.927	18.323	820.248	623.558
374.942	18.296	819.891	623.132
375.956	18.485	819.629	623.567
376.971	18.395	819.434	623.035
377.986	18.548	818.494	622.822
379.000	18.523	817.882	622.209
380.015	18.584	817.765	622.289
381.029	18.636	817.294	622.061
382.044	18.455	816.943	621.083
383.059	18.569	815.861	620.620
384.073	18.564	815.234	620.067
385.088	18.481	814.721	619.325
386.102	18.346	814.546	618.650
387.117	18.520	813.573	618.484
388.132	18.518	812.736	617.784
389.146	18.445	812.471	617.264
390.161	18.565	812.107	617.365
391.175	18.586	811.938	617.258
392.190	18.428	811.489	616.295
393.205	18.577	810.160	615.764
394.219	18.541	810.273	615.668
395.234	18.434	809.516	614.654
396.248	18.330	809.395	614.135
397.263	18.350	809.043	613.886
398.278	18.378	808.238	613.321
399.292	18.383	808.113	613.188
400.307	18.399	807.768	612.929
401.321	18.556	807.397	613.157
402.336	18.385	806.648	611.923
403.350	18.733	805.952	612.584
404.365	18.599	806.130	612.183
405.380	18.732	805.310	611.982
406.394	18.820	805.064	612.054
407.409	18.860	804.610	611.797
408.423	18.850	804.236	611.425
409.438	18.815	804.230	611.241
410.453	18.965	803.383	611.074
411.467	18.894	802.930	610.423
412.482	19.025	802.378	610.414
413.496	18.960	802.229	610.017
414.511	19.050	801.927	610.053
415.526	19.060	801.235	609.507
416.540	19.022	800.649	608.875
417.555	18.945	800.053	608.096
418.569	18.926	800.289	608.154
419.584	19.086	799.330	607.935
420.599	19.089	799.133	607.743
421.613	156.093	1370.771	1792.242
422.628	135.298	1454.086	1792.344
