DTS Sentinel unit serial number:	SN413079Multiplexer serial number:	ORYXHardware model number:	OX4-SRSoftware version number:	ORYX F/W v4.00 Oryx Data Collector v3.7.2.0data status	okinstallation	princeton_trtdifferential loss correction	single-endedforward channel	channel 1reverse channel	N/Adate	2019/09/10time	19:40:11forward acquisition time	60.00reverse acquisition time	0.00gamma	496.2192k internal	0.2322k external	0.2322temperature offset calibration	0.9931default loss term (dB/km)	0.3790temperature slope calibration	1.0000multiplexer offset coefficient	1.0000multiplexer slope coefficient	1.0000fibre end	0.00T internal ref (°C)	33.19T ext. ref 1 (°C)	-0.32T ext. ref 2 (°C)	25.95length (m)	temperature (°C)	Stokes	anti-Stokes-747.200	-177.854	0.360	0.009
-746.185	-44.350	-0.151	0.077
-745.171	-187.374	-0.184	0.003
-744.156	-111.824	0.154	-0.032
-743.142	-200.000	0.038	0.376
-742.127	800.000	0.073	-0.225
-741.112	-200.000	0.004	-0.093
-740.098	149.229	0.118	-0.161
-739.083	-144.664	0.196	0.018
-738.069	-200.000	0.038	0.202
-737.054	38.559	0.127	-0.115
-736.039	-178.793	-0.397	0.009
-735.025	-200.000	-0.018	0.304
-734.010	-59.280	0.201	-0.087
-732.996	-39.602	-0.231	-0.122
-731.981	800.000	0.033	-0.106
-730.966	-102.445	0.180	-0.044
-729.952	396.212	-0.114	0.240
-728.937	271.388	-0.070	0.125
-727.923	800.000	-0.069	0.203
-726.908	-54.253	0.134	-0.061
-725.894	166.716	0.078	0.112
-724.879	60.109	0.160	-0.160
-723.864	-108.235	-0.383	-0.084
-722.850	-184.233	-0.215	-0.004
-721.835	800.000	0.074	-0.241
-720.821	800.000	0.058	-0.254
-719.806	-2.606	-0.141	-0.100
-718.791	-90.994	-0.073	-0.021
-717.777	-54.927	-0.209	-0.095
-716.762	-51.699	0.274	-0.129
-715.748	475.716	0.143	-0.325
-714.733	795.689	-0.040	0.112
-713.718	800.000	0.106	0.445
-712.704	192.180	-0.171	0.260
-711.689	722.776	-0.021	-0.057
-710.675	-122.275	-0.253	-0.042
-709.660	-147.818	-0.263	-0.022
-708.645	-123.170	-0.219	-0.035
-707.631	13.915	0.204	-0.160
-706.616	29.472	0.026	-0.022
-705.602	107.076	-0.172	-0.207
-704.587	-118.334	0.137	-0.025
-703.572	800.000	-0.029	-0.093
-702.558	-200.000	-0.039	-0.201
-701.543	398.804	0.053	-0.111
-700.529	13.075	0.190	-0.148
-699.514	-200.000	0.012	-0.157
-698.499	177.658	0.171	0.251
-697.485	800.000	-0.076	-0.222
-696.470	-147.148	-0.164	0.014
-695.456	-200.000	-0.003	0.262
-694.441	716.018	0.050	0.133
-693.426	50.763	-0.109	0.104
-692.412	-109.698	0.410	0.087
-691.397	-200.000	0.069	0.323
-690.383	41.802	-0.143	0.131
-689.368	-110.409	-0.377	0.079
-688.354	-92.296	-0.164	-0.046
-687.339	776.872	0.085	0.235
-686.324	-200.000	-0.006	0.179
-685.310	-58.339	-0.067	-0.030
-684.295	-200.000	-0.076	-0.345
-683.281	-34.591	0.137	-0.075
-682.266	564.745	0.118	-0.288
-681.251	800.000	-0.063	0.213
-680.237	-2.932	-0.060	0.042
-679.222	-194.351	0.158	0.001
-678.208	-47.470	0.294	-0.144
-677.193	800.000	-0.059	0.202
-676.178	370.577	-0.143	0.292
-675.164	-110.145	0.303	-0.064
-674.149	9.721	-0.119	0.091
-673.135	-200.000	-0.023	0.286
-672.120	415.263	0.025	-0.054
-671.105	158.088	0.072	-0.101
-670.091	-33.251	-0.194	-0.108
-669.076	18.501	-0.231	0.186
-668.062	-121.531	0.139	-0.023
-667.047	-200.000	0.024	0.194
-666.032	800.000	0.038	-0.107
-665.018	503.469	0.044	-0.102
-664.003	-121.039	-0.113	-0.019
-662.989	-12.607	0.293	-0.193
-661.974	-200.000	-0.089	-0.409
-660.959	-200.000	-0.015	0.081
-659.945	-42.914	0.043	0.022
-658.930	-52.704	0.205	-0.095
-657.916	-67.261	0.133	-0.053
-656.901	24.497	-0.198	0.165
-655.886	-47.477	-0.127	0.062
-654.872	-79.397	-0.385	-0.131
-653.857	-120.256	0.397	0.068
-652.843	-131.454	0.032	-0.004
-651.828	-114.370	0.313	-0.061
-650.814	-142.184	0.065	0.006
-649.799	-114.649	0.430	-0.083
-648.784	-200.000	-0.004	0.114
-647.770	-92.107	0.207	0.059
-646.755	23.969	-0.290	0.241
-645.741	-36.555	-0.122	-0.066
-644.726	-43.110	-0.445	0.227
-643.711	154.827	-0.069	-0.096
-642.697	31.786	0.277	-0.240
-641.682	-90.705	-0.099	0.029
-640.668	-200.000	-0.010	0.154
-639.653	-124.768	-0.167	0.026
-638.638	-120.126	-0.099	0.017
-637.624	-8.735	-0.111	-0.075
-636.609	187.209	-0.039	0.058
-635.595	-200.000	0.002	-0.065
-634.580	-131.603	0.188	-0.025
-633.565	-39.090	-0.290	0.154
-632.551	277.289	-0.115	-0.206
-631.536	800.000	0.035	-0.139
-630.522	-172.317	-0.386	0.012
-629.507	-200.000	0.014	0.064
-628.492	-106.612	0.367	-0.082
-627.478	-34.229	-0.406	-0.224
-626.463	-3.854	-0.211	-0.147
-625.449	123.851	0.200	-0.253
-624.434	188.076	0.021	-0.032
-623.419	-175.197	-0.177	-0.005
-622.405	133.377	0.176	0.229
-621.390	-13.229	-0.171	0.112
-620.376	800.000	-0.078	-0.322
-619.361	-144.036	-0.200	-0.019
-618.346	-169.594	-0.424	-0.015
-617.332	28.411	-0.117	-0.100
-616.317	321.269	0.047	0.090
-615.303	-200.000	0.055	0.392
-614.288	-200.000	-0.000	0.029
-613.273	85.172	0.187	0.206
-612.259	507.375	0.064	-0.150
-611.244	3.975	0.165	-0.121
-610.230	792.375	-0.012	-0.034
-609.215	568.721	-0.069	-0.167
-608.201	129.068	-0.388	0.498
-607.186	-64.987	-0.054	-0.022
-606.171	153.824	-0.121	-0.167
-605.157	524.920	0.157	-0.370
-604.142	-110.729	0.095	0.020
-603.128	32.303	-0.080	-0.070
-602.113	-99.065	0.131	-0.033
-601.098	157.247	-0.111	0.155
-600.084	-200.000	-0.031	0.137
-599.069	-123.819	-0.157	0.025
-598.055	-200.000	0.050	-0.535
-597.040	-74.601	0.176	0.064
-596.025	-3.775	-0.158	-0.110
-595.011	225.505	0.137	0.223
-593.996	-52.064	-0.256	0.119
-592.982	-5.527	-0.127	-0.087
-591.967	800.000	0.059	0.240
-590.952	-200.000	0.014	-0.105
-589.938	554.478	-0.044	0.105
-588.923	121.127	-0.156	0.194
-587.909	-10.352	-0.239	-0.159
-586.894	-30.665	0.114	0.065
-585.879	71.034	-0.237	0.246
-584.865	-136.048	0.281	-0.033
-583.850	-200.000	0.029	-0.294
-582.836	40.858	-0.167	0.152
-581.821	-33.796	0.224	-0.124
-580.806	15.714	-0.118	-0.093
-579.792	701.460	0.093	0.245
-578.777	3.934	-0.059	-0.044
-577.763	-200.000	0.002	0.164
-576.748	-42.535	0.139	0.071
-575.733	182.886	-0.068	0.100
-574.719	-96.587	0.213	-0.056
-573.704	800.000	-0.033	0.114
-572.690	183.602	-0.057	-0.084
-571.675	137.295	0.241	-0.316
-570.661	-200.000	-0.038	0.237
-569.646	599.523	0.060	-0.149
-568.631	-129.294	0.308	-0.043
-567.617	157.498	-0.186	-0.258
-566.602	72.519	0.345	-0.361
-565.588	800.000	-0.029	-0.081
-564.573	-48.139	-0.087	0.042
-563.558	800.000	-0.063	-0.210
-562.544	-75.163	-0.045	0.016
-561.529	-200.000	-0.007	-0.256
-560.515	467.086	0.109	0.245
-559.500	1.367	0.040	-0.029
-558.485	196.314	0.065	0.100
-557.471	-35.090	0.299	0.163
-556.456	196.436	0.096	-0.146
-555.442	-2.516	-0.270	-0.190
-554.427	-200.000	0.015	-0.084
-553.412	10.826	0.286	-0.219
-552.398	-20.888	0.207	-0.127
-551.383	-125.252	-0.139	-0.021
-550.369	246.536	-0.177	0.299
-549.354	113.977	-0.050	-0.061
-548.339	-46.098	-0.050	0.025
-547.325	-117.943	0.186	0.033
-546.310	-200.000	-0.022	0.137
-545.296	146.646	0.114	-0.153
-544.281	-71.034	-0.263	0.099
-543.266	139.756	0.107	-0.141
-542.252	-26.871	-0.258	0.151
-541.237	242.986	0.106	-0.178
-540.223	512.643	0.062	-0.144
-539.208	-45.111	0.077	-0.038
-538.193	50.948	-0.177	-0.168
-537.179	108.947	-0.117	0.141
-536.164	-111.448	0.327	-0.067
-535.150	-1.195	0.439	-0.311
-534.135	-159.249	0.258	0.015
-533.121	-22.693	0.077	0.046
-532.106	305.282	0.098	0.183
-531.091	-200.000	-0.020	0.153
-530.077	-200.000	-0.013	0.130
-529.062	160.688	0.254	0.356
-528.048	-200.000	0.015	0.167
-527.033	158.742	0.221	0.307
-526.018	477.467	-0.050	-0.113
-525.004	28.872	-0.170	-0.145
-523.989	-105.601	-0.482	0.109
-522.975	4.842	0.268	0.197
-521.960	370.411	0.057	0.115
-520.945	-98.547	-0.250	0.064
-519.931	-177.355	-0.396	0.010
-518.916	-43.987	0.139	-0.070
-517.902	-200.000	-0.002	0.197
-516.887	147.809	-0.110	0.148
-515.872	-200.000	-0.002	-0.149
-514.858	168.394	0.160	-0.228
-513.843	-63.883	-0.236	-0.097
-512.829	151.205	0.273	0.372
-511.814	-90.130	-0.252	-0.073
-510.799	-37.835	0.340	-0.181
-509.785	-128.725	-0.238	-0.034
-508.770	361.847	0.124	-0.248
-507.756	379.288	0.138	-0.282
-506.741	800.000	0.017	0.056
-505.726	-64.107	-0.153	0.062
-504.712	153.953	0.228	-0.313
-503.697	-200.000	-0.045	-0.300
-502.683	-119.573	-0.235	0.041
-501.668	-51.404	0.162	-0.076
-500.653	800.000	-0.070	0.214
-499.639	-200.000	-0.031	0.139
-498.624	-72.935	0.242	0.089
-497.610	124.331	-0.216	-0.271
-496.595	551.818	0.147	-0.352
-495.581	-46.191	-0.124	-0.061
-494.566	-200.000	0.003	0.241
-493.551	229.495	-0.301	-0.491
-492.537	375.533	-0.067	0.138
-491.522	-193.730	0.120	0.001
-490.508	221.499	-0.095	-0.153
-489.493	123.929	0.091	-0.115
-488.478	327.343	-0.107	0.205
-487.464	-106.498	-0.124	0.028
-486.449	118.675	0.104	0.128
-485.435	-144.758	0.156	0.014
-484.420	78.061	0.092	0.098
-483.405	-46.443	0.087	0.043
-482.391	548.988	-0.138	0.330
-481.376	-84.183	0.222	0.070
-480.362	-71.638	0.082	0.031
-479.347	-200.000	-0.004	-0.481
-478.332	-13.556	-0.356	-0.231
-477.318	428.744	0.112	0.243
-476.303	-97.224	-0.266	-0.069
-475.289	110.632	0.198	0.239
-474.274	-200.000	0.027	0.254
-473.259	254.212	0.156	0.267
-472.245	165.594	-0.274	0.388
-471.230	-161.098	0.079	0.004
-470.216	145.707	0.091	0.122
-469.201	175.843	-0.251	0.365
-468.186	-91.495	-0.114	-0.032
-467.172	-72.613	0.221	0.081
-466.157	-134.996	-0.271	0.033
-465.143	128.402	-0.089	0.113
-464.128	800.000	0.067	0.267
-463.113	-48.445	0.173	-0.083
-462.099	-200.000	0.028	-0.173
-461.084	-37.901	-0.139	-0.074
-460.070	435.562	0.118	0.256
-459.055	800.000	-0.082	-0.321
-458.040	-200.000	0.018	0.118
-457.026	577.380	-0.088	0.214
-456.011	-51.207	-0.231	0.108
-454.997	-200.000	0.043	0.280
-453.982	551.241	-0.165	0.396
-452.968	-70.740	-0.316	-0.119
-451.953	-98.578	-0.137	0.035
-450.938	-86.275	0.503	0.155
-449.924	68.907	-0.170	-0.174
-448.909	-200.000	0.052	-0.268
-447.895	45.817	-0.263	-0.243
-446.880	-97.022	-0.433	0.113
-445.865	800.000	0.045	-0.173
-444.851	323.777	0.131	0.250
-443.836	-51.302	0.164	0.077
-442.822	800.000	0.004	0.016
-441.807	701.219	-0.100	-0.263
-440.792	800.000	0.157	0.469
-439.778	-120.252	-0.069	-0.012
-438.763	-93.540	0.167	0.046
-437.749	558.640	0.037	0.089
-436.734	29.959	-0.160	-0.136
-435.719	-57.210	0.221	0.097
-434.705	-48.111	0.232	0.112
-433.690	57.069	0.200	-0.195
-432.676	-55.366	-0.126	0.056
-431.661	-99.158	0.197	0.050
-430.646	521.998	-0.078	-0.184
-429.632	-70.361	0.232	0.088
-428.617	-200.000	-0.058	-0.415
-427.603	243.279	-0.035	0.059
-426.588	335.245	0.083	0.160
-425.573	276.398	-0.031	-0.054
-424.559	-93.204	-0.476	0.132
-423.544	-200.000	0.000	-0.006
-422.530	18.317	0.128	-0.102
-421.515	152.215	0.076	0.104
-420.500	116.548	0.172	0.211
-419.486	800.000	0.076	0.291
-418.471	170.019	-0.270	-0.385
-417.457	252.347	-0.104	0.177
-416.442	-65.224	0.093	0.037
-415.428	-92.432	-0.261	0.073
-414.413	-126.798	0.153	-0.023
-413.398	359.457	0.091	-0.182
-412.384	-200.000	-0.011	-0.110
-411.369	71.592	-0.172	-0.178
-410.355	111.915	0.151	0.182
-409.340	-49.997	-0.116	0.055
-408.325	53.173	0.050	-0.048
-407.311	-15.629	-0.145	0.092
-406.296	245.068	-0.134	-0.225
-405.282	744.506	-0.092	-0.247
-404.267	-32.934	0.106	0.059
-403.252	-80.151	0.204	-0.068
-402.238	328.059	0.137	0.262
-401.223	-81.128	-0.077	0.025
-400.209	-189.687	0.102	0.001
-399.194	-143.263	0.180	-0.017
-398.179	-200.000	-0.047	-0.235
-397.165	333.809	0.198	-0.381
-396.150	800.000	0.031	-0.085
-395.136	210.193	-0.095	0.148
-394.121	-200.000	-0.004	0.255
-393.106	-26.793	0.048	0.028
-392.092	800.000	0.021	0.075
-391.077	-102.404	0.486	-0.116
-390.063	-200.000	-0.015	0.119
-389.048	-110.183	0.252	-0.052
-388.033	184.249	-0.119	-0.176
-387.019	146.080	-0.078	-0.104
-386.004	227.394	-0.138	-0.223
-384.990	-200.000	0.038	-0.360
-383.975	-94.371	-0.365	0.099
-382.960	45.978	-0.274	0.253
-381.946	800.000	-0.069	-0.211
-380.931	-145.727	0.530	-0.047
-379.917	-58.444	-0.154	-0.067
-378.902	-56.536	0.183	-0.081
-377.888	549.864	-0.041	-0.098
-376.873	-116.161	-0.096	0.018
-375.858	800.000	-0.116	0.362
-374.844	-158.113	0.153	-0.009
-373.829	177.734	0.130	-0.188
-372.815	90.846	0.306	-0.342
-371.800	-200.000	-0.001	0.279
-370.785	358.699	0.060	-0.120
-369.771	-200.000	0.037	-0.258
-368.756	800.000	-0.042	0.118
-367.742	97.251	-0.089	0.102
-366.727	208.300	0.120	0.187
-365.712	800.000	0.042	0.129
-364.698	-38.808	0.052	-0.027
-363.683	289.516	0.182	-0.329
-362.669	-1.672	-0.240	-0.168
-361.654	-200.000	0.002	0.130
-360.639	-99.249	-0.255	-0.064
-359.625	800.000	0.090	-0.293
-358.610	-9.482	0.149	-0.099
-357.596	254.763	0.042	-0.072
-356.581	-28.826	0.177	0.101
-355.566	-9.743	-0.107	-0.071
-354.552	-91.268	0.056	0.016
-353.537	800.000	0.109	-0.393
-352.523	-21.504	-0.102	-0.062
-351.508	-9.928	0.090	0.060
-350.493	-200.000	0.009	0.094
-349.479	121.268	-0.039	0.049
-348.464	568.640	-0.067	-0.163
-347.450	185.600	-0.056	0.083
-346.435	306.496	-0.223	-0.414
-345.420	-67.548	0.120	-0.047
-344.406	468.611	-0.115	-0.258
-343.391	-200.000	0.027	0.178
-342.377	-154.751	0.037	0.002
-341.362	800.000	-0.034	0.122
-340.348	-135.490	-0.383	0.045
-339.333	-20.804	0.282	-0.172
-338.318	-200.000	0.072	0.338
-337.304	-102.708	-0.156	0.037
-336.289	-134.268	0.404	0.049
-335.275	145.881	0.084	0.111
-334.260	-112.186	0.297	0.059
-333.245	-200.000	-0.021	0.206
-332.231	55.461	0.091	-0.087
-331.216	67.045	-0.193	0.195
-330.202	457.028	-0.057	-0.126
-329.187	489.532	0.086	-0.196
-328.172	-200.000	0.044	-0.460
-327.158	-200.000	-0.012	0.234
-326.143	186.298	-0.097	-0.144
-325.129	800.000	0.139	0.548
-324.114	42.817	-0.157	0.143
-323.099	-135.982	-0.078	-0.009
-322.085	-19.292	-0.028	-0.017
-321.070	-200.000	0.083	0.424
-320.056	-200.000	0.038	0.322
-319.041	0.699	-0.117	0.083
-318.026	273.393	0.148	0.260
-317.012	-168.316	-0.151	0.006
-315.997	263.901	0.165	0.285
-314.983	195.046	0.067	-0.100
-313.968	-59.495	-0.195	0.083
-312.953	-48.989	-0.048	-0.023
-311.939	533.864	0.062	0.146
-310.924	-113.344	0.015	-0.003
-309.910	368.131	0.095	0.191
-308.895	-3.610	-0.391	0.270
-307.880	-116.198	-0.099	-0.018
-306.866	13.489	0.115	-0.088
-305.851	10.463	-0.059	0.045
-304.837	-200.000	-0.046	0.206
-303.822	51.012	-0.320	0.302
-302.807	-71.668	-0.171	-0.064
-301.793	-129.344	-0.071	-0.010
-300.778	-200.000	-0.020	-0.598
-299.764	-63.946	-0.022	-0.009
-298.749	-11.847	0.185	-0.120
-297.735	-200.000	-0.014	0.320
-296.720	75.691	0.154	0.161
-295.705	11.777	0.121	-0.092
-294.691	-111.008	0.230	0.047
-293.676	-62.622	0.202	0.083
-292.662	86.750	-0.036	0.039
-291.647	-113.459	-0.290	0.056
-290.632	523.011	-0.142	0.331
-289.618	800.000	0.060	-0.218
-288.603	-99.824	-0.188	0.047
-287.589	-33.223	-0.215	-0.118
-286.574	-111.697	0.229	0.046
-285.559	-102.867	-0.056	0.013
-284.545	413.638	-0.103	-0.218
-283.530	176.219	-0.114	-0.165
-282.516	-103.078	0.183	0.043
-281.501	-78.871	-0.441	-0.149
-280.486	-127.586	0.287	0.041
-279.472	320.830	-0.035	0.065
-278.457	-200.000	0.019	0.181
-277.443	-129.472	-0.314	0.043
-276.428	-200.000	0.049	-0.260
-275.413	800.000	-0.089	-0.334
-274.399	-200.000	-0.047	-0.400
-273.384	-65.043	-0.142	-0.057
-272.370	800.000	-0.105	0.414
-271.355	56.813	-0.124	-0.120
-270.340	-18.094	-0.077	0.048
-269.326	793.029	0.061	0.166
-268.311	800.000	-0.079	-0.238
-267.297	228.440	-0.110	0.177
-266.282	-200.000	-0.002	-0.156
-265.267	-200.000	-0.032	0.185
-264.253	-42.313	0.142	-0.072
-263.238	-69.258	0.155	-0.059
-262.224	-200.000	0.012	-0.193
-261.209	136.051	-0.140	-0.181
-260.195	-106.172	0.515	0.115
-259.180	-29.775	-0.054	-0.031
-258.165	-6.513	0.046	0.031
-257.151	7.837	0.180	-0.134
-256.136	-30.021	-0.066	0.037
-255.122	83.349	0.073	-0.078
-254.107	800.000	-0.072	0.229
-253.092	-200.000	-0.022	0.095
-252.078	23.383	0.108	-0.088
-251.063	-200.000	0.074	-0.333
-250.049	50.596	0.079	-0.074
-249.034	36.561	0.111	0.097
-248.019	-115.742	0.245	-0.045
-247.005	23.556	0.327	0.267
-245.990	259.849	0.084	-0.145
-244.976	28.515	0.334	0.280
-243.961	70.087	0.154	0.158
-242.946	-48.720	0.235	-0.112
-241.932	58.935	0.075	-0.073
-240.917	8.587	-0.242	-0.181
-239.903	21.131	-0.385	-0.309
-238.888	-200.000	-0.018	0.107
-237.873	358.668	-0.062	0.123
-236.859	-200.000	0.000	0.141
-235.844	800.000	-0.068	-0.266
-234.830	14.026	0.073	-0.056
-233.815	-200.000	-0.013	0.107
-232.800	-115.495	0.054	-0.010
-231.786	-169.346	0.570	0.021
-230.771	-200.000	-0.024	0.186
-229.757	-57.517	-0.055	-0.024
-228.742	66.452	-0.175	-0.176
-227.727	-33.241	0.450	0.247
-226.713	103.237	-0.033	-0.038
-225.698	-47.398	-0.152	-0.073
-224.684	60.171	-0.193	-0.189
-223.669	259.389	0.060	0.102
-222.655	-16.982	0.299	0.187
-221.640	800.000	-0.007	-0.021
-220.625	-161.638	-0.364	-0.018
-219.611	-165.449	-0.189	-0.008
-218.596	91.939	-0.048	0.054
-217.582	-48.969	0.049	-0.023
-216.567	-200.000	-0.010	0.154
-215.552	171.808	0.097	0.137
-214.538	37.480	-0.361	0.317
-213.523	84.774	-0.118	0.128
-212.509	800.000	0.085	-0.265
-211.494	-144.255	-0.065	-0.006
-210.479	-95.157	-0.079	0.021
-209.465	-96.044	0.181	0.048
-208.450	-200.000	-0.048	0.382
-207.436	86.224	0.161	0.176
-206.421	-200.000	0.004	-0.123
-205.406	-136.791	-0.202	-0.023
-204.392	434.858	0.066	0.142
-203.377	80.894	0.150	-0.160
-202.363	-146.074	-0.186	0.016
-201.348	248.312	0.181	-0.302
-200.333	-137.002	-0.378	0.043
-199.319	-71.410	-0.272	-0.101
-198.304	-39.141	0.415	-0.216
-197.290	-200.000	0.001	0.098
-196.275	645.710	0.132	-0.334
-195.260	800.000	-0.076	0.217
-194.246	798.874	0.129	-0.353
-193.231	474.683	0.111	-0.249
-192.217	-162.938	0.289	-0.014
-191.202	208.974	-0.167	-0.258
-190.187	-30.351	0.287	0.161
-189.173	-2.214	0.120	-0.083
-188.158	800.000	-0.162	-0.477
-187.144	-114.878	-0.244	-0.046
-186.129	-3.392	-0.205	-0.141
-185.114	288.689	-0.243	0.436
-184.100	584.131	0.116	-0.283
-183.085	-200.000	-0.001	-0.159
-182.071	75.118	0.161	0.167
-181.056	229.901	0.115	-0.185
-180.042	-45.026	0.055	0.027
-179.027	-200.000	-0.020	-0.166
-178.012	-92.695	-0.129	-0.036
-176.998	0.590	0.062	-0.044
-175.983	86.020	0.244	0.266
-174.969	-40.111	-0.005	0.002
-173.954	-200.000	0.035	-0.205
-172.939	-36.878	-0.044	0.023
-171.925	-88.274	-0.186	0.055
-170.910	-157.869	0.127	-0.007
-169.896	293.732	0.165	0.298
-168.881	-189.856	-0.144	0.002
-167.866	-136.284	-0.101	-0.012
-166.852	510.283	0.113	0.260
-165.837	-115.641	-0.145	0.027
-164.823	-200.000	0.016	-0.094
-163.808	186.075	0.212	0.312
-162.793	443.315	0.108	-0.233
-161.779	-72.450	-0.266	-0.097
-160.764	-117.765	0.196	0.035
-159.750	-200.000	0.037	0.318
-158.735	-42.600	-0.333	0.167
-157.720	62.005	0.235	0.232
-156.706	419.380	-0.072	0.153
-155.691	37.768	0.026	0.023
-154.677	-157.759	0.316	-0.019
-153.662	-73.657	-0.084	-0.030
-152.647	-181.450	-0.416	-0.008
-151.633	-200.000	0.025	-0.210
-150.618	-62.954	-0.137	0.056
-149.604	-27.907	-0.082	-0.047
-148.589	115.548	0.156	0.188
-147.574	598.456	-0.023	0.056
-146.560	-200.000	-0.016	0.100
-145.545	-62.842	0.143	-0.058
-144.531	321.986	-0.034	-0.063
-143.516	-123.959	0.213	-0.033
-142.502	-7.473	-0.184	0.123
-141.487	-140.307	-0.297	-0.031
-140.472	2.749	-0.264	0.189
-139.458	495.099	-0.077	0.175
-138.443	144.755	-0.085	-0.112
-137.429	98.180	-0.103	0.118
-136.414	172.713	0.182	-0.258
-135.399	-130.390	-0.075	-0.010
-134.385	-59.033	-0.114	0.049
-133.370	167.719	-0.122	-0.170
-132.356	800.000	-0.067	0.231
-131.341	44.063	-0.078	0.070
-130.326	-67.482	-0.350	0.136
-129.312	-50.920	-0.232	0.108
-128.297	344.223	0.096	-0.186
-127.283	-109.264	-0.292	-0.061
-126.268	49.904	0.307	0.285
-125.253	-146.180	0.066	0.006
-124.239	-200.000	0.293	-0.000
-123.224	-110.314	0.403	-0.083
-122.210	-171.145	-0.232	-0.008
-121.195	-200.000	-0.025	0.304
-120.180	-110.992	0.245	0.050
-119.166	-53.266	0.143	0.065
-118.151	800.000	0.007	0.020
-117.137	-10.563	0.117	0.076
-116.122	-45.842	0.409	0.199
-115.107	-155.793	-0.317	-0.020
-114.093	-114.474	0.111	0.021
-113.078	-57.207	0.187	0.081
-112.064	-0.416	-0.116	0.081
-111.049	-134.286	0.333	0.040
-110.034	-200.000	-0.022	-0.177
-109.020	-200.000	-0.000	-0.206
-108.005	158.330	0.183	0.250
-106.991	121.058	0.128	-0.157
-105.976	800.000	0.023	0.085
-104.962	-200.000	-0.042	-0.525
-103.947	800.000	-0.081	-0.219
-102.932	-200.000	-0.007	-0.126
-101.918	83.152	0.102	0.109
-100.903	-200.000	0.009	-0.047
-99.889	-64.573	0.346	-0.138
-98.874	116.822	-0.174	0.210
-97.859	-200.000	0.026	-0.115
-96.845	21.092	0.240	0.192
-95.830	800.000	0.027	-0.078
-94.816	-133.631	-0.251	-0.031
-93.801	-144.900	-0.290	0.026
-92.786	233.768	-0.127	0.206
-91.772	208.425	0.078	0.120
-90.757	-64.603	0.245	-0.098
-89.743	-112.435	-0.161	-0.032
-88.728	-178.658	0.300	0.007
-87.713	42.372	0.083	0.074
-86.699	-45.574	0.442	0.215
-85.684	-40.864	0.082	0.042
-84.670	-16.318	-0.240	0.150
-83.655	-12.036	0.031	0.020
-82.640	800.000	0.086	-0.260
-81.626	-200.000	0.015	-0.152
-80.611	-200.000	0.009	0.051
-79.597	800.000	0.039	0.106
-78.582	770.148	-0.088	0.236
-77.567	-150.379	0.351	-0.027
-76.553	-27.204	0.142	-0.081
-75.538	32.047	0.116	0.098
-74.524	10.741	-0.088	0.066
-73.509	179.613	-0.062	-0.090
-72.494	800.000	0.041	0.126
-71.480	215.751	0.102	0.159
-70.465	-71.004	0.188	-0.070
-69.451	-8.079	-0.526	-0.349
-68.436	-32.961	0.127	-0.070
-67.422	-200.000	-0.023	0.296
-66.407	-121.441	0.273	0.045
-65.392	659.801	0.076	0.193
-64.378	-26.137	-0.141	0.081
-63.363	-200.000	0.046	0.294
-62.349	239.284	0.061	0.100
-61.334	33.339	-1.268	-1.083
-60.319	-7.031	0.364	0.243
-59.305	800.000	-0.206	-0.863
-58.290	276.977	0.598	1.045
-57.276	475.231	0.622	1.381
-56.261	-200.000	102.002	623.263
-55.246	601.345	1438.542	3515.120
-54.232	183.883	2639.433	3840.732
-53.217	117.786	2169.343	2627.187
-52.203	44.878	1620.702	1467.149
-51.188	36.709	1358.255	1179.964
-50.173	33.496	1316.174	1124.336
-49.159	55.467	1366.903	1301.043
-48.144	57.712	1383.106	1329.967
-47.130	36.803	1338.334	1163.042
-46.115	33.325	1320.799	1127.092
-45.100	33.236	1316.098	1122.508
-44.086	33.017	1313.900	1119.289
-43.071	32.914	1311.490	1116.585
-42.057	32.986	1308.869	1114.732
-41.042	33.059	1307.504	1113.954
-40.027	33.062	1305.890	1112.558
-39.013	32.998	1304.449	1110.909
-37.998	33.027	1302.745	1109.583
-36.984	33.239	1300.765	1109.095
-35.969	33.252	1298.848	1107.495
-34.954	33.209	1297.515	1106.058
-33.940	33.306	1296.480	1105.699
-32.925	33.206	1295.130	1103.924
-31.911	33.221	1293.334	1102.434
-30.896	33.294	1291.856	1101.556
-29.881	33.284	1290.656	1100.432
-28.867	33.211	1288.959	1098.518
-27.852	33.323	1287.550	1097.920
-26.838	33.361	1285.832	1096.633
-25.823	33.350	1284.471	1095.368
-24.809	33.189	1283.566	1093.619
-23.794	33.180	1281.989	1092.183
-22.779	33.179	1280.618	1090.962
-21.765	33.253	1279.460	1090.361
-20.750	33.240	1278.001	1088.997
-19.736	33.215	1276.851	1087.831
-18.721	33.193	1275.606	1086.602
-17.706	33.123	1274.969	1085.616
-16.692	33.125	1273.389	1084.239
-15.677	33.182	1272.047	1083.377
-14.663	33.095	1271.390	1082.280
-13.648	33.128	1269.635	1080.927
-12.633	33.104	1269.066	1080.263
-11.619	33.183	1268.191	1079.928
-10.604	33.240	1267.145	1079.317
-9.590	33.115	1266.648	1078.143
-8.575	33.236	1264.757	1077.177
-7.560	33.202	1264.476	1076.700
-6.546	33.064	1264.335	1075.753
-5.531	33.075	1262.485	1074.196
-4.517	33.128	1261.813	1073.886
-3.502	33.107	1261.100	1073.117
-2.487	33.249	1259.860	1072.827
-1.473	33.119	1255.809	1068.600
-0.458	31.419	1240.579	1046.092
0.556	25.113	1222.432	1004.345
1.571	21.221	1227.012	986.086
2.586	20.304	1241.971	992.776
3.600	19.896	1231.756	982.208
4.615	14.414	1159.388	895.054
5.629	4.466	1082.315	785.383
6.644	0.013	1060.970	747.719
7.659	-0.328	1058.501	744.224
8.673	-0.492	1057.665	742.757
9.688	-0.463	1055.921	741.610
10.702	0.001	1054.189	742.619
11.717	6.029	1063.185	778.846
12.731	15.197	1076.258	834.189
13.746	18.332	1080.291	852.883
14.761	18.289	1079.395	851.888
15.775	18.042	1078.533	849.899
16.790	17.785	1077.616	847.829
17.804	17.742	1077.068	847.109
18.819	17.810	1076.607	847.007
19.834	17.682	1076.267	846.032
20.848	17.764	1075.386	845.668
21.863	17.786	1074.616	845.095
22.877	17.762	1074.026	844.437
23.892	17.679	1073.666	843.671
24.907	17.774	1072.801	843.385
25.921	17.727	1071.533	842.083
26.936	17.792	1070.341	841.390
27.950	17.854	1068.628	840.274
28.965	17.656	1066.387	837.469
29.980	17.775	1065.036	836.915
30.994	17.820	1063.933	836.198
32.009	17.827	1062.461	835.001
33.023	17.630	1061.175	832.954
34.038	17.761	1060.452	832.951
35.053	17.873	1060.068	833.122
36.067	17.872	1058.779	832.032
37.082	17.986	1058.035	831.929
38.096	18.107	1057.350	831.903
39.111	18.081	1056.634	831.143
40.126	18.029	1054.695	829.289
41.140	17.669	1053.087	826.207
42.155	17.767	1051.161	825.095
43.169	17.632	1051.085	824.313
44.184	17.686	1049.615	823.346
45.199	17.527	1048.262	821.446
46.213	17.522	1047.564	820.802
47.228	17.608	1046.342	820.184
48.242	17.698	1045.245	819.687
49.257	17.716	1045.097	819.585
50.271	17.744	1043.797	818.627
51.286	17.793	1042.659	817.896
52.301	17.822	1041.788	817.280
53.315	17.799	1040.746	816.281
54.330	17.724	1039.716	815.041
55.344	17.787	1038.894	814.627
56.359	17.789	1037.829	813.728
57.374	17.721	1036.890	812.595
58.388	17.722	1035.808	811.683
59.403	17.697	1035.048	810.896
60.417	17.471	1034.437	809.269
61.432	17.531	1033.740	808.937
62.447	17.611	1033.465	809.030
63.461	17.806	1031.974	808.715
64.476	17.701	1030.830	807.252
65.490	17.690	1029.947	806.438
66.505	17.735	1029.328	806.095
67.520	17.837	1028.175	805.599
68.534	17.560	1027.412	803.626
69.549	17.282	1026.530	801.552
70.563	17.449	1025.521	801.480
71.578	17.354	1024.946	800.513
72.593	17.226	1024.360	799.382
73.607	17.501	1023.807	800.175
74.622	17.615	1023.137	800.116
75.636	17.705	1022.237	799.764
76.651	17.525	1021.425	798.212
77.666	17.313	1020.749	796.620
78.680	17.452	1019.999	796.617
79.695	17.630	1019.380	796.895
80.709	17.693	1019.072	796.878
81.724	17.574	1018.068	795.464
82.739	17.663	1017.048	795.013
83.753	17.947	1016.151	795.567
84.768	17.983	1015.338	795.026
85.782	18.136	1013.817	794.475
86.797	17.997	1013.397	793.431
87.812	17.980	1012.045	792.223
88.826	17.973	1011.584	791.761
89.841	17.957	1010.796	791.000
90.855	18.047	1009.370	790.230
91.870	17.960	1008.770	789.289
92.884	17.915	1007.192	787.774
93.899	17.849	1006.280	786.689
94.914	18.016	1005.595	786.852
95.928	17.988	1004.473	785.775
96.943	17.837	1003.380	784.157
97.957	17.581	1002.316	782.080
98.972	17.223	1001.490	779.726
99.987	17.530	1000.736	780.475
101.001	17.792	999.891	780.946
102.016	17.883	998.638	780.315
103.030	17.691	998.045	778.906
104.045	17.535	996.822	777.172
105.060	17.391	995.757	775.617
106.074	17.673	995.188	776.387
107.089	18.052	994.551	777.549
108.103	17.959	993.499	776.234
109.118	17.955	991.975	774.957
110.133	17.913	990.943	773.890
111.147	17.653	989.868	771.808
112.162	17.574	988.859	770.593
113.176	17.722	988.187	770.669
114.191	17.744	987.311	770.020
115.206	17.256	986.410	767.047
116.220	17.435	985.542	767.110
117.235	17.614	984.211	766.811
118.249	17.619	983.061	765.869
119.264	17.489	982.463	764.752
120.279	17.607	981.789	764.688
121.293	17.661	980.766	764.070
122.308	17.785	980.069	764.013
123.322	17.666	979.211	762.745
124.337	17.526	977.464	760.692
125.352	17.048	975.964	757.323
126.366	17.164	974.357	756.525
127.381	17.708	974.133	758.708
128.395	17.964	973.662	759.413
129.410	17.975	972.781	758.707
130.424	18.044	971.678	758.084
131.439	18.084	970.466	757.249
132.454	17.843	969.880	755.660
133.468	17.775	969.044	754.638
134.483	17.963	968.132	754.693
135.497	18.301	967.222	755.409
136.512	18.095	966.300	753.714
137.527	18.272	965.260	753.614
138.541	18.144	964.837	752.653
139.556	18.181	963.728	751.887
140.570	18.062	963.153	750.850
141.585	18.148	961.608	749.956
142.600	17.927	960.800	748.291
143.614	18.263	959.964	749.044
144.629	18.404	959.165	748.969
145.643	18.202	958.112	747.199
146.658	18.082	956.843	745.618
147.673	18.110	955.770	744.841
148.687	17.985	954.971	743.606
149.702	17.941	953.940	742.548
150.716	18.000	953.367	742.290
151.731	18.115	952.533	742.074
152.746	18.192	951.993	741.922
153.760	18.433	950.758	741.940
154.775	18.218	950.585	740.808
155.789	18.284	949.875	740.475
156.804	18.325	948.712	739.681
157.819	18.272	947.904	738.754
158.833	18.447	947.149	738.856
159.848	18.276	946.293	737.384
160.862	18.238	944.694	735.913
161.877	18.299	944.099	735.647
162.892	18.539	943.052	735.796
163.906	18.465	941.778	734.419
164.921	18.337	941.180	733.337
165.935	18.288	940.579	732.595
166.950	18.355	939.037	731.616
167.964	18.445	938.341	731.392
168.979	18.176	937.248	729.330
169.994	18.220	936.179	728.623
171.008	18.349	935.651	728.696
172.023	18.237	935.005	727.650
173.037	18.034	934.122	726.037
174.052	17.978	932.818	724.720
175.067	18.165	932.423	725.143
176.081	18.291	931.526	724.915
177.096	18.185	930.961	723.964
178.110	18.042	929.806	722.397
179.125	17.779	929.449	720.945
180.140	17.947	928.884	721.152
181.154	17.931	928.270	720.541
182.169	18.174	928.120	721.389
183.183	18.369	927.718	721.832
184.198	18.189	926.719	720.233
185.213	18.146	926.370	719.719
186.227	18.324	925.246	719.531
187.242	18.353	924.082	718.681
188.256	18.426	923.555	718.516
189.271	18.352	923.088	717.776
190.286	18.198	921.368	715.732
191.300	17.722	920.832	713.261
192.315	17.166	919.635	709.950
193.329	17.126	918.841	709.104
194.344	17.803	918.994	711.986
195.359	18.272	918.776	713.713
196.373	18.389	917.841	713.410
197.388	17.925	917.427	711.093
198.402	18.085	916.531	711.001
199.417	18.204	915.605	710.716
200.432	17.766	914.551	708.015
201.446	17.571	913.977	706.700
202.461	17.804	913.287	707.069
203.475	16.975	911.564	702.241
204.490	16.317	910.171	698.387
205.504	17.394	910.948	703.376
206.519	17.791	910.767	704.813
207.534	17.870	910.038	704.514
208.548	18.240	909.811	705.804
209.563	18.106	908.833	704.430
210.577	18.054	908.233	703.689
211.592	18.364	907.573	704.390
212.607	18.431	906.427	703.714
213.621	18.383	905.990	703.113
214.636	18.388	905.703	702.850
215.650	18.279	904.950	701.755
216.665	18.492	904.431	702.164
217.680	18.362	903.327	700.716
218.694	17.872	901.821	697.484
219.709	17.841	901.413	696.980
220.723	18.235	901.089	698.272
221.738	18.162	900.691	697.604
222.753	18.252	899.864	697.269
223.767	18.276	899.395	696.943
224.782	18.568	898.219	697.158
225.796	18.363	898.438	696.430
226.811	17.811	896.408	692.557
227.826	17.378	895.498	690.036
228.840	17.585	895.051	690.468
229.855	17.640	894.042	689.854
230.869	17.324	892.748	687.518
231.884	17.818	892.681	689.399
232.899	18.291	892.825	691.362
233.913	18.351	892.023	690.920
234.928	18.305	891.467	690.243
235.942	18.201	891.107	689.487
236.957	18.016	890.173	687.957
237.972	18.099	889.322	687.571
238.986	18.257	888.508	687.517
240.001	18.149	888.114	686.718
241.015	18.250	887.458	686.553
242.030	18.301	886.515	685.969
243.045	18.366	885.982	685.754
244.059	18.610	885.154	686.029
245.074	18.251	884.297	683.873
246.088	17.986	883.360	682.026
247.103	18.068	883.368	682.301
248.117	18.589	883.092	684.106
249.132	18.703	882.025	683.674
250.147	18.824	881.223	683.472
251.161	18.982	880.906	683.792
252.176	18.876	880.076	682.668
253.190	18.936	879.857	682.675
254.205	19.073	879.283	682.715
255.220	19.038	878.726	682.084
256.234	18.883	877.590	680.526
257.249	18.952	876.590	679.963
258.263	18.928	876.232	679.531
259.278	19.017	875.645	679.365
260.293	19.017	875.032	678.831
261.307	18.934	874.210	677.807
262.322	18.689	872.920	675.782
263.336	17.902	870.967	671.118
264.351	16.936	869.179	665.887
265.366	17.139	868.871	666.392
266.380	18.232	869.580	671.164
267.395	18.634	868.964	672.205
268.409	18.697	868.055	671.690
269.424	18.755	868.097	671.891
270.439	18.770	867.553	671.469
271.453	18.881	867.117	671.504
272.468	19.099	866.577	671.878
273.482	19.108	865.966	671.381
274.497	18.840	864.210	668.916
275.512	18.416	863.872	666.944
276.526	18.811	863.475	668.115
277.541	18.963	862.939	668.234
278.555	18.492	862.313	665.861
279.570	18.449	861.052	664.662
280.585	18.639	860.801	665.146
281.599	18.735	859.814	664.696
282.614	18.218	858.341	661.500
283.628	18.394	858.191	662.006
284.643	18.585	857.868	662.436
285.657	18.232	856.511	659.968
286.672	17.954	856.033	658.469
287.687	18.627	855.619	660.684
288.701	18.606	854.998	660.066
289.716	18.123	854.579	657.825
290.730	18.105	853.734	657.048
291.745	18.026	852.266	655.559
292.760	18.199	852.326	656.208
293.774	19.105	852.688	659.903
294.789	19.264	852.712	660.473
295.803	19.341	852.075	660.219
296.818	19.586	851.284	660.484
297.833	19.235	849.539	657.732
298.847	18.993	848.990	656.324
299.862	19.137	849.380	657.119
300.876	19.452	848.799	657.812
301.891	19.154	847.834	655.871
302.906	18.660	846.902	653.213
303.920	18.996	846.174	653.870
304.935	19.160	846.008	654.307
305.949	19.193	845.605	654.063
306.964	19.098	845.031	653.199
307.979	19.337	844.422	653.578
308.993	19.478	844.218	653.897
310.008	19.556	843.178	653.329
311.022	19.352	842.438	651.925
312.037	19.099	842.194	650.724
313.052	19.053	841.052	649.610
314.066	18.417	839.826	646.207
315.081	18.045	839.182	644.251
316.095	18.792	839.212	647.031
317.110	19.207	839.308	648.614
318.125	18.495	837.782	644.699
319.139	17.663	836.658	640.650
320.154	17.788	836.024	640.577
321.168	18.477	836.363	643.369
322.183	18.998	836.094	645.058
323.197	19.186	835.870	645.535
324.212	19.258	835.704	645.620
325.227	19.237	834.782	644.769
326.241	19.293	833.934	644.266
327.256	19.071	833.863	643.326
328.270	19.160	832.916	642.870
329.285	18.911	832.104	641.257
330.300	18.909	831.265	640.546
331.314	18.965	830.883	640.404
332.329	19.372	830.389	641.484
333.343	19.366	829.990	641.095
334.358	19.323	829.755	640.697
335.373	19.405	829.390	640.664
336.387	19.700	829.237	641.583
337.402	19.647	829.095	641.219
338.416	19.428	828.676	640.027
339.431	19.721	828.058	640.577
340.446	19.732	827.743	640.318
341.460	19.668	826.947	639.410
342.475	19.497	826.396	638.293
343.489	19.558	826.126	638.256
344.504	19.902	826.209	639.534
345.519	19.917	825.708	639.147
346.533	20.062	825.093	639.147
347.548	19.982	824.845	638.604
348.562	20.167	824.070	638.630
349.577	20.223	823.112	638.037
350.592	20.151	823.012	637.637
351.606	20.095	822.258	636.789
352.621	19.913	821.280	635.309
353.635	19.767	820.727	634.289
354.650	19.236	819.158	631.077
355.665	18.477	817.682	627.108
356.679	18.954	817.223	628.443
357.694	19.286	816.817	629.288
358.708	19.097	816.719	628.469
359.723	19.574	816.296	629.828
360.738	19.869	815.647	630.345
361.752	20.060	815.268	630.689
362.767	20.129	815.039	630.709
363.781	20.400	814.391	631.139
364.796	20.434	813.891	630.815
365.810	20.268	813.493	629.850
366.825	20.231	813.327	629.531
367.840	19.987	812.914	628.271
368.854	19.741	811.802	626.467
369.869	19.941	811.391	626.817
370.883	19.774	811.055	625.898
371.898	19.737	810.541	625.311
372.913	19.739	810.334	625.103
373.927	19.940	809.756	625.329
374.942	20.027	809.331	625.261
375.956	20.192	808.973	625.524
376.971	20.224	808.572	625.274
377.986	20.328	808.047	625.185
379.000	20.292	807.511	624.587
380.015	20.235	806.953	623.894
381.029	20.164	806.813	623.476
382.044	20.337	805.851	623.298
383.059	20.230	805.278	622.415
384.073	20.378	805.070	622.730
385.088	20.510	804.140	622.430
386.102	20.385	803.505	621.437
387.117	20.397	802.869	620.933
388.132	19.985	802.154	618.853
389.146	19.513	801.384	616.518
390.161	19.870	800.807	617.294
391.175	20.103	800.452	617.793
392.190	19.794	799.864	616.184
393.205	18.737	798.262	611.135
394.219	17.477	796.711	605.416
395.234	17.551	796.548	605.501
396.248	18.940	797.447	611.073
397.263	20.121	798.293	615.867
398.278	20.137	798.002	615.642
399.292	20.006	797.058	614.394
400.307	20.123	796.461	614.297
401.321	20.237	795.924	614.231
402.336	20.309	796.003	614.492
403.350	20.647	796.042	615.667
404.365	20.880	795.843	616.282
405.380	20.924	795.310	615.968
406.394	20.893	794.609	615.262
407.409	20.793	794.188	614.527
408.423	20.798	793.861	614.241
409.438	20.983	793.133	614.273
410.453	21.006	792.699	613.963
411.467	20.869	792.228	613.062
412.482	20.824	792.121	612.767
413.496	21.098	791.569	613.248
414.511	21.051	791.486	612.965
415.526	21.117	790.708	612.539
416.540	20.871	789.916	611.010
417.555	20.660	789.359	609.786
418.569	20.627	788.957	609.307
419.584	20.611	788.602	608.920
420.599	20.631	787.726	608.262
421.613	156.781	1360.942	1793.980
422.628	135.729	1444.471	1794.074
