DTS Sentinel unit serial number:	SN413079Multiplexer serial number:	ORYXHardware model number:	OX4-SRSoftware version number:	ORYX F/W v4.00 Oryx Data Collector v3.7.2.0data status	okinstallation	princeton_trtdifferential loss correction	single-endedforward channel	channel 1reverse channel	N/Adate	2019/09/14time	20:02:35forward acquisition time	60.00reverse acquisition time	0.00gamma	496.2192k internal	0.2315k external	0.2315temperature offset calibration	1.0029default loss term (dB/km)	0.3790temperature slope calibration	1.0000multiplexer offset coefficient	1.0000multiplexer slope coefficient	1.0000fibre end	0.00T internal ref (°C)	34.02T ext. ref 1 (°C)	4.87T ext. ref 2 (°C)	28.33length (m)	temperature (°C)	Stokes	anti-Stokes-747.200	0.828	-0.319	0.232
-746.185	-168.824	-0.303	0.012
-745.171	365.200	-0.034	0.070
-744.156	497.404	-0.133	0.311
-743.142	100.657	0.080	-0.095
-742.127	800.000	0.145	0.461
-741.112	800.000	0.053	-0.168
-740.098	-200.000	0.001	0.205
-739.083	461.442	-0.076	0.173
-738.069	-20.362	0.252	0.157
-737.054	-27.926	-0.257	-0.151
-736.039	137.038	-0.259	-0.343
-735.025	546.255	0.136	-0.330
-734.010	770.334	0.070	0.193
-732.996	-65.743	-0.128	0.052
-731.981	-114.817	0.125	-0.024
-730.966	352.905	0.115	0.232
-729.952	-126.849	0.095	-0.014
-728.937	59.947	-0.078	-0.078
-727.923	-161.393	0.199	-0.010
-726.908	-200.000	0.013	-0.402
-725.894	-65.246	-0.246	0.100
-724.879	71.992	0.064	-0.067
-723.864	195.583	0.142	0.219
-722.850	116.462	0.089	-0.111
-721.835	25.440	-0.153	-0.129
-720.821	-136.283	-0.190	0.022
-719.806	-166.034	-0.231	-0.010
-718.791	800.000	0.045	-0.146
-717.777	-36.844	0.306	0.166
-716.762	-200.000	-0.022	0.173
-715.748	78.241	0.220	0.238
-714.733	-29.294	0.132	0.077
-713.718	-86.430	-0.135	0.042
-712.704	800.000	-0.030	-0.119
-711.689	12.431	-0.128	-0.100
-710.675	110.189	-0.102	-0.124
-709.660	69.860	0.161	-0.169
-708.645	12.994	-0.073	0.057
-707.631	124.628	0.126	0.160
-706.616	800.000	-0.093	-0.278
-705.602	-200.000	-0.018	-0.184
-704.587	-144.216	-0.518	-0.049
-703.572	175.982	0.099	0.145
-702.558	662.910	0.149	0.388
-701.543	-90.509	-0.034	-0.010
-700.529	7.416	-0.305	-0.230
-699.514	-124.338	0.412	0.065
-698.499	299.647	-0.147	0.274
-697.485	271.934	-0.069	0.123
-696.470	-83.579	-0.093	0.030
-695.456	-200.000	-0.010	-0.212
-694.441	-27.654	0.277	0.163
-693.426	-137.336	-0.176	-0.020
-692.412	-113.896	0.112	-0.022
-691.397	726.908	0.076	-0.204
-690.383	421.852	0.192	-0.416
-689.368	-73.685	-0.343	-0.126
-688.354	-147.589	-0.286	-0.024
-687.339	800.000	0.051	-0.158
-686.324	-27.074	0.214	-0.126
-685.310	800.000	-0.070	-0.273
-684.295	-56.669	-0.146	-0.065
-683.281	-111.074	-0.229	-0.047
-682.266	-170.338	0.057	-0.002
-681.251	46.219	-0.198	-0.186
-680.237	800.000	0.045	-0.138
-679.222	-70.155	0.208	-0.080
-678.208	135.161	0.052	-0.068
-677.193	79.844	0.094	-0.102
-676.178	800.000	-0.023	-0.098
-675.164	114.827	0.068	0.084
-674.149	6.026	0.317	0.237
-673.135	-163.359	0.151	0.007
-672.120	100.715	-0.262	0.308
-671.105	-67.055	0.167	-0.066
-670.091	32.660	0.196	-0.171
-669.076	142.244	-0.132	-0.177
-668.062	548.370	0.120	-0.290
-667.047	-36.509	-0.330	-0.179
-666.032	4.260	0.323	-0.239
-665.018	-200.000	0.038	-0.286
-664.003	5.004	-0.113	-0.084
-662.989	-43.121	-0.176	0.090
-661.974	-185.713	-0.209	0.003
-660.959	-158.295	-0.533	0.031
-659.945	481.163	-0.088	0.201
-658.930	529.819	-0.047	0.111
-657.916	186.155	0.169	-0.254
-656.901	-15.710	-0.098	-0.063
-655.886	679.379	-0.098	0.258
-654.872	800.000	-0.096	0.297
-653.857	-200.000	0.059	0.343
-652.843	-92.041	0.222	-0.063
-651.828	714.886	-0.088	-0.235
-650.814	-200.000	-0.035	0.392
-649.799	-20.127	-0.324	-0.202
-648.784	-200.000	0.002	-0.221
-647.770	-173.523	0.241	0.007
-646.755	-200.000	-0.012	-0.350
-645.741	-144.517	0.252	0.024
-644.726	-78.181	-0.226	-0.078
-643.711	-200.000	0.026	-0.180
-642.697	153.852	0.081	-0.112
-641.682	363.852	0.158	-0.321
-640.668	135.725	0.059	-0.077
-639.653	76.844	-0.161	-0.172
-638.638	-112.108	-0.206	-0.042
-637.624	-107.710	0.354	-0.078
-636.609	-111.056	-0.247	-0.051
-635.595	-4.738	0.349	-0.243
-634.580	-10.291	0.038	-0.025
-633.565	-110.750	-0.195	0.041
-632.551	800.000	0.018	-0.056
-631.536	24.279	-0.378	-0.315
-630.522	-121.480	-0.386	-0.065
-629.507	800.000	0.064	-0.180
-628.492	-3.096	0.261	-0.184
-627.478	-0.280	0.209	-0.150
-626.463	-61.542	-0.196	-0.083
-625.449	108.873	-0.095	0.115
-624.434	-98.514	-0.154	-0.040
-623.419	280.345	0.182	-0.329
-622.405	12.893	0.145	-0.113
-621.390	22.202	-0.057	0.047
-620.376	-169.290	-0.516	-0.019
-619.361	154.696	0.105	0.145
-618.346	-97.323	-0.250	0.066
-617.332	16.899	-0.150	-0.119
-616.317	800.000	0.026	-0.113
-615.303	-80.342	-0.160	-0.054
-614.288	-6.608	-0.158	0.109
-613.273	-200.000	0.002	-0.024
-612.259	-132.582	0.204	0.026
-611.244	69.420	-0.271	0.281
-610.230	-200.000	0.029	-0.343
-609.215	-78.972	0.063	0.022
-608.201	430.496	0.139	-0.303
-607.186	-73.148	0.129	-0.048
-606.171	0.664	-0.235	-0.170
-605.157	120.437	-0.142	0.178
-604.142	-97.794	0.131	-0.034
-603.128	361.277	0.048	-0.097
-602.113	-200.000	-0.016	0.199
-601.098	183.944	0.036	0.053
-600.084	-100.189	0.423	0.106
-599.069	-25.534	-0.060	0.036
-598.055	-144.187	0.248	0.023
-597.040	-81.324	0.175	0.058
-596.025	800.000	-0.073	-0.212
-595.011	-13.382	-0.177	-0.116
-593.996	-200.000	0.029	0.241
-592.982	666.921	0.115	-0.298
-591.967	-190.772	-0.140	-0.001
-590.952	-200.000	-0.058	0.362
-589.938	-119.242	0.279	0.049
-588.923	66.382	0.095	-0.097
-587.909	1.220	0.098	-0.071
-586.894	-87.662	-0.090	-0.027
-585.879	-48.233	-0.274	0.133
-584.865	800.000	0.013	0.036
-583.850	-42.445	0.167	-0.086
-582.836	143.197	-0.114	-0.153
-581.821	-200.000	0.006	-0.119
-580.806	-127.837	-0.159	0.023
-579.792	-131.549	-0.179	-0.024
-578.777	56.795	-0.113	-0.111
-577.763	28.787	-0.033	-0.028
-576.748	-29.968	0.125	-0.072
-575.733	53.884	-0.139	-0.134
-574.719	19.709	0.197	-0.159
-573.704	93.880	-0.174	-0.199
-572.690	-200.000	0.004	-0.017
-571.675	184.063	0.100	-0.148
-570.661	-200.000	-0.019	-0.205
-569.646	267.442	-0.050	0.088
-568.631	-105.022	0.080	-0.018
-567.617	-25.625	0.021	-0.012
-566.602	-200.000	0.036	-0.269
-565.588	-200.000	0.009	0.108
-564.573	-200.000	-0.001	0.152
-563.558	123.425	0.035	0.045
-562.544	161.414	-0.042	-0.059
-561.529	-2.390	-0.256	0.180
-560.515	520.296	-0.027	0.064
-559.500	-144.186	-0.336	0.032
-558.485	-121.103	0.267	0.045
-557.471	-155.829	0.202	-0.013
-556.456	-70.440	-0.174	0.066
-555.442	-13.569	-0.168	-0.110
-554.427	74.645	-0.329	-0.349
-553.412	122.190	-0.197	-0.248
-552.398	-84.222	0.125	0.040
-551.383	52.188	0.165	0.158
-550.369	17.048	-0.160	-0.128
-549.354	154.892	0.164	-0.227
-548.339	-83.980	-0.200	0.064
-547.325	-21.725	0.031	-0.019
-546.310	-105.556	0.121	0.028
-545.296	-184.670	-0.055	0.001
-544.281	-43.688	-0.370	0.188
-543.266	345.855	0.038	-0.074
-542.252	367.859	-0.126	-0.257
-541.237	99.654	-0.168	-0.196
-540.223	-200.000	0.003	0.206
-539.208	532.152	-0.100	0.239
-538.193	-89.738	0.258	0.076
-537.179	-195.932	-0.249	0.002
-536.164	144.895	-0.191	-0.257
-535.150	-200.000	0.034	-0.219
-534.135	15.730	-0.085	-0.067
-533.121	-200.000	0.012	0.219
-532.106	-200.000	-0.001	-0.074
-531.091	-102.403	0.218	0.052
-530.077	74.384	0.126	0.133
-529.062	-55.312	-0.152	-0.069
-528.048	-47.248	0.043	0.021
-527.033	-123.219	-0.102	0.016
-526.018	145.654	-0.134	-0.180
-525.004	40.797	0.091	-0.083
-523.989	-95.537	-0.075	-0.020
-522.975	800.000	0.014	0.060
-521.960	-93.676	0.260	0.072
-520.945	-25.276	-0.143	0.085
-519.931	171.647	-0.041	0.059
-518.916	-88.896	-0.104	-0.031
-517.902	800.000	-0.037	-0.130
-516.887	61.470	-0.218	-0.218
-515.872	-135.153	0.141	0.017
-514.858	127.371	0.159	-0.202
-513.843	-171.239	0.050	0.002
-512.829	-200.000	-0.012	-0.101
-511.814	-148.279	-0.221	0.018
-510.799	650.831	-0.104	0.267
-509.785	-111.404	0.157	-0.032
-508.770	-11.405	0.058	-0.039
-507.756	-31.193	-0.025	0.014
-506.741	268.186	-0.101	0.178
-505.726	-141.076	-0.188	-0.019
-504.712	164.683	0.209	0.295
-503.697	-60.144	0.093	0.040
-502.683	226.507	0.024	-0.040
-501.668	489.371	-0.113	0.259
-500.653	573.487	0.123	-0.301
-499.639	223.468	0.201	0.326
-498.624	-200.000	-0.001	0.057
-497.610	-52.273	0.134	0.062
-496.595	161.209	-0.114	0.160
-495.581	-175.644	0.144	0.004
-494.566	60.389	0.189	-0.188
-493.551	84.705	0.139	0.153
-492.537	-128.694	0.236	0.033
-491.522	73.780	-0.150	-0.157
-490.508	-164.884	-0.291	-0.013
-489.493	-43.030	-0.133	-0.068
-488.478	75.617	0.091	-0.096
-487.464	800.000	-0.089	-0.343
-486.449	-111.984	0.042	0.008
-485.435	-137.103	0.233	-0.027
-484.420	241.778	0.121	0.203
-483.405	800.000	-0.083	-0.306
-482.391	-116.616	0.315	0.058
-481.376	-88.818	0.387	-0.115
-480.362	-200.000	-0.525	-0.001
-479.347	210.099	0.143	0.226
-478.332	800.000	-0.058	-0.197
-477.318	-200.000	0.012	-0.183
-476.303	-14.465	0.379	-0.245
-475.289	40.411	0.202	0.183
-474.274	-179.684	0.314	0.007
-473.259	800.000	0.078	0.220
-472.245	-37.549	0.099	0.053
-471.230	-200.000	-0.054	0.256
-470.216	-23.137	-0.182	-0.110
-469.201	-200.000	0.014	0.172
-468.186	-200.000	-0.027	0.223
-467.172	800.000	0.124	-0.392
-466.157	-20.670	-0.159	-0.098
-465.143	-38.121	0.237	-0.126
-464.128	67.122	0.120	-0.122
-463.113	-93.831	-0.113	-0.031
-462.099	-145.028	-0.089	0.008
-461.084	-106.013	-0.044	0.010
-460.070	622.415	0.045	0.115
-459.055	323.962	0.209	-0.400
-458.040	117.593	-0.126	0.156
-457.026	-74.639	0.179	-0.065
-456.011	-200.000	0.066	-0.448
-454.997	-145.513	-0.232	0.021
-453.982	775.059	-0.124	-0.338
-452.968	-114.321	0.214	0.041
-451.953	-200.000	-0.001	0.184
-450.938	-45.868	0.208	0.103
-449.924	16.237	0.036	-0.028
-448.909	-104.067	-0.294	0.069
-447.895	800.000	-0.047	-0.141
-446.880	-109.419	-0.097	-0.021
-445.865	-70.049	0.146	-0.056
-444.851	-105.155	0.095	-0.022
-443.836	515.780	0.040	0.093
-442.822	-42.061	0.140	-0.072
-441.807	99.431	-0.283	0.328
-440.792	-102.787	0.078	0.019
-439.778	234.134	-0.100	0.165
-438.763	-48.934	-0.258	-0.124
-437.749	-138.433	0.162	-0.018
-436.734	800.000	0.095	0.406
-435.719	800.000	0.074	0.209
-434.705	-88.501	0.018	0.005
-433.690	82.803	0.061	0.067
-432.676	-112.444	0.393	0.079
-431.661	-200.000	-0.003	0.133
-430.646	708.675	-0.115	-0.304
-429.632	94.562	-0.064	0.073
-428.617	71.989	-0.175	0.182
-427.603	-200.000	-0.011	-0.316
-426.588	180.121	-0.004	-0.006
-425.573	141.751	0.111	-0.148
-424.559	-200.000	0.014	-0.147
-423.544	-84.576	-0.046	-0.014
-422.530	-200.000	0.021	-0.359
-421.515	-200.000	0.032	0.155
-420.500	-34.082	-0.096	0.053
-419.486	-200.000	-0.056	-0.248
-418.471	161.672	0.168	0.235
-417.457	800.000	0.056	-0.166
-416.442	-9.551	0.286	-0.191
-415.428	345.815	-0.075	-0.148
-414.413	-200.000	0.024	0.190
-413.398	-45.351	-0.279	0.139
-412.384	292.082	-0.099	-0.181
-411.369	-200.000	-0.065	0.315
-410.355	-200.000	-0.004	0.229
-409.340	103.027	-0.190	0.222
-408.325	-126.245	-0.183	0.027
-407.311	-200.000	0.009	-0.076
-406.296	140.306	0.235	-0.310
-405.282	-122.853	0.088	0.014
-404.267	800.000	-0.022	0.091
-403.252	-200.000	-0.007	0.275
-402.238	-82.790	0.067	0.022
-401.223	40.788	0.060	0.054
-400.209	-200.000	0.057	0.402
-399.194	-76.923	-0.152	0.053
-398.179	-200.000	-0.058	0.332
-397.165	12.759	0.201	-0.155
-396.150	-51.927	-0.375	0.174
-395.136	800.000	0.099	0.374
-394.121	38.980	-0.329	0.294
-393.106	410.642	-0.078	0.165
-392.092	-2.153	-0.130	0.091
-391.077	-101.008	0.298	-0.073
-390.063	-200.000	0.008	0.366
-389.048	800.000	0.079	0.223
-388.033	97.298	0.139	-0.160
-387.019	14.393	0.163	0.127
-386.004	148.055	-0.128	0.173
-384.990	-126.502	0.206	0.031
-383.975	-92.487	-0.186	0.052
-382.960	168.955	0.016	0.022
-381.946	-200.000	0.008	0.077
-380.931	164.594	-0.104	0.146
-379.917	-59.285	0.208	0.090
-378.902	-137.690	-0.503	0.056
-377.888	-200.000	0.078	0.432
-376.873	800.000	0.015	0.048
-375.858	103.706	0.130	-0.152
-374.844	-30.225	0.249	-0.141
-373.829	-200.000	0.008	0.131
-372.815	34.965	0.293	0.256
-371.800	-200.000	-0.158	0.000
-370.785	23.194	-0.162	0.133
-369.771	104.816	-0.166	0.195
-368.756	-139.072	-0.344	-0.037
-367.742	-5.687	-0.056	0.038
-366.727	6.606	0.186	-0.138
-365.712	-200.000	0.022	0.271
-364.698	800.000	-0.052	-0.181
-363.683	267.787	-0.035	0.060
-362.669	89.606	-0.076	-0.085
-361.654	194.791	0.126	-0.191
-360.639	-84.434	0.271	0.086
-359.625	74.747	-0.281	0.295
-358.610	-200.000	0.024	-0.140
-357.596	684.317	-0.118	-0.308
-356.581	-139.687	-0.222	0.024
-355.566	101.069	-0.085	0.098
-354.552	-85.961	-0.356	0.110
-353.537	-146.124	0.179	-0.016
-352.523	800.000	-0.047	0.200
-351.508	246.674	0.059	0.099
-350.493	598.503	0.114	0.282
-349.479	-200.000	0.014	-0.115
-348.464	800.000	0.051	0.214
-347.450	286.545	0.141	-0.254
-346.435	42.554	0.316	-0.287
-345.420	-200.000	0.070	0.312
-344.406	-109.351	0.207	0.044
-343.391	-145.777	0.199	0.018
-342.377	800.000	0.081	0.342
-341.362	400.185	-0.089	-0.185
-340.348	-60.296	-0.251	-0.107
-339.333	-131.667	0.323	-0.042
-338.318	800.000	-0.036	0.120
-337.304	-112.894	0.163	-0.032
-336.289	-64.491	0.398	-0.161
-335.275	239.735	-0.153	-0.255
-334.260	236.464	0.108	-0.179
-333.245	-54.260	-0.148	0.067
-332.231	-48.370	-0.162	-0.078
-331.216	-142.224	-0.249	0.025
-330.202	800.000	-0.030	0.126
-329.187	732.861	0.113	0.300
-328.172	-103.575	0.110	0.026
-327.158	368.825	0.115	0.232
-326.143	-181.004	0.371	0.007
-325.129	-25.217	0.103	0.061
-324.114	202.890	0.277	0.426
-323.099	-104.056	-0.232	0.054
-322.085	-100.505	0.305	0.075
-321.070	-89.769	0.406	-0.119
-320.056	-66.151	-0.276	-0.110
-319.041	478.072	0.017	0.039
-318.026	-120.619	0.118	0.020
-317.012	800.000	0.017	0.048
-315.997	196.626	0.037	0.057
-314.983	-28.178	0.201	0.116
-313.968	-143.377	0.058	-0.006
-312.953	-78.075	0.103	0.035
-311.939	-98.598	-0.218	-0.055
-310.924	20.318	0.175	0.141
-309.910	-59.226	-0.131	0.056
-308.895	113.338	0.244	0.295
-307.880	-117.055	-0.228	-0.041
-306.866	22.495	0.176	-0.143
-305.851	-200.000	-0.084	0.453
-304.837	-200.000	-0.027	0.135
-303.822	109.614	-0.168	-0.201
-302.807	245.909	-0.154	-0.258
-301.793	275.160	-0.081	0.143
-300.778	-41.581	0.340	0.174
-299.764	-22.675	-0.222	0.134
-298.749	-200.000	-0.077	-0.456
-297.735	78.722	0.154	0.164
-296.720	-53.788	0.131	-0.059
-295.705	-74.253	0.174	-0.063
-294.691	203.454	-0.061	0.094
-293.676	-166.308	-0.064	-0.003
-292.662	-31.533	-0.114	0.064
-291.647	18.610	-0.188	-0.150
-290.632	111.151	-0.271	0.325
-289.618	159.399	-0.118	0.164
-288.603	-94.534	0.317	-0.086
-287.589	-110.885	0.104	0.021
-286.574	-53.231	0.086	-0.039
-285.559	800.000	0.060	0.208
-284.545	26.430	-0.022	-0.018
-283.530	703.860	0.095	-0.250
-282.516	34.497	-0.239	0.207
-281.501	103.786	0.041	0.048
-280.486	-82.935	-0.111	0.036
-279.472	-200.000	0.109	0.486
-278.457	34.326	0.101	-0.088
-277.443	273.057	-0.034	0.060
-276.428	159.864	-0.119	0.165
-275.413	-120.564	-0.244	0.041
-274.399	-158.943	-0.116	0.007
-273.384	-55.992	-0.121	0.054
-272.370	102.213	-0.444	0.516
-271.355	-200.000	0.026	0.313
-270.340	-200.000	-0.010	-0.098
-269.326	-98.229	0.218	0.056
-268.311	205.098	-0.242	0.373
-267.297	800.000	0.026	0.098
-266.282	-73.325	0.157	0.057
-265.267	492.408	-0.029	-0.066
-264.253	11.114	0.165	0.126
-263.238	182.850	-0.154	-0.225
-262.224	-40.876	-0.107	-0.055
-261.209	86.466	0.143	-0.156
-260.195	800.000	-0.032	-0.109
-259.180	-93.440	0.165	-0.045
-258.165	-153.790	-0.143	-0.010
-257.151	-65.666	-0.154	0.062
-256.136	-42.270	-0.200	0.102
-255.122	16.733	-0.321	0.253
-254.107	186.889	0.210	-0.311
-253.092	-200.000	0.122	0.000
-252.078	154.395	0.045	-0.062
-251.063	-70.356	0.217	0.082
-250.049	-200.000	0.043	-0.325
-249.034	37.048	0.382	-0.336
-248.019	-46.892	0.058	0.028
-247.005	-200.000	0.023	-0.150
-245.990	800.000	0.024	-0.086
-244.976	-93.301	0.273	0.075
-243.961	417.525	-0.086	0.183
-242.946	237.894	-0.069	-0.113
-241.932	46.854	-0.068	0.063
-240.917	-2.104	-0.159	-0.111
-239.903	14.319	-0.217	0.168
-238.888	-124.788	0.244	0.037
-237.873	61.089	0.241	-0.238
-236.859	-157.608	-0.133	-0.008
-235.844	-123.027	-0.254	0.041
-234.830	777.094	0.083	0.226
-233.815	177.629	-0.036	0.053
-232.800	-163.430	0.160	0.008
-231.786	330.538	-0.084	-0.161
-230.771	-200.000	-0.015	-0.127
-229.757	-180.042	0.122	0.003
-228.742	-7.941	-0.245	0.164
-227.727	-112.421	0.208	0.041
-226.713	-97.883	0.221	-0.057
-225.698	-67.594	-0.120	-0.047
-224.684	-200.000	0.016	0.146
-223.669	262.698	0.189	0.325
-222.655	34.018	-0.056	0.048
-221.640	800.000	-0.025	-0.086
-220.625	195.927	0.038	0.057
-219.611	683.800	0.074	-0.193
-218.596	-2.455	0.220	-0.153
-217.582	274.612	-0.161	-0.283
-216.567	-200.000	0.016	-0.612
-215.552	447.010	0.080	-0.174
-214.538	-200.000	0.166	0.000
-213.523	476.494	-0.080	0.179
-212.509	-111.910	0.136	-0.027
-211.494	800.000	-0.058	0.172
-210.479	53.705	0.122	0.116
-209.465	-200.000	-0.060	0.459
-208.450	800.000	-0.116	0.386
-207.436	-200.000	0.020	-0.319
-206.421	-200.000	0.033	-0.350
-205.406	-200.000	0.003	0.051
-204.392	135.196	0.277	0.357
-203.377	-200.000	0.005	0.138
-202.363	800.000	0.043	-0.124
-201.348	800.000	-0.007	-0.028
-200.333	23.234	-0.145	0.118
-199.319	-112.422	-0.229	0.046
-198.304	-200.000	-0.010	-0.174
-197.290	-43.527	0.286	0.143
-196.275	-16.118	0.241	-0.152
-195.260	646.847	-0.059	-0.149
-194.246	-200.000	-0.008	0.080
-193.231	-200.000	-0.020	-0.281
-192.217	78.144	-0.088	-0.093
-191.202	-200.000	-0.018	-0.137
-190.187	72.541	-0.202	-0.209
-189.173	115.770	0.271	-0.328
-188.158	-200.000	0.005	0.265
-187.144	-108.225	-0.303	-0.065
-186.129	-37.587	0.168	-0.089
-185.114	-200.000	0.104	-0.576
-184.100	48.073	0.097	-0.089
-183.085	-142.482	-0.187	0.018
-182.071	540.496	0.110	-0.259
-181.056	-46.407	0.092	-0.045
-180.042	636.013	-0.047	-0.119
-179.027	-102.537	0.087	0.021
-178.012	14.286	-0.070	0.054
-176.998	120.096	0.083	-0.102
-175.983	497.893	0.116	0.266
-174.969	-200.000	0.004	-0.122
-173.954	800.000	0.018	0.070
-172.939	-83.364	-0.312	-0.099
-171.925	543.484	0.049	0.115
-170.910	-86.896	-0.150	0.045
-169.896	-102.327	-0.234	-0.056
-168.881	800.000	-0.101	-0.317
-167.866	-200.000	0.008	0.156
-166.852	39.316	-0.150	0.133
-165.837	-200.000	-0.002	-0.092
-164.823	-56.453	0.119	0.052
-163.808	-114.459	-0.144	0.027
-162.793	-48.944	0.109	-0.052
-161.779	-110.529	0.130	0.027
-160.764	2.384	-0.093	0.067
-159.750	-29.362	-0.197	-0.112
-158.735	800.000	-0.100	0.400
-157.720	800.000	-0.014	-0.059
-156.706	-87.907	-0.317	0.094
-155.691	-34.816	-0.174	0.094
-154.677	-31.291	-0.320	0.178
-153.662	-200.000	-0.052	-0.336
-152.647	-200.000	0.018	0.142
-151.633	-109.087	-0.035	-0.007
-150.618	359.250	0.121	-0.239
-149.604	-91.380	-0.199	-0.056
-148.589	194.942	-0.159	0.240
-147.574	-200.000	-0.016	0.148
-146.560	-200.000	0.044	-0.258
-145.545	-125.261	0.224	-0.034
-144.531	-160.350	0.180	-0.010
-143.516	105.194	-0.145	0.169
-142.502	800.000	-0.137	-0.562
-141.487	397.458	0.058	0.119
-140.472	800.000	0.032	0.139
-139.458	-112.300	-0.354	0.070
-138.443	106.417	-0.123	0.145
-137.429	-44.572	-0.174	-0.086
-136.414	-74.229	0.186	0.067
-135.399	-42.922	0.257	0.129
-134.385	-119.551	0.201	-0.034
-133.370	-200.000	0.037	0.337
-132.356	-5.055	0.349	-0.238
-131.341	-200.000	0.122	-0.000
-130.326	163.045	-0.104	0.144
-129.312	16.036	-0.087	0.068
-128.297	150.900	-0.214	-0.289
-127.283	524.904	0.146	-0.340
-126.268	598.509	0.164	0.402
-125.253	800.000	-0.031	0.128
-124.239	155.970	0.074	0.101
-123.224	-200.000	-0.064	-0.461
-122.210	-83.167	0.028	0.009
-121.195	-176.279	-0.120	0.003
-120.180	-104.030	0.211	-0.049
-119.166	-76.368	0.159	0.055
-118.151	-97.874	0.226	-0.058
-117.137	-200.000	0.054	0.518
-116.122	693.502	0.014	0.036
-115.107	-157.910	0.285	-0.017
-114.093	272.334	-0.100	0.174
-113.078	-65.622	-0.153	-0.060
-112.064	-4.873	-0.222	0.151
-111.049	492.910	-0.055	-0.125
-110.034	109.324	-0.226	-0.267
-109.020	-87.259	-0.011	-0.003
-108.005	453.150	-0.050	0.108
-106.991	157.635	0.128	-0.176
-105.976	-116.160	0.274	0.050
-104.962	89.103	0.077	-0.085
-103.947	-200.000	-0.022	-0.412
-102.932	219.206	-0.034	0.054
-101.918	647.326	0.119	-0.299
-100.903	23.712	0.042	0.034
-99.889	-5.958	-0.086	-0.058
-98.874	-48.347	0.186	-0.089
-97.859	800.000	0.013	0.056
-96.845	-200.000	0.006	0.300
-95.830	-142.199	-0.066	0.006
-94.816	296.563	0.030	0.055
-93.801	103.192	0.127	0.147
-92.786	-170.091	-0.106	0.004
-91.772	486.187	0.026	-0.059
-90.757	18.782	0.239	-0.189
-89.743	-107.201	0.320	-0.070
-88.728	171.667	-0.041	-0.059
-87.713	800.000	0.126	-0.399
-86.699	653.242	0.131	-0.333
-85.684	445.255	0.093	-0.201
-84.670	-200.000	-0.012	0.058
-83.655	-27.195	-0.085	-0.049
-82.640	-73.105	0.209	-0.076
-81.626	48.375	0.068	0.062
-80.611	675.522	0.014	-0.037
-79.597	-7.390	0.112	0.075
-78.582	106.693	-0.065	0.077
-77.567	-200.000	-0.017	0.209
-76.553	-200.000	-0.039	0.222
-75.538	50.216	0.121	-0.113
-74.524	-50.870	0.154	-0.071
-73.509	5.849	-0.042	0.031
-72.494	48.045	-0.109	0.100
-71.480	277.025	-0.106	-0.187
-70.465	67.230	-0.169	-0.170
-69.451	-0.001	0.152	0.107
-68.436	800.000	0.086	-0.262
-67.422	132.707	-0.129	0.164
-66.407	102.047	0.124	-0.143
-65.392	-168.771	-0.412	0.015
-64.378	-200.000	-0.023	-0.133
-63.363	63.648	-0.067	0.066
-62.349	-200.000	0.002	-0.100
-61.334	40.732	-0.838	-0.746
-60.319	68.274	0.351	0.355
-59.305	-200.000	-0.075	-0.806
-58.290	380.921	0.484	0.980
-57.276	430.284	0.633	1.352
-56.261	-200.000	96.641	573.171
-55.246	626.035	1392.053	3465.339
-54.232	191.240	2585.435	3838.949
-53.217	119.986	2159.670	2642.047
-52.203	45.498	1616.222	1471.960
-51.188	37.483	1353.222	1183.846
-50.173	34.237	1310.736	1127.451
-49.159	57.099	1358.655	1306.798
-48.144	59.976	1375.953	1340.673
-47.130	37.766	1332.755	1167.454
-46.115	34.155	1315.324	1130.731
-45.100	33.881	1310.672	1125.065
-44.086	33.901	1308.531	1123.301
-43.071	33.831	1306.000	1120.670
-42.057	33.877	1303.722	1118.943
-41.042	33.824	1302.548	1117.579
-40.027	33.870	1301.130	1116.592
-39.013	33.914	1299.209	1115.157
-37.998	33.949	1297.370	1113.738
-36.984	34.033	1295.179	1112.303
-35.969	34.061	1293.513	1110.994
-34.954	34.051	1292.400	1109.934
-33.940	34.051	1291.220	1108.877
-32.925	34.220	1289.099	1107.996
-31.911	34.088	1287.854	1106.110
-30.896	34.229	1286.493	1105.717
-29.881	34.069	1285.546	1103.934
-28.867	34.209	1283.493	1102.937
-27.852	34.172	1282.311	1101.665
-26.838	34.205	1280.802	1100.516
-25.823	34.140	1279.937	1099.350
-24.809	34.088	1278.542	1097.809
-23.794	34.009	1277.343	1096.283
-22.779	34.085	1276.089	1095.600
-21.765	33.968	1275.018	1093.965
-20.750	34.063	1273.207	1092.911
-19.736	34.006	1272.205	1091.682
-18.721	33.971	1270.723	1090.166
-17.706	33.869	1269.973	1088.891
-16.692	33.994	1268.445	1088.254
-15.677	33.974	1267.507	1087.291
-14.663	33.971	1266.480	1086.351
-13.648	33.955	1265.341	1085.238
-12.633	33.892	1264.451	1084.076
-11.619	34.064	1263.468	1084.168
-10.604	33.904	1262.899	1082.726
-9.590	33.946	1261.552	1081.765
-8.575	33.897	1260.837	1080.833
-7.560	33.966	1259.772	1080.272
-6.546	33.930	1259.036	1079.390
-5.531	33.820	1258.044	1077.876
-4.517	33.903	1257.547	1077.877
-3.502	33.920	1256.880	1077.355
-2.487	33.923	1255.692	1076.315
-1.473	33.884	1251.526	1072.482
-0.458	32.354	1236.161	1050.730
0.556	27.984	1217.633	1009.458
1.571	24.125	1222.603	992.036
2.586	22.842	1237.800	997.040
3.600	22.107	1226.798	983.977
4.615	16.831	1155.628	898.898
5.629	8.778	1080.437	800.253
6.644	5.047	1060.662	767.208
7.659	4.699	1058.273	763.704
8.673	4.887	1057.382	763.915
9.688	4.868	1055.970	762.738
10.702	5.075	1053.893	762.178
11.717	9.417	1060.446	788.156
12.731	16.848	1070.608	832.261
13.746	19.695	1073.085	848.106
14.761	18.650	1071.906	841.975
15.775	17.709	1069.754	835.599
16.790	16.693	1067.710	828.957
17.804	16.024	1065.744	824.088
18.819	15.658	1064.890	821.564
19.834	15.337	1064.466	819.596
20.848	15.164	1063.349	817.817
21.863	15.041	1062.384	816.403
22.877	14.759	1061.919	814.600
23.892	14.870	1060.461	813.947
24.907	14.731	1060.377	813.137
25.921	14.784	1058.791	812.107
26.936	15.025	1057.110	811.916
27.950	15.025	1056.135	811.092
28.965	15.098	1054.457	810.084
29.980	15.099	1053.200	809.052
30.994	15.090	1052.477	808.383
32.009	15.164	1051.379	807.826
33.023	15.196	1050.336	807.109
34.038	15.035	1048.996	805.233
35.053	14.927	1048.543	804.291
36.067	14.896	1047.613	803.357
37.082	14.968	1046.979	803.146
38.096	15.028	1046.073	802.670
39.111	15.041	1045.222	802.010
40.126	15.052	1043.953	801.016
41.140	14.864	1042.329	798.802
42.155	14.742	1041.347	797.396
43.169	14.659	1040.662	796.406
44.184	14.705	1039.330	795.535
45.199	14.745	1038.200	794.787
46.213	14.920	1036.934	794.578
47.228	14.959	1036.192	794.128
48.242	14.938	1035.367	793.323
49.257	14.812	1034.736	792.171
50.271	14.900	1033.418	791.509
51.286	14.966	1032.600	791.126
52.301	14.939	1031.770	790.295
53.315	14.916	1030.594	789.214
54.330	14.854	1029.409	787.945
55.344	14.862	1028.477	787.201
56.359	14.807	1028.112	786.589
57.374	14.797	1026.992	785.616
58.388	14.651	1026.187	784.247
59.403	14.540	1025.895	783.434
60.417	14.651	1024.301	782.666
61.432	14.741	1023.476	782.388
62.447	14.621	1022.981	781.381
63.461	14.600	1021.866	780.360
64.476	14.672	1020.867	779.863
65.490	14.505	1020.653	778.850
66.505	14.614	1019.795	778.637
67.520	14.585	1019.220	777.995
68.534	14.568	1018.341	777.174
69.549	14.622	1017.676	776.849
70.563	14.659	1016.533	776.080
71.578	14.631	1015.627	775.189
72.593	14.494	1015.310	774.242
73.607	14.501	1014.520	773.606
74.622	14.553	1013.946	773.341
75.636	14.495	1013.155	772.399
76.651	14.553	1012.467	772.076
77.666	14.590	1012.134	771.926
78.680	14.493	1011.121	770.637
79.695	14.637	1010.050	770.416
80.709	14.698	1009.929	770.534
81.724	14.691	1009.821	770.352
82.739	14.802	1008.858	770.064
83.753	14.920	1008.034	769.907
84.768	15.049	1007.153	769.760
85.782	15.158	1006.507	769.698
86.797	15.031	1005.670	768.410
87.812	14.982	1004.353	767.109
88.826	14.969	1003.306	766.182
89.841	15.008	1002.451	765.640
90.855	15.081	1001.546	765.213
91.870	15.043	1000.963	764.529
92.884	14.978	1000.251	763.620
93.899	15.134	999.472	763.671
94.914	15.169	998.452	762.982
95.928	15.177	997.608	762.308
96.943	15.017	996.699	760.819
97.957	15.099	995.454	760.172
98.972	14.992	995.475	759.635
99.987	15.131	994.082	759.135
101.001	15.067	993.236	758.133
102.016	15.021	992.090	756.982
103.030	14.979	991.935	756.604
104.045	15.027	990.956	756.011
105.060	15.068	990.108	755.481
106.074	14.742	989.496	753.478
107.089	14.679	987.978	751.968
108.103	14.710	987.067	751.349
109.118	14.731	986.113	750.649
110.133	14.645	985.532	749.756
111.147	14.633	984.631	748.953
112.162	14.766	983.610	748.703
113.176	15.007	982.852	749.140
114.191	14.897	982.145	748.043
115.206	14.862	981.576	747.387
116.220	14.857	980.725	746.651
117.235	14.836	979.735	745.738
118.249	14.884	978.934	745.274
119.264	14.691	978.606	744.098
120.279	14.703	977.483	743.231
121.293	14.737	976.770	742.776
122.308	14.753	975.901	742.121
123.322	14.693	974.663	740.848
124.337	14.689	973.408	739.812
125.352	14.658	972.896	739.218
126.366	14.824	971.847	739.091
127.381	14.665	971.351	737.944
128.395	14.734	970.236	737.336
129.410	14.823	968.969	736.700
130.424	14.792	968.293	735.987
131.439	14.868	967.612	735.737
132.454	14.916	967.078	735.479
133.468	14.977	966.102	734.939
134.483	14.883	965.222	733.793
135.497	14.937	964.576	733.472
136.512	14.968	963.258	732.539
137.527	14.965	962.638	731.992
138.541	15.176	961.266	731.804
139.556	15.021	961.252	731.054
140.570	14.999	960.819	730.563
141.585	15.341	959.594	731.055
142.600	15.098	959.311	729.720
143.614	15.090	958.404	728.927
144.629	15.197	957.667	728.770
145.643	15.157	956.582	727.707
146.658	15.161	955.394	726.755
147.673	15.056	954.443	725.511
148.687	14.927	953.798	724.399
149.702	14.939	952.909	723.709
150.716	14.799	952.379	722.637
151.731	14.885	951.734	722.456
152.746	15.034	950.519	722.112
153.760	14.980	950.244	721.608
154.775	15.058	949.498	721.312
155.789	15.347	948.694	721.885
156.804	15.148	948.136	720.540
157.819	15.255	947.204	720.227
158.833	15.279	946.964	720.082
159.848	15.308	945.837	719.286
160.862	15.262	945.141	718.498
161.877	15.194	943.825	717.141
162.892	14.957	943.374	715.721
163.906	15.107	941.858	715.148
164.921	14.986	941.299	714.144
165.935	15.134	940.889	714.402
166.950	15.079	940.072	713.485
167.964	15.111	938.819	712.607
168.979	15.093	937.686	711.609
169.994	15.114	936.971	711.091
171.008	15.262	936.323	711.164
172.023	15.295	935.608	710.696
173.037	15.210	935.451	710.154
174.052	15.323	934.047	709.504
175.067	15.147	933.372	708.186
176.081	15.104	932.992	707.653
177.096	15.144	932.362	707.281
178.110	15.141	931.705	706.707
179.125	15.141	931.209	706.267
180.140	15.199	930.523	705.930
181.154	15.335	930.099	706.117
182.169	15.355	929.590	705.754
183.183	15.452	929.003	705.652
184.198	15.401	928.668	705.122
185.213	15.397	927.710	704.314
186.227	15.503	926.997	704.157
187.242	15.667	926.267	704.228
188.256	15.666	925.782	703.791
189.271	15.706	924.411	702.855
190.286	15.389	924.216	701.321
191.300	15.142	922.956	699.269
192.315	15.122	922.686	698.920
193.329	15.233	922.137	698.904
194.344	15.109	921.720	698.012
195.359	15.303	920.817	698.072
196.373	15.359	920.548	698.040
197.388	15.403	920.368	698.024
198.402	15.648	919.725	698.495
199.417	15.731	918.754	698.039
200.432	15.722	918.167	697.496
201.446	15.832	917.827	697.629
202.461	15.820	917.588	697.336
203.475	15.830	916.911	696.802
204.490	15.715	915.883	695.484
205.504	15.572	914.978	694.145
206.519	15.464	914.385	693.185
207.534	15.503	913.539	692.646
208.548	15.536	913.113	692.396
209.563	15.616	912.491	692.195
210.577	15.743	911.541	691.935
211.592	15.744	911.104	691.547
212.607	15.810	910.307	691.148
213.621	15.766	909.623	690.388
214.636	15.795	909.012	689.985
215.650	15.894	907.985	689.549
216.665	15.842	907.702	689.057
217.680	16.007	907.017	689.154
218.694	16.066	906.425	688.883
219.709	15.842	905.892	687.502
220.723	16.016	905.015	687.485
221.738	16.016	904.443	686.989
222.753	15.827	904.101	685.898
223.767	15.841	903.301	685.289
224.782	16.005	902.646	685.400
225.796	16.173	902.105	685.609
226.811	16.055	901.591	684.680
227.826	16.045	900.710	683.909
228.840	15.898	899.794	682.557
229.855	15.755	899.445	681.652
230.869	16.003	898.180	681.636
231.884	15.967	897.723	681.086
232.899	15.929	896.613	680.027
233.913	15.888	896.021	679.356
234.928	15.909	895.737	679.165
235.942	16.008	895.020	678.959
236.957	15.826	894.640	677.876
237.972	15.856	894.273	677.659
238.986	15.877	893.461	677.069
240.001	15.834	892.967	676.461
241.015	15.971	891.983	676.206
242.030	15.832	892.074	675.659
243.045	16.008	891.519	675.884
244.059	16.101	890.380	675.333
245.074	16.144	889.843	675.037
246.088	16.166	889.134	674.528
247.103	16.355	888.154	674.481
248.117	16.248	888.427	674.202
249.132	16.422	887.416	674.069
250.147	16.524	887.033	674.124
251.161	16.630	886.402	674.008
252.176	16.652	885.733	673.524
253.190	16.591	885.107	672.750
254.205	16.642	884.596	672.503
255.220	16.514	883.889	671.396
256.234	16.609	883.468	671.395
257.249	16.692	882.331	670.801
258.263	16.734	881.639	670.380
259.278	16.636	881.136	669.553
260.293	16.648	880.914	669.372
261.307	16.768	879.861	668.987
262.322	16.778	879.408	668.620
263.336	16.737	879.000	668.091
264.351	16.743	877.829	667.167
265.366	16.875	877.344	667.260
266.380	16.791	876.642	666.334
267.395	16.701	876.415	665.749
268.409	16.801	874.888	664.922
269.424	16.831	874.178	664.440
270.439	16.697	873.805	663.576
271.453	16.842	872.811	663.330
272.468	16.673	872.401	662.297
273.482	16.706	872.318	662.305
274.497	16.644	871.493	661.378
275.512	16.632	871.052	660.936
276.526	16.693	870.538	660.728
277.541	16.667	870.185	660.299
278.555	16.906	869.565	660.702
279.570	17.057	868.378	660.329
280.585	16.974	867.953	659.626
281.599	16.986	867.282	659.101
282.614	16.851	866.425	657.871
283.628	16.841	865.941	657.403
284.643	16.906	865.142	656.990
285.657	16.890	864.667	656.509
286.672	16.969	863.807	656.105
287.687	17.024	863.143	655.754
288.701	16.848	863.046	654.945
289.716	16.974	862.375	654.862
290.730	17.026	862.062	654.769
291.745	16.933	861.133	653.647
292.760	16.980	860.694	653.436
293.774	17.030	860.173	653.174
294.789	17.078	859.491	652.784
295.803	17.210	858.048	652.135
296.818	16.900	858.089	650.920
297.833	17.044	857.178	650.725
298.847	17.214	856.230	650.597
299.862	17.112	856.016	649.985
300.876	17.173	855.800	649.999
301.891	17.149	855.343	649.501
302.906	17.358	854.604	649.684
303.920	17.533	853.903	649.759
304.935	17.423	853.319	648.837
305.949	17.316	852.958	648.098
306.964	17.262	852.276	647.318
307.979	17.365	851.876	647.349
308.993	17.544	851.158	647.427
310.008	17.602	850.127	646.807
311.022	17.337	850.156	645.764
312.037	17.247	849.574	644.923
313.052	17.298	849.043	644.655
314.066	17.209	847.839	643.350
315.081	17.118	847.726	642.862
316.095	17.263	847.118	642.891
317.110	17.215	846.416	642.121
318.125	17.335	845.732	641.996
319.139	17.381	845.313	641.796
320.154	17.240	845.286	641.188
321.168	17.524	844.024	641.244
322.183	17.271	843.976	640.196
323.197	17.430	843.511	640.384
324.212	17.482	843.067	640.188
325.227	17.305	842.098	638.728
326.241	17.339	841.611	638.433
327.256	17.437	840.822	638.145
328.270	17.352	840.416	637.463
329.285	17.300	839.714	636.679
330.300	17.373	839.455	636.697
331.314	17.352	838.840	636.096
332.329	17.572	838.415	636.541
333.343	17.503	838.120	636.001
334.358	17.555	837.691	635.814
335.373	17.558	837.167	635.371
336.387	17.464	837.164	634.963
337.402	17.526	837.236	635.193
338.416	17.762	836.566	635.509
339.431	17.715	835.959	634.816
340.446	17.825	835.516	634.831
341.460	17.930	835.114	634.862
342.475	17.724	834.650	633.685
343.489	17.749	834.448	633.570
344.504	18.019	833.582	633.860
345.519	17.994	833.513	633.655
346.533	17.993	832.678	632.963
347.548	17.892	832.139	632.122
348.562	17.744	831.471	631.013
349.577	17.722	831.056	630.559
350.592	17.807	830.356	630.285
351.606	17.717	829.410	629.182
352.621	17.889	828.776	629.279
353.635	17.708	828.678	628.482
354.650	17.744	828.018	628.057
355.665	17.787	827.190	627.531
356.679	17.909	826.440	627.357
357.694	17.902	826.077	627.000
358.708	18.039	825.752	627.200
359.723	17.887	825.092	626.085
360.738	17.835	824.503	625.394
361.752	18.085	823.695	625.640
362.767	18.184	823.132	625.520
363.781	18.077	822.854	624.859
364.796	18.228	822.462	625.058
365.810	18.276	821.982	624.813
366.825	18.279	821.877	624.690
367.840	18.321	821.511	624.512
368.854	18.205	820.602	623.341
369.869	18.252	820.153	623.117
370.883	18.285	819.725	622.857
371.898	18.312	819.423	622.669
372.913	18.272	819.255	622.340
373.927	18.300	818.416	621.751
374.942	18.525	817.873	622.098
375.956	18.351	817.629	621.228
376.971	18.550	817.101	621.492
377.986	18.428	816.718	620.705
379.000	18.607	816.134	620.855
380.015	18.525	815.828	620.270
381.029	18.593	815.148	619.944
382.044	18.429	814.890	619.101
383.059	18.616	814.243	619.230
384.073	18.515	813.473	618.224
385.088	18.323	812.810	616.974
386.102	18.332	812.462	616.687
387.117	18.460	811.794	616.586
388.132	18.415	810.912	615.700
389.146	18.535	810.502	615.765
390.161	18.520	810.669	615.784
391.175	18.561	809.850	615.253
392.190	18.484	809.170	614.405
393.205	18.593	808.750	614.425
394.219	18.422	808.327	613.437
395.234	18.475	808.259	613.519
396.248	18.432	807.639	612.840
397.263	18.363	806.891	611.973
398.278	18.404	806.757	611.962
399.292	18.305	806.484	611.349
400.307	18.353	805.922	611.042
401.321	18.413	805.283	610.715
402.336	18.478	804.808	610.532
403.350	18.477	804.588	610.308
404.365	18.537	804.369	610.302
405.380	18.816	803.640	610.687
406.394	18.620	803.167	609.578
407.409	18.924	802.471	610.073
408.423	18.791	802.425	609.512
409.438	18.797	802.098	609.233
410.453	18.830	801.455	608.808
411.467	18.972	800.676	608.663
412.482	18.996	800.949	608.902
413.496	19.058	800.568	608.777
414.511	19.079	800.007	608.371
415.526	19.097	799.202	607.770
416.540	19.125	798.978	607.643
417.555	19.086	798.419	607.029
418.569	19.118	798.148	606.879
419.584	19.029	797.501	606.020
420.599	19.145	797.044	606.030
421.613	156.193	1370.894	1791.933
422.628	135.316	1454.522	1792.029
