DTS Sentinel unit serial number:	SN413079Multiplexer serial number:	ORYXHardware model number:	OX4-SRSoftware version number:	ORYX F/W v4.00 Oryx Data Collector v3.7.2.0data status	okinstallation	princeton_trtdifferential loss correction	single-endedforward channel	channel 1reverse channel	N/Adate	2019/09/14time	21:38:35forward acquisition time	60.00reverse acquisition time	0.00gamma	496.2192k internal	0.2318k external	0.2318temperature offset calibration	1.0012default loss term (dB/km)	0.3790temperature slope calibration	1.0000multiplexer offset coefficient	1.0000multiplexer slope coefficient	1.0000fibre end	0.00T internal ref (°C)	32.81T ext. ref 1 (°C)	4.76T ext. ref 2 (°C)	27.75length (m)	temperature (°C)	Stokes	anti-Stokes-747.200	-17.826	-0.364	-0.231
-746.185	-194.655	0.306	-0.002
-745.171	-200.000	-0.070	-0.613
-744.156	76.286	-0.132	-0.142
-743.142	203.831	-0.201	0.314
-742.127	92.136	0.215	0.245
-741.112	-197.511	-0.226	0.001
-740.098	-158.303	0.150	0.009
-739.083	29.792	0.208	0.179
-738.069	-200.000	0.008	0.243
-737.054	-3.043	0.146	-0.103
-736.039	-200.000	-0.025	0.127
-735.025	800.000	0.098	0.296
-734.010	261.421	0.162	0.284
-732.996	-166.942	-0.317	0.013
-731.981	-86.737	-0.386	0.119
-730.966	-78.147	-0.069	0.024
-729.952	-200.000	0.034	0.159
-728.937	800.000	0.059	-0.217
-727.923	-156.709	0.467	0.029
-726.908	-4.054	-0.464	-0.325
-725.894	-152.955	0.157	-0.011
-724.879	-200.000	0.000	0.211
-723.864	-104.546	-0.203	0.047
-722.850	-200.000	0.028	0.268
-721.835	335.044	-0.067	0.131
-720.821	-200.000	0.007	-0.135
-719.806	66.744	0.030	-0.031
-718.791	-10.645	0.046	-0.031
-717.777	11.645	0.144	-0.111
-716.762	800.000	0.025	-0.093
-715.748	27.097	0.251	0.213
-714.733	-122.781	0.151	0.025
-713.718	174.047	-0.249	-0.363
-712.704	-165.435	-0.099	0.004
-711.689	-63.918	-0.067	0.028
-710.675	800.000	-0.066	0.230
-709.660	154.152	0.027	-0.038
-708.645	-166.666	-0.058	-0.002
-707.631	576.741	0.089	-0.221
-706.616	-63.317	-0.239	0.099
-705.602	279.159	0.238	-0.430
-704.587	-200.000	-0.062	-0.323
-703.572	88.093	0.012	0.014
-702.558	-50.228	-0.068	0.033
-701.543	-97.710	-0.307	-0.080
-700.529	-65.046	-0.472	-0.192
-699.514	800.000	-0.047	0.135
-698.499	-200.000	0.006	-0.080
-697.485	142.022	0.144	0.193
-696.470	-33.210	-0.117	-0.065
-695.456	-81.822	-0.183	-0.061
-694.441	33.088	0.098	-0.086
-693.426	-175.292	-0.233	0.006
-692.412	104.627	0.221	-0.263
-691.397	39.289	-0.284	0.257
-690.383	-141.259	-0.070	0.007
-689.368	377.063	0.186	-0.383
-688.354	111.517	-0.233	0.284
-687.339	75.854	-0.053	0.057
-686.324	-130.099	0.159	0.022
-685.310	101.942	0.047	-0.055
-684.295	-47.098	-0.192	0.094
-683.281	800.000	-0.034	-0.124
-682.266	83.695	0.025	-0.027
-681.251	800.000	0.074	-0.250
-680.237	-200.000	0.066	-0.455
-679.222	9.068	0.079	0.060
-678.208	-200.000	-0.015	-0.215
-677.193	19.713	-0.157	0.128
-676.178	-85.342	-0.190	0.060
-675.164	-73.767	-0.382	-0.140
-674.149	174.334	-0.213	0.311
-673.135	184.195	0.280	0.419
-672.120	-200.000	-0.010	0.154
-671.105	67.211	-0.148	-0.153
-670.091	-200.000	-0.019	-0.392
-669.076	74.534	0.278	-0.295
-668.062	-59.177	0.162	0.071
-667.047	-200.000	0.019	-0.105
-666.032	21.515	0.196	-0.161
-665.018	-175.271	0.035	0.001
-664.003	-92.792	-0.446	0.126
-662.989	228.692	-0.032	-0.052
-661.974	-200.000	0.040	-0.253
-660.959	-152.500	-0.159	-0.011
-659.945	-200.000	0.005	-0.052
-658.930	584.412	-0.095	-0.236
-657.916	314.568	-0.094	-0.178
-656.901	-101.799	0.196	-0.048
-655.886	-200.000	0.014	-0.084
-654.872	-134.802	-0.420	-0.051
-653.857	2.902	0.164	-0.120
-652.843	800.000	-0.090	-0.300
-651.828	-131.651	0.354	0.047
-650.814	23.973	0.128	-0.106
-649.799	44.627	0.098	-0.091
-648.784	800.000	0.136	-0.438
-647.770	773.637	-0.061	-0.168
-646.755	743.397	-0.174	-0.472
-645.741	-10.654	-0.412	0.275
-644.726	-200.000	-0.027	0.132
-643.711	-165.232	-0.232	-0.010
-642.697	308.638	-0.185	-0.348
-641.682	362.384	0.067	-0.135
-640.668	505.423	-0.098	-0.228
-639.653	207.932	-0.258	0.406
-638.638	35.112	0.076	0.067
-637.624	57.436	0.057	0.056
-636.609	-128.779	-0.357	-0.051
-635.595	800.000	0.072	-0.248
-634.580	800.000	-0.005	0.017
-633.565	-200.000	-0.004	0.162
-632.551	281.943	-0.147	0.266
-631.536	242.174	0.113	0.191
-630.522	-200.000	-0.011	-0.224
-629.507	-200.000	-0.045	-0.221
-628.492	-111.911	0.119	-0.024
-627.478	-121.543	-0.213	0.036
-626.463	-74.057	-0.081	-0.029
-625.449	85.500	0.278	0.307
-624.434	800.000	0.116	-0.322
-623.419	-50.212	0.594	-0.283
-622.405	800.000	0.088	-0.253
-621.390	186.954	-0.160	-0.240
-620.376	-65.845	-0.126	0.051
-619.361	-164.981	0.118	0.005
-618.346	48.415	0.075	0.071
-617.332	-146.894	0.135	0.012
-616.317	-2.599	0.155	0.110
-615.303	88.677	-0.103	-0.116
-614.288	800.000	0.016	-0.046
-613.273	-200.000	0.023	0.238
-612.259	1.962	-0.073	0.053
-611.244	800.000	-0.019	-0.052
-610.230	142.370	-0.176	-0.235
-609.215	455.272	0.066	0.146
-608.201	-72.600	0.353	-0.131
-607.186	-158.710	-0.055	0.003
-606.171	-157.191	-0.118	0.007
-605.157	-35.545	0.289	-0.158
-604.142	-200.000	0.042	0.306
-603.128	-200.000	0.054	-0.329
-602.113	2.491	-0.244	0.178
-601.098	-17.736	0.330	-0.208
-600.084	320.414	0.033	-0.063
-599.069	800.000	0.097	0.329
-598.055	-141.647	0.250	-0.025
-597.040	-63.483	0.083	0.034
-596.025	-69.605	0.272	0.105
-595.011	-129.876	0.132	0.018
-593.996	-105.732	0.294	0.067
-592.982	40.267	0.042	0.038
-591.967	143.044	-0.058	-0.077
-590.952	-162.054	-0.339	-0.017
-589.938	9.729	0.305	-0.232
-588.923	-9.846	-0.142	0.095
-587.909	146.891	-0.086	0.116
-586.894	7.608	0.195	0.147
-585.879	-37.648	0.115	0.062
-584.865	207.577	0.138	0.216
-583.850	728.808	0.087	0.234
-582.836	-95.726	0.102	0.027
-581.821	-200.000	0.037	0.183
-580.806	65.374	0.361	-0.367
-579.792	-93.763	-0.052	-0.014
-578.777	39.573	-0.022	-0.020
-577.763	101.640	-0.173	-0.203
-576.748	90.165	-0.077	-0.086
-575.733	-96.237	-0.083	-0.022
-574.719	-119.705	0.218	0.038
-573.704	52.950	0.101	-0.097
-572.690	-38.360	0.058	-0.031
-571.675	800.000	0.072	0.207
-570.661	-62.127	0.258	-0.108
-569.646	-200.000	0.016	-0.081
-568.631	548.423	0.125	-0.300
-567.617	800.000	-0.010	0.032
-566.602	11.286	-0.140	0.108
-565.588	-21.936	0.238	0.145
-564.573	800.000	-0.043	-0.137
-563.558	-200.000	-0.003	0.180
-562.544	42.469	0.112	0.103
-561.529	-40.898	-0.313	-0.163
-560.515	279.675	0.179	0.322
-559.500	505.014	0.156	-0.362
-558.485	-28.047	-0.305	-0.177
-557.471	213.663	-0.119	0.189
-556.456	191.843	-0.211	0.319
-555.442	-200.000	0.014	0.132
-554.427	-31.688	-0.142	-0.080
-553.412	800.000	0.055	0.228
-552.398	530.316	0.010	0.025
-551.383	209.805	-0.081	0.127
-550.369	-104.853	-0.235	0.054
-549.354	-42.971	0.180	-0.092
-548.339	-96.364	-0.205	0.054
-547.325	-46.858	0.246	-0.121
-546.310	-131.916	0.253	-0.033
-545.296	512.368	-0.142	-0.332
-544.281	26.387	-0.090	-0.075
-543.266	600.214	-0.046	-0.114
-542.252	-118.529	0.085	0.015
-541.237	-70.277	-0.020	-0.008
-540.223	259.063	0.171	-0.296
-539.208	90.622	-0.072	0.081
-538.193	268.411	-0.218	-0.384
-537.179	89.858	0.241	0.270
-536.164	-200.000	0.009	0.115
-535.150	-22.970	-0.096	0.058
-534.135	-42.377	-0.107	-0.055
-533.121	-39.716	-0.050	0.026
-532.106	-76.133	-0.347	-0.123
-531.091	800.000	0.101	-0.304
-530.077	328.570	0.125	-0.240
-529.062	-39.775	-0.145	0.076
-528.048	-139.702	-0.268	0.029
-527.033	390.455	0.037	-0.077
-526.018	-50.119	-0.112	-0.053
-525.004	800.000	0.007	-0.020
-523.989	-16.081	0.060	-0.038
-522.975	133.298	0.117	-0.152
-521.960	-200.000	-0.007	0.164
-520.945	-114.478	-0.221	0.043
-519.931	80.728	-0.341	0.369
-518.916	-4.577	0.327	-0.227
-517.902	28.353	0.276	-0.234
-516.887	21.462	-0.224	-0.183
-515.872	163.253	-0.147	-0.208
-514.858	-200.000	0.034	-0.259
-513.843	-22.489	0.111	0.068
-512.829	-118.862	0.321	-0.056
-511.814	271.703	0.203	-0.358
-510.799	-73.974	0.128	-0.047
-509.785	-200.000	-0.012	0.136
-508.770	-200.000	0.013	0.150
-507.756	63.948	0.147	0.148
-506.741	-140.067	0.122	0.013
-505.726	-200.000	-0.016	0.190
-504.712	196.483	0.018	0.028
-503.697	-27.394	0.066	-0.039
-502.683	226.016	0.175	-0.285
-501.668	21.020	-0.230	-0.187
-500.653	-136.769	-0.389	0.045
-499.639	-86.563	0.181	0.056
-498.624	-200.000	0.029	0.276
-497.610	-200.000	-0.019	-0.164
-496.595	-114.614	0.239	-0.046
-495.581	-131.781	0.462	-0.061
-494.566	-70.703	0.231	0.087
-493.551	-168.633	0.267	0.010
-492.537	800.000	-0.100	0.283
-491.522	-200.000	-0.016	0.126
-490.508	-124.981	-0.214	-0.033
-489.493	-200.000	0.002	-0.064
-488.478	113.216	-0.261	0.317
-487.464	-37.546	-0.199	0.106
-486.449	-200.000	0.031	0.371
-485.435	-121.744	0.205	-0.034
-484.420	-143.108	-0.259	0.025
-483.405	800.000	0.091	0.293
-482.391	800.000	0.080	0.251
-481.376	43.959	0.233	-0.214
-480.362	-23.521	-0.165	-0.099
-479.347	-122.008	-0.357	-0.059
-478.332	-200.000	-0.012	0.198
-477.318	-129.887	0.091	-0.013
-476.303	-80.280	0.331	0.111
-475.289	-200.000	-0.018	-0.180
-474.274	-93.667	0.214	-0.059
-473.259	2.539	0.093	-0.067
-472.245	-54.571	-0.287	0.130
-471.230	-33.626	0.270	-0.149
-470.216	-109.172	-0.306	-0.065
-469.201	2.120	-0.131	0.095
-468.186	24.904	-0.155	-0.128
-467.172	-102.091	-0.181	0.044
-466.157	-200.000	0.019	-0.360
-465.143	-200.000	0.065	0.329
-464.128	-200.000	-0.061	0.390
-463.113	-200.000	0.056	0.330
-462.099	-65.865	-0.347	-0.139
-461.084	-58.927	0.356	0.154
-460.070	-82.429	-0.172	0.056
-459.055	-200.000	0.074	0.518
-458.040	74.866	-0.114	0.120
-457.026	-88.745	-0.356	-0.106
-456.011	92.854	0.086	0.097
-454.997	30.399	0.110	-0.094
-453.982	-160.019	0.069	-0.004
-452.968	-141.197	0.095	0.010
-451.953	53.335	0.170	-0.163
-450.938	12.787	0.248	-0.192
-449.924	-200.000	0.004	-0.068
-448.909	800.000	-0.094	-0.292
-447.895	1.570	0.121	-0.087
-446.880	-200.000	0.004	-0.100
-445.865	23.889	0.191	0.158
-444.851	197.360	-0.263	-0.402
-443.836	800.000	-0.007	-0.031
-442.822	-157.341	-0.198	0.012
-441.807	-94.382	-0.152	-0.041
-440.792	-200.000	-0.031	-0.236
-439.778	-69.034	0.069	0.027
-438.763	-28.059	0.344	-0.199
-437.749	-22.012	-0.147	-0.089
-436.734	-200.000	-0.007	-0.110
-435.719	103.665	-0.051	-0.060
-434.705	88.833	0.149	0.166
-433.690	-22.778	0.110	0.066
-432.676	-114.553	-0.006	0.001
-431.661	214.188	-0.170	0.270
-430.646	514.019	-0.046	-0.106
-429.632	-30.925	-0.158	0.089
-428.617	800.000	0.033	0.116
-427.603	-137.073	0.112	-0.013
-426.588	-200.000	-0.032	-0.212
-425.573	-17.011	-0.120	-0.076
-424.559	-200.000	-0.041	0.357
-423.544	-95.432	-0.281	-0.076
-422.530	-49.606	0.203	-0.097
-421.515	-200.000	0.009	0.421
-420.500	-200.000	0.017	-0.398
-419.486	-200.000	0.026	-0.330
-418.471	107.712	-0.114	0.135
-417.457	-155.120	0.271	-0.018
-416.442	437.222	-0.068	0.148
-415.428	-200.000	0.027	-0.123
-414.413	30.494	-0.177	-0.151
-413.398	97.306	0.040	0.045
-412.384	-200.000	-0.007	-0.097
-411.369	800.000	-0.024	0.082
-410.355	-200.000	-0.021	-0.166
-409.340	-49.099	-0.065	0.031
-408.325	60.594	-0.139	-0.138
-407.311	-55.617	-0.078	0.035
-406.296	220.617	0.108	-0.173
-405.282	-200.000	0.023	0.169
-404.267	-152.321	-0.141	-0.010
-403.252	-57.858	0.133	0.058
-402.238	-85.499	-0.118	0.037
-401.223	260.158	0.125	0.216
-400.209	561.988	0.139	0.335
-399.194	-108.135	-0.275	0.059
-398.179	-137.803	0.297	-0.033
-397.165	-200.000	-0.030	-0.135
-396.150	800.000	-0.089	-0.315
-395.136	-104.353	-0.172	-0.040
-394.121	375.189	0.217	-0.441
-393.106	203.874	0.094	0.146
-392.092	-32.487	-0.254	-0.141
-391.077	174.151	0.120	-0.173
-390.063	-71.740	0.322	0.120
-389.048	-98.793	-0.452	-0.115
-388.033	565.450	0.103	0.250
-387.019	-137.717	0.191	-0.021
-386.004	118.526	-0.089	0.109
-384.990	-200.000	-0.009	-0.140
-383.975	47.280	0.088	-0.082
-382.960	387.557	0.086	-0.177
-381.946	-62.382	-0.201	0.083
-380.931	-129.542	-0.287	0.040
-379.917	-200.000	0.016	0.602
-378.902	4.424	-0.034	-0.025
-377.888	-104.492	0.207	0.048
-376.873	-82.440	-0.012	-0.004
-375.858	36.508	0.112	-0.098
-374.844	32.932	-0.058	0.050
-373.829	-200.000	0.019	-0.204
-372.815	-200.000	-0.039	0.212
-371.800	-30.082	-0.278	-0.158
-370.785	-200.000	-0.058	0.268
-369.771	-193.859	-0.187	0.002
-368.756	539.799	0.103	-0.244
-367.742	800.000	-0.108	-0.324
-366.727	-119.398	-0.184	0.032
-365.712	-105.507	-0.167	0.038
-364.698	151.268	-0.047	-0.063
-363.683	-200.000	-0.009	0.143
-362.669	-47.452	-0.462	0.224
-361.654	231.846	-0.138	0.226
-360.639	289.195	0.095	-0.171
-359.625	-200.000	0.011	0.101
-358.610	290.693	-0.141	-0.256
-357.596	175.556	0.149	-0.215
-356.581	380.233	-0.070	-0.142
-355.566	329.216	-0.105	-0.201
-354.552	107.995	0.283	0.336
-353.537	-134.096	0.228	-0.028
-352.523	-72.826	-0.037	0.014
-351.508	49.395	-0.169	-0.158
-350.493	-41.364	0.312	0.160
-349.479	-200.000	-0.002	0.021
-348.464	480.262	-0.086	-0.194
-347.450	800.000	-0.036	-0.149
-346.435	800.000	0.143	0.501
-345.420	-16.041	-0.191	-0.121
-344.406	61.336	0.258	-0.256
-343.391	-200.000	0.013	-0.197
-342.377	800.000	0.057	0.220
-341.362	-33.266	0.152	0.084
-340.348	-77.126	-0.169	0.059
-339.333	-200.000	-0.014	0.345
-338.318	-20.193	-0.257	0.158
-337.304	-72.225	0.126	-0.047
-336.289	160.371	0.092	0.128
-335.275	95.332	-0.176	0.200
-334.260	-200.000	-0.023	0.143
-333.245	-200.000	0.014	0.144
-332.231	164.202	0.085	0.119
-331.216	-62.123	-0.131	-0.055
-330.202	-120.219	0.059	0.010
-329.187	119.654	-0.137	-0.169
-328.172	-200.000	-0.000	0.004
-327.158	800.000	0.033	0.120
-326.143	-200.000	0.029	-0.324
-325.129	122.148	-0.063	0.078
-324.114	13.961	0.097	-0.075
-323.099	48.513	-0.169	-0.158
-322.085	196.175	0.070	-0.107
-321.070	-48.884	0.216	0.103
-320.056	-35.650	-0.349	0.188
-319.041	8.968	-0.160	-0.120
-318.026	428.527	-0.083	-0.178
-317.012	-135.247	-0.488	-0.058
-315.997	45.576	-0.176	0.162
-314.983	-200.000	0.085	-0.445
-313.968	-200.000	-0.001	-0.029
-312.953	390.893	0.088	0.181
-311.939	-111.988	0.184	0.037
-310.924	195.207	0.181	-0.273
-309.910	-65.294	0.177	-0.071
-308.895	267.453	-0.109	-0.190
-307.880	199.262	-0.097	-0.148
-306.866	-96.822	0.211	-0.055
-305.851	126.787	0.093	-0.118
-304.837	-200.000	-0.075	-0.415
-303.822	-150.958	0.240	-0.018
-302.807	-200.000	-0.059	0.497
-301.793	-45.925	0.331	0.163
-300.778	-96.596	-0.142	0.037
-299.764	125.380	-0.114	0.143
-298.749	-200.000	0.006	0.051
-297.735	90.726	-0.042	-0.046
-296.720	-64.348	0.409	-0.165
-295.705	411.334	0.110	-0.231
-294.691	-78.166	0.154	-0.053
-293.676	52.956	-0.064	0.061
-292.662	-200.000	-0.008	0.109
-291.647	155.401	-0.152	0.208
-290.632	-28.470	-0.090	-0.051
-289.618	-34.085	0.157	0.086
-288.603	256.016	0.116	0.198
-287.589	-114.401	0.052	-0.010
-286.574	-200.000	0.003	0.145
-285.559	-74.737	-0.228	-0.081
-284.545	58.420	-0.148	0.144
-283.530	419.187	0.163	0.346
-282.516	-22.267	-0.269	0.162
-281.501	89.949	-0.098	-0.109
-280.486	-31.826	-0.110	0.061
-279.472	-91.141	0.055	0.016
-278.457	-60.036	0.033	-0.014
-277.443	-107.754	-0.088	-0.019
-276.428	-174.947	0.030	0.001
-275.413	124.127	0.170	0.212
-274.399	-12.987	-0.351	0.227
-273.384	77.882	0.055	-0.058
-272.370	358.858	-0.192	0.381
-271.355	77.491	-0.174	0.184
-270.340	-200.000	-0.006	0.035
-269.326	306.611	0.102	-0.189
-268.311	-7.037	-0.193	0.130
-267.297	-58.653	-0.157	-0.067
-266.282	-17.580	0.158	-0.099
-265.267	-200.000	-0.038	0.196
-264.253	-200.000	0.037	-0.222
-263.238	-30.636	-0.309	0.174
-262.224	110.998	-0.195	0.233
-261.209	-200.000	0.034	-0.154
-260.195	-84.413	-0.129	0.040
-259.180	-86.402	-0.165	0.050
-258.165	-68.807	0.286	0.110
-257.151	-200.000	-0.017	-0.235
-256.136	-200.000	-0.012	-0.156
-255.122	-97.200	0.101	-0.026
-254.107	-56.682	-0.240	-0.105
-253.092	-47.323	-0.348	-0.168
-252.078	800.000	-0.068	0.245
-251.063	49.469	-0.228	0.213
-250.049	42.064	-0.091	0.082
-249.034	-200.000	0.000	-0.215
-248.019	45.207	0.105	0.096
-247.005	-77.473	0.096	0.033
-245.990	-159.749	-0.186	0.010
-244.976	800.000	-0.014	-0.056
-243.961	-85.507	-0.244	0.076
-242.946	800.000	0.050	-0.180
-241.932	84.683	-0.138	0.150
-240.917	-112.411	-0.342	0.068
-239.903	-200.000	0.007	0.196
-238.888	800.000	0.033	0.097
-237.873	-110.434	-0.294	-0.061
-236.859	-200.000	0.014	0.078
-235.844	124.269	-0.111	0.138
-234.830	-57.841	-0.133	-0.058
-233.815	579.855	0.018	0.043
-232.800	316.923	-0.128	0.240
-231.786	-63.755	0.129	0.052
-230.771	-200.000	0.003	0.228
-229.757	82.144	-0.125	-0.134
-228.742	158.805	-0.063	-0.087
-227.727	259.168	-0.035	0.059
-226.713	-200.000	-0.004	0.226
-225.698	-53.338	0.305	-0.139
-224.684	209.976	0.218	-0.339
-223.669	18.570	-0.068	-0.054
-222.655	-49.995	0.283	-0.133
-221.640	800.000	-0.038	0.151
-220.625	141.946	-0.100	0.131
-219.611	800.000	0.037	-0.131
-218.596	-114.662	-0.209	-0.040
-217.582	-64.066	0.478	0.193
-216.567	103.343	-0.126	0.147
-215.552	-11.419	0.277	0.181
-214.538	330.602	0.129	-0.245
-213.523	-200.000	-0.005	0.251
-212.509	-43.188	-0.363	-0.182
-211.494	136.382	0.355	-0.459
-210.479	-200.000	-0.029	0.443
-209.465	-163.016	-0.203	-0.010
-208.450	32.611	-0.162	0.138
-207.436	-61.076	0.217	0.091
-206.421	658.211	-0.110	-0.279
-205.406	451.680	-0.166	0.364
-204.392	-121.810	0.072	-0.012
-203.377	-200.000	-0.040	0.190
-202.363	331.943	-0.235	-0.449
-201.348	270.882	0.106	-0.186
-200.333	-119.490	0.370	0.064
-199.319	74.750	-0.028	-0.029
-198.304	193.511	0.131	0.197
-197.290	-100.065	0.045	-0.011
-196.275	77.942	0.207	0.219
-195.260	-200.000	-0.044	0.267
-194.246	101.315	0.226	0.260
-193.231	-111.786	-0.062	-0.012
-192.217	-200.000	0.068	-0.305
-191.202	-101.607	-0.057	-0.014
-190.187	800.000	-0.028	-0.093
-189.173	157.380	-0.112	-0.154
-188.158	104.722	0.232	0.271
-187.144	800.000	-0.066	0.261
-186.129	-133.536	-0.238	0.029
-185.114	123.529	0.019	-0.024
-184.100	-13.571	0.183	-0.117
-183.085	-200.000	-0.022	-0.321
-182.071	342.874	-0.107	0.207
-181.056	201.724	-0.064	0.098
-180.042	-75.239	0.217	0.077
-179.027	-65.029	0.270	-0.108
-178.012	115.232	0.241	-0.292
-176.998	152.483	0.065	-0.088
-175.983	800.000	0.041	-0.169
-174.969	117.846	0.057	0.069
-173.954	37.985	0.119	-0.105
-172.939	800.000	0.024	-0.087
-171.925	32.840	-0.379	0.325
-170.910	-138.331	-0.238	-0.026
-169.896	800.000	0.137	-0.382
-168.881	800.000	0.084	0.289
-167.866	55.535	-0.180	-0.173
-166.852	-43.732	-0.168	-0.084
-165.837	384.253	0.144	0.293
-164.823	-200.000	0.002	0.163
-163.808	-108.520	0.215	-0.046
-162.793	-135.863	-0.061	0.007
-161.779	83.695	0.147	-0.158
-160.764	-11.983	0.326	0.211
-159.750	700.698	0.045	-0.118
-158.735	-56.787	-0.138	-0.060
-157.720	73.660	0.222	0.230
-156.706	352.507	0.130	0.255
-155.691	-169.427	0.243	-0.009
-154.677	28.044	-0.125	0.104
-153.662	-115.477	0.285	-0.053
-152.647	-5.596	-0.198	-0.134
-151.633	-200.000	0.069	-0.310
-150.618	-137.407	0.143	-0.016
-149.604	-23.279	0.113	0.067
-148.589	800.000	0.114	0.396
-147.574	-200.000	0.001	0.059
-146.560	800.000	0.089	0.284
-145.545	-66.480	0.354	-0.139
-144.531	140.208	-0.176	0.230
-143.516	-200.000	0.000	0.053
-142.502	131.645	-0.038	-0.049
-141.487	197.718	-0.072	-0.109
-140.472	323.547	0.209	0.394
-139.458	246.688	-0.096	-0.160
-138.443	-200.000	-0.021	-0.104
-137.429	45.832	-0.424	-0.388
-136.414	-200.000	-0.008	-0.251
-135.399	-200.000	0.098	-0.542
-134.385	62.333	-0.130	-0.129
-133.370	174.012	-0.106	-0.151
-132.356	800.000	-0.043	-0.134
-131.341	75.792	0.137	-0.144
-130.326	7.276	-0.197	-0.145
-129.312	-200.000	0.036	0.163
-128.297	-164.077	0.252	0.012
-127.283	580.188	0.104	0.251
-126.268	59.688	-0.215	0.210
-125.253	-115.385	-0.262	-0.049
-124.239	276.044	0.108	-0.190
-123.224	-113.355	0.271	0.053
-122.210	-71.788	0.273	0.101
-121.195	59.761	0.035	0.034
-120.180	-200.000	-0.021	0.168
-119.166	270.941	-0.087	-0.151
-118.151	88.689	-0.162	-0.178
-117.137	132.424	0.161	-0.205
-116.122	-200.000	-0.014	0.077
-115.107	800.000	0.074	0.297
-114.093	611.857	0.041	0.101
-113.078	-72.134	-0.274	0.100
-112.064	42.932	0.227	-0.205
-111.049	-124.752	0.393	-0.060
-110.034	-73.369	-0.191	-0.069
-109.020	-42.676	-0.108	-0.054
-108.005	-104.200	-0.112	-0.026
-106.991	-200.000	-0.008	0.169
-105.976	70.610	-0.212	-0.217
-104.962	219.504	0.180	0.285
-103.947	-54.775	-0.150	-0.067
-102.932	284.488	-0.122	0.216
-101.918	-11.048	-0.052	-0.034
-100.903	-122.361	-0.082	0.013
-99.889	-200.000	0.018	0.430
-98.874	-64.092	0.396	-0.159
-97.859	266.658	-0.050	-0.087
-96.845	-146.652	0.329	0.028
-95.830	748.120	-0.098	-0.262
-94.816	-39.144	0.349	-0.181
-93.801	800.000	-0.054	-0.200
-92.786	-32.846	0.246	0.135
-91.772	-48.931	0.069	0.033
-90.757	35.353	0.294	0.254
-89.743	-79.479	0.069	0.023
-88.728	-35.534	-0.152	-0.081
-87.713	20.521	0.396	0.316
-86.699	800.000	-0.127	0.363
-85.684	-200.000	-0.002	-0.150
-84.670	-70.417	0.005	-0.002
-83.655	75.797	0.158	0.165
-82.640	-9.947	0.097	0.063
-81.626	181.995	-0.061	-0.089
-80.611	118.319	-0.090	-0.109
-79.597	-163.154	-0.174	-0.008
-78.582	-200.000	0.070	-0.325
-77.567	62.990	0.059	-0.058
-76.553	-52.702	-0.134	-0.061
-75.538	-174.608	-0.114	0.003
-74.524	40.427	-0.124	0.110
-73.509	800.000	0.021	0.073
-72.494	630.112	0.082	0.205
-71.480	-34.459	-0.090	-0.048
-70.465	291.545	0.108	0.194
-69.451	-72.258	-0.114	0.042
-68.436	32.192	0.273	-0.232
-67.422	-104.765	0.198	0.045
-66.407	-200.000	-0.028	0.277
-65.392	137.261	-0.094	0.121
-64.378	127.162	0.106	0.132
-63.363	-101.083	0.103	-0.025
-62.349	588.964	-0.036	0.088
-61.334	99.896	-0.809	-0.923
-60.319	800.000	0.191	0.646
-59.305	-200.000	-0.177	-1.179
-58.290	108.810	0.718	0.845
-57.276	-200.000	-0.013	1.533
-56.261	-200.000	95.508	572.120
-55.246	648.489	1376.114	3466.619
-54.232	198.661	2547.898	3841.347
-53.217	119.599	2142.426	2613.618
-52.203	44.545	1606.600	1454.107
-51.188	36.281	1344.569	1167.180
-50.173	33.091	1302.458	1111.848
-49.159	55.007	1348.767	1282.923
-48.144	57.169	1366.199	1312.375
-47.130	36.455	1324.919	1150.979
-46.115	32.928	1308.089	1115.514
-45.100	32.778	1302.938	1110.199
-44.086	32.721	1300.695	1107.904
-43.071	32.632	1298.526	1105.495
-42.057	32.646	1296.418	1103.734
-41.042	32.696	1294.244	1102.137
-40.027	32.802	1293.095	1101.731
-39.013	32.694	1291.254	1099.491
-37.998	32.725	1289.283	1097.948
-36.984	32.782	1287.493	1096.710
-35.969	32.825	1285.506	1095.228
-34.954	32.848	1284.114	1094.132
-33.940	32.818	1283.172	1093.107
-32.925	32.923	1281.628	1092.358
-31.911	32.916	1279.609	1090.556
-30.896	32.897	1278.159	1089.166
-29.881	32.883	1277.001	1088.056
-28.867	32.951	1275.393	1087.030
-27.852	33.001	1274.409	1086.440
-26.838	32.855	1273.345	1084.649
-25.823	32.958	1271.213	1083.381
-24.809	32.886	1270.138	1082.006
-23.794	32.983	1268.879	1081.448
-22.779	32.870	1267.625	1079.689
-21.765	32.926	1266.568	1079.069
-20.750	32.821	1264.847	1076.958
-19.736	32.782	1264.003	1075.976
-18.721	32.796	1262.594	1074.814
-17.706	32.777	1262.278	1074.392
-16.692	32.764	1260.658	1072.895
-15.677	32.802	1259.684	1072.240
-14.663	32.715	1258.584	1070.769
-13.648	32.833	1256.789	1069.870
-12.633	32.776	1256.360	1069.137
-11.619	32.774	1255.391	1068.257
-10.604	32.738	1254.359	1067.136
-9.590	32.752	1253.247	1066.228
-8.575	32.677	1252.565	1065.183
-7.560	32.623	1251.973	1064.331
-6.546	32.772	1251.052	1064.347
-5.531	32.704	1250.246	1063.236
-4.517	32.650	1249.407	1062.174
-3.502	32.746	1248.487	1061.889
-2.487	32.710	1247.563	1060.859
-1.473	32.761	1243.372	1057.541
-0.458	31.313	1228.274	1036.627
0.556	26.999	1210.516	998.289
1.571	23.299	1215.725	982.022
2.586	22.273	1231.275	988.730
3.600	21.724	1219.952	976.496
4.615	16.639	1148.732	892.655
5.629	8.456	1075.122	794.831
6.644	4.925	1055.261	762.815
7.659	4.699	1052.959	759.982
8.673	4.803	1052.033	759.752
9.688	4.634	1050.812	757.981
10.702	4.788	1048.940	757.311
11.717	9.370	1054.715	783.783
12.731	16.684	1065.074	827.281
13.746	19.330	1067.535	842.056
14.761	18.478	1066.143	836.731
15.775	17.404	1064.146	829.854
16.790	16.442	1061.929	823.363
17.804	15.675	1060.671	818.584
18.819	15.230	1059.906	815.754
19.834	15.066	1058.662	813.930
20.848	14.860	1057.982	812.333
21.863	14.613	1056.789	810.146
22.877	14.403	1056.310	808.689
23.892	14.484	1055.556	808.434
24.907	14.475	1055.093	807.960
25.921	14.619	1053.551	807.405
26.936	14.598	1052.233	806.223
27.950	14.640	1050.647	805.139
28.965	14.703	1049.198	804.260
29.980	14.771	1048.181	803.737
30.994	14.967	1046.782	803.537
32.009	14.949	1045.997	802.773
33.023	14.868	1045.139	801.655
34.038	14.752	1043.962	800.128
35.053	14.724	1042.989	799.179
36.067	14.670	1042.135	798.196
37.082	14.654	1041.391	797.476
38.096	14.748	1040.628	797.273
39.111	14.731	1040.274	796.850
40.126	14.512	1038.855	794.649
41.140	14.505	1037.099	793.200
42.155	14.483	1036.242	792.372
43.169	14.339	1035.367	790.946
44.184	14.423	1034.109	790.316
45.199	14.395	1033.183	789.404
46.213	14.585	1031.834	789.203
47.228	14.618	1031.189	788.797
48.242	14.702	1029.827	788.079
49.257	14.529	1029.256	786.757
50.271	14.762	1027.793	786.670
51.286	14.707	1027.344	785.997
52.301	14.581	1026.593	784.759
53.315	14.680	1025.480	784.305
54.330	14.641	1024.317	783.164
55.344	14.513	1023.489	781.858
56.359	14.562	1022.490	781.255
57.374	14.540	1021.758	780.524
58.388	14.481	1020.811	779.455
59.403	14.348	1020.016	778.161
60.417	14.375	1019.509	777.829
61.432	14.435	1018.278	777.101
62.447	14.341	1017.803	776.234
63.461	14.194	1016.990	774.858
64.476	14.289	1015.850	774.362
65.490	14.379	1014.714	773.847
66.505	14.394	1014.000	773.305
67.520	14.338	1014.148	773.089
68.534	14.370	1013.140	772.400
69.549	14.274	1012.602	771.478
70.563	14.347	1011.506	770.912
71.578	14.236	1011.020	769.958
72.593	14.161	1010.387	769.065
73.607	14.131	1009.471	768.158
74.622	14.167	1009.028	767.922
75.636	14.121	1008.852	767.505
76.651	14.265	1007.842	767.332
77.666	14.239	1006.812	766.364
78.680	14.337	1005.980	766.111
79.695	14.438	1005.256	765.956
80.709	14.317	1004.954	765.104
81.724	14.464	1004.323	765.230
82.739	14.419	1003.627	764.426
83.753	14.614	1003.098	764.849
84.768	14.788	1001.989	764.732
85.782	14.915	1000.881	764.396
86.797	14.733	1000.538	763.237
87.812	14.651	999.444	761.960
88.826	14.677	998.372	761.193
89.841	14.602	998.047	760.536
90.855	14.760	996.614	760.096
91.870	14.840	995.826	759.795
92.884	14.721	994.824	758.423
93.899	14.748	994.156	757.967
94.914	14.871	993.484	757.946
95.928	14.822	992.660	757.026
96.943	14.734	991.831	755.932
97.957	14.791	991.106	755.569
98.972	14.685	990.391	754.478
99.987	14.820	989.054	754.002
101.001	14.844	988.135	753.343
102.016	14.651	987.959	752.271
103.030	14.771	986.915	751.951
104.045	14.787	986.126	751.354
105.060	14.571	985.715	750.005
106.074	14.531	984.288	748.673
107.089	14.424	983.155	747.266
108.103	14.440	982.177	746.528
109.118	14.456	981.535	746.046
110.133	14.449	980.713	745.322
111.147	14.421	979.596	744.283
112.162	14.496	978.759	743.914
113.176	14.564	977.971	743.552
114.191	14.661	977.476	743.546
115.206	14.599	976.592	742.531
116.220	14.627	975.578	741.817
117.235	14.600	974.370	740.714
118.249	14.487	973.767	739.687
119.264	14.521	972.991	739.182
120.279	14.438	972.255	738.190
121.293	14.424	971.664	737.617
122.308	14.417	970.848	736.901
123.322	14.391	969.757	735.894
124.337	14.509	968.292	735.237
125.352	14.406	967.879	734.403
126.366	14.392	967.143	733.719
127.381	14.530	965.655	733.133
128.395	14.351	965.016	731.796
129.410	14.446	964.409	731.688
130.424	14.522	963.585	731.331
131.439	14.643	962.443	730.930
132.454	14.685	961.707	730.487
133.468	14.640	960.896	729.612
134.483	14.671	960.433	729.333
135.497	14.667	959.088	728.227
136.512	14.776	958.274	728.021
137.527	14.610	957.782	726.859
138.541	14.637	957.243	726.505
139.556	14.668	956.211	725.789
140.570	14.797	955.858	726.017
141.585	14.852	954.928	725.485
142.600	14.912	953.987	724.967
143.614	14.840	953.432	724.170
144.629	14.922	952.418	723.692
145.643	14.825	951.560	722.556
146.658	14.712	950.482	721.186
147.673	14.743	949.157	720.250
148.687	14.693	948.560	719.519
149.702	14.749	947.364	718.787
150.716	14.708	947.137	718.375
151.731	14.696	946.256	717.592
152.746	14.726	945.435	717.035
153.760	14.712	945.363	716.855
154.775	14.838	944.507	716.683
155.789	14.950	943.824	716.582
156.804	14.737	943.547	715.395
157.819	14.837	942.805	715.199
158.833	14.947	942.057	715.037
159.848	15.124	940.997	714.924
160.862	15.000	940.198	713.725
161.877	14.870	938.994	712.194
162.892	14.717	938.507	711.113
163.906	14.715	937.288	710.117
164.921	14.751	936.864	709.887
165.935	14.750	935.890	709.083
166.950	14.764	935.169	708.532
167.964	14.796	934.193	707.865
168.979	14.882	933.278	707.471
169.994	14.835	932.320	706.485
171.008	14.825	932.033	706.163
172.023	15.044	930.917	706.180
173.037	15.046	930.624	705.904
174.052	15.091	929.366	705.075
175.067	14.830	928.854	703.528
176.081	14.752	928.520	702.882
177.096	14.810	927.819	702.532
178.110	14.887	926.667	701.924
179.125	14.983	926.520	702.153
180.140	15.008	925.849	701.688
181.154	15.033	925.718	701.628
182.169	15.000	925.196	701.032
183.183	15.110	924.677	701.040
184.198	15.142	923.559	700.262
185.213	15.066	922.823	699.326
186.227	15.250	921.928	699.351
187.242	15.105	921.735	698.540
188.256	15.308	921.175	698.900
189.271	15.222	920.000	697.591
190.286	15.091	919.188	696.365
191.300	14.917	918.384	694.972
192.315	14.902	918.112	694.644
193.329	14.729	917.864	693.674
194.344	14.992	916.701	693.825
195.359	15.091	916.270	693.847
196.373	15.139	915.665	693.527
197.388	15.284	915.248	693.751
198.402	15.316	914.765	693.457
199.417	15.408	914.193	693.341
200.432	15.483	913.681	693.201
201.446	15.664	913.112	693.454
202.461	15.566	912.966	692.879
203.475	15.538	912.212	692.130
204.490	15.442	911.372	691.034
205.504	15.464	909.946	689.985
206.519	15.310	909.723	689.120
207.534	15.256	909.226	688.460
208.548	15.379	908.153	688.091
209.563	15.380	907.578	687.600
210.577	15.479	906.980	687.493
211.592	15.652	905.929	687.341
212.607	15.552	905.676	686.678
213.621	15.552	904.631	685.827
214.636	15.502	904.135	685.187
215.650	15.615	903.488	685.098
216.665	15.591	903.314	684.804
217.680	15.774	902.242	684.678
218.694	15.576	901.958	683.594
219.709	15.596	901.263	683.091
220.723	15.695	900.206	682.629
221.738	15.611	899.448	681.653
222.753	15.679	899.087	681.597
223.767	15.677	898.628	681.179
224.782	15.834	897.962	681.251
225.796	15.806	897.404	680.655
226.811	15.714	896.857	679.804
227.826	15.595	896.260	678.812
228.840	15.668	895.042	678.124
229.855	15.674	893.969	677.277
230.869	15.645	893.766	676.947
231.884	15.500	893.183	675.858
232.899	15.628	892.321	675.660
233.913	15.496	891.515	674.463
234.928	15.714	890.539	674.538
235.942	15.593	889.968	673.563
236.957	15.477	889.992	673.056
237.972	15.611	889.315	673.020
238.986	15.640	888.468	672.438
240.001	15.529	887.957	671.547
241.015	15.656	887.589	671.716
242.030	15.775	886.734	671.486
243.045	15.609	886.725	670.756
244.059	15.715	885.878	670.479
245.074	15.742	885.199	670.010
246.088	15.765	884.761	669.713
247.103	15.965	883.764	669.695
248.117	15.992	883.991	669.915
249.132	16.050	883.102	669.411
250.147	16.183	882.482	669.410
251.161	16.211	882.204	669.253
252.176	16.193	881.365	668.483
253.190	16.229	880.794	668.134
254.205	16.242	880.098	667.600
255.220	16.402	878.690	667.102
256.234	16.329	878.370	666.515
257.249	16.353	877.628	665.987
258.263	16.381	876.812	665.418
259.278	16.365	876.301	664.907
260.293	16.375	876.057	664.706
261.307	16.430	875.390	664.354
262.322	16.531	874.713	664.179
263.336	16.307	874.569	663.131
264.351	16.589	873.065	663.036
265.366	16.457	872.185	661.794
266.380	16.542	872.102	662.004
267.395	16.461	871.665	661.298
268.409	16.317	870.627	659.891
269.424	16.452	870.062	659.931
270.439	16.469	869.024	659.150
271.453	16.420	868.106	658.205
272.468	16.388	867.966	657.917
273.482	16.334	867.529	657.318
274.497	16.347	866.875	656.812
275.512	16.477	865.936	656.550
276.526	16.377	865.724	655.943
277.541	16.666	865.135	656.559
278.555	16.600	864.675	655.896
279.570	16.611	864.254	655.561
280.585	16.796	863.247	655.454
281.599	16.588	862.510	654.034
282.614	16.705	861.629	653.757
283.628	16.645	861.343	653.254
284.643	16.754	860.496	652.974
285.657	16.496	860.303	651.774
286.672	16.681	859.592	651.889
287.687	16.623	858.961	651.130
288.701	16.552	858.814	650.687
289.716	16.686	858.023	650.547
290.730	16.595	857.589	649.811
291.745	16.760	856.796	649.785
292.760	16.865	856.198	649.679
293.774	16.909	855.548	649.295
294.789	16.817	854.957	648.438
295.803	16.848	854.269	647.974
296.818	16.585	853.649	646.444
297.833	16.611	853.026	646.013
298.847	16.715	852.493	645.950
299.862	16.847	851.908	645.951
300.876	16.934	851.217	645.704
301.891	16.889	850.893	645.229
302.906	16.850	850.449	644.685
303.920	17.037	849.722	644.788
304.935	17.023	849.364	644.408
305.949	17.058	848.599	643.901
306.964	17.176	847.786	643.675
307.979	17.073	847.412	642.943
308.993	16.881	847.222	642.015
310.008	17.054	846.368	641.966
311.022	16.895	845.827	640.899
312.037	16.993	845.095	640.659
313.052	17.018	844.281	640.077
314.066	16.838	843.809	638.984
315.081	17.006	843.023	638.965
316.095	16.914	842.409	638.096
317.110	16.864	842.082	637.607
318.125	16.780	841.702	636.944
319.139	16.931	841.040	636.956
320.154	16.989	840.942	637.041
321.168	17.144	840.112	636.939
322.183	17.048	839.633	636.160
323.197	17.062	839.394	635.974
324.212	17.138	838.750	635.714
325.227	17.040	837.977	634.706
326.241	17.097	837.506	634.508
327.256	17.145	836.653	633.984
328.270	17.097	836.149	633.365
329.285	17.094	835.683	632.946
330.300	17.052	834.909	632.146
331.314	17.191	834.276	632.129
332.329	17.196	833.981	631.870
333.343	17.304	833.734	632.027
334.358	17.187	833.637	631.462
335.373	17.354	833.028	631.567
336.387	17.372	832.815	631.415
337.402	17.350	832.934	631.369
338.416	17.498	832.205	631.307
339.431	17.419	831.576	630.482
340.446	17.441	831.723	630.620
341.460	17.576	830.801	630.364
342.475	17.623	830.391	630.173
343.489	17.619	829.965	629.779
344.504	17.823	829.224	629.913
345.519	17.667	829.038	629.139
346.533	17.560	828.379	628.189
347.548	17.514	827.855	627.566
348.562	17.487	827.192	626.909
349.577	17.389	827.006	626.352
350.592	17.557	826.111	626.236
351.606	17.354	825.577	625.029
352.621	17.518	824.631	624.863
353.635	17.542	824.222	624.585
354.650	17.499	823.460	623.795
355.665	17.622	822.827	623.711
356.679	17.508	822.761	623.185
357.694	17.633	821.972	622.993
358.708	17.716	821.247	622.691
359.723	17.596	820.459	621.601
360.738	17.698	820.234	621.744
361.752	17.655	819.867	621.257
362.767	17.704	819.251	620.913
363.781	17.766	818.482	620.499
364.796	17.977	818.258	621.043
365.810	17.897	817.775	620.328
366.825	17.980	817.510	620.375
367.840	18.007	816.904	619.958
368.854	17.928	816.404	619.239
369.869	17.685	816.315	618.236
370.883	17.853	815.724	618.341
371.898	17.910	815.327	618.191
372.913	17.995	814.958	618.165
373.927	17.855	814.341	617.137
374.942	18.105	813.533	617.372
375.956	18.026	813.305	616.861
376.971	18.146	812.538	616.657
377.986	18.204	812.160	616.522
379.000	18.153	811.945	616.123
380.015	18.232	811.474	615.996
381.029	18.195	810.718	615.232
382.044	18.218	810.508	615.101
383.059	18.339	809.793	614.939
384.073	18.178	809.131	613.804
385.088	18.110	808.687	613.169
386.102	17.986	807.974	612.130
387.117	18.126	807.478	612.200
388.132	18.053	806.512	611.156
389.146	18.172	806.266	611.340
390.161	18.192	806.240	611.336
391.175	18.277	805.294	610.868
392.190	18.265	804.966	610.522
393.205	18.132	804.157	609.381
394.219	18.191	804.047	609.454
395.234	18.071	803.889	608.853
396.248	18.163	803.190	608.596
397.263	17.992	802.911	607.724
398.278	18.059	802.317	607.459
399.292	18.149	801.741	607.287
400.307	18.065	801.616	606.841
401.321	18.049	801.136	606.367
402.336	18.136	800.640	606.248
403.350	18.236	800.094	606.135
404.365	18.378	799.758	606.331
405.380	18.300	799.381	605.715
406.394	18.459	798.898	605.857
407.409	18.554	798.265	605.656
408.423	18.596	798.175	605.686
409.438	18.528	797.522	604.897
410.453	18.607	797.460	605.072
411.467	18.585	797.104	604.673
412.482	18.726	796.457	604.626
413.496	18.758	796.028	604.359
414.511	18.773	795.955	604.300
415.526	18.660	795.555	603.549
416.540	18.567	795.169	602.873
417.555	18.661	794.554	602.686
418.569	18.747	793.935	602.465
419.584	18.639	793.787	601.918
420.599	18.821	792.836	601.783
421.613	156.577	1371.208	1794.455
422.628	135.515	1455.506	1794.563
