DTS Sentinel unit serial number:	SN413079Multiplexer serial number:	ORYXHardware model number:	OX4-SRSoftware version number:	ORYX F/W v4.00 Oryx Data Collector v3.7.2.0data status	okinstallation	princeton_trtdifferential loss correction	single-endedforward channel	channel 1reverse channel	N/Adate	2019/09/15time	08:50:35forward acquisition time	60.00reverse acquisition time	0.00gamma	496.2192k internal	0.2316k external	0.2316temperature offset calibration	0.9988default loss term (dB/km)	0.3790temperature slope calibration	1.0000multiplexer offset coefficient	1.0000multiplexer slope coefficient	1.0000fibre end	0.00T internal ref (°C)	32.37T ext. ref 1 (°C)	4.98T ext. ref 2 (°C)	29.72length (m)	temperature (°C)	Stokes	anti-Stokes-747.200	-40.935	-0.121	0.063
-746.185	-64.970	-0.135	0.055
-745.171	-146.220	0.291	-0.026
-744.156	7.856	0.265	0.201
-743.142	800.000	-0.062	-0.263
-742.127	-124.658	-0.310	-0.049
-741.112	-39.851	0.057	-0.030
-740.098	603.248	-0.073	-0.183
-739.083	-88.609	0.445	-0.134
-738.069	739.731	-0.042	-0.113
-737.054	43.290	-0.275	-0.254
-736.039	-115.245	-0.300	-0.057
-735.025	-7.480	0.369	0.253
-734.010	161.624	-0.063	0.089
-732.996	-23.890	0.073	-0.044
-731.981	-57.065	-0.232	-0.103
-730.966	-140.411	-0.258	-0.027
-729.952	-46.500	-0.246	0.122
-728.937	-134.289	-0.433	0.054
-727.923	800.000	-0.068	0.241
-726.908	4.006	-0.041	-0.031
-725.894	4.939	-0.078	0.058
-724.879	-200.000	0.021	-0.276
-723.864	-141.589	0.189	0.019
-722.850	-200.000	0.047	-0.287
-721.835	-83.388	0.382	0.124
-720.821	-74.248	0.201	0.073
-719.806	166.100	0.201	0.288
-718.791	-8.589	-0.155	-0.105
-717.777	-146.765	0.193	0.017
-716.762	417.271	0.094	-0.204
-715.748	-40.558	-0.273	0.144
-714.733	36.128	-0.201	-0.179
-713.718	321.967	-0.027	0.052
-712.704	-200.000	-0.024	-0.412
-711.689	-22.985	0.232	0.142
-710.675	-166.207	-0.165	-0.007
-709.660	219.163	0.094	-0.152
-708.645	800.000	-0.034	0.105
-707.631	19.692	-0.105	0.086
-706.616	296.320	0.062	0.115
-705.602	-5.857	-0.095	0.066
-704.587	-108.943	0.118	-0.025
-703.572	305.939	-0.126	-0.238
-702.558	55.404	-0.105	-0.103
-701.543	210.122	0.028	-0.044
-700.529	44.606	0.176	-0.164
-699.514	-87.134	-0.153	-0.047
-698.499	-102.658	-0.132	-0.032
-697.485	-200.000	-0.006	0.063
-696.470	114.112	-0.181	0.223
-695.456	685.241	0.082	-0.217
-694.441	-200.000	0.014	-0.104
-693.426	800.000	0.133	-0.448
-692.412	-200.000	0.014	0.210
-691.397	41.623	-0.224	-0.205
-690.383	541.564	0.119	0.286
-689.368	-162.005	-0.242	-0.012
-688.354	-99.566	-0.242	-0.061
-687.339	-101.900	0.136	-0.033
-686.324	-101.297	-0.072	0.018
-685.310	220.416	-0.060	-0.097
-684.295	149.221	0.103	-0.141
-683.281	-151.241	0.285	-0.022
-682.266	800.000	-0.117	-0.372
-681.251	-18.604	-0.234	-0.147
-680.237	249.150	0.157	-0.269
-679.222	144.574	-0.193	-0.261
-678.208	-39.136	0.239	-0.127
-677.193	134.808	-0.206	-0.271
-676.178	-200.000	0.085	-0.438
-675.164	-32.822	0.265	0.149
-674.149	-9.852	-0.279	0.188
-673.135	204.012	-0.052	-0.081
-672.120	160.620	0.181	-0.256
-671.105	-87.278	-0.057	0.018
-670.091	-11.561	-0.099	0.066
-669.076	-172.128	-0.164	-0.005
-668.062	800.000	0.051	0.177
-667.047	179.909	-0.237	0.350
-666.032	800.000	0.109	-0.353
-665.018	-38.036	0.219	0.117
-664.003	389.763	-0.137	-0.288
-662.989	-29.673	-0.204	-0.118
-661.974	-113.802	0.213	-0.042
-660.959	165.000	-0.096	-0.137
-659.945	-174.369	0.304	-0.009
-658.930	180.502	0.137	0.203
-657.916	800.000	-0.037	0.120
-656.901	-96.387	0.191	0.051
-655.886	388.913	-0.092	0.192
-654.872	37.067	-0.315	-0.282
-653.857	55.216	0.194	-0.189
-652.843	-200.000	0.028	-0.363
-651.828	-200.000	-0.016	-0.293
-650.814	68.145	-0.257	-0.265
-649.799	141.185	-0.231	-0.308
-648.784	800.000	0.123	0.347
-647.770	-27.475	0.159	-0.093
-646.755	-73.877	-0.307	0.113
-645.741	-82.762	-0.161	-0.052
-644.726	143.561	0.116	0.155
-643.711	421.100	0.102	-0.221
-642.697	-63.168	0.028	0.012
-641.682	-200.000	0.051	-0.300
-640.668	-128.964	0.344	0.049
-639.653	800.000	0.030	-0.111
-638.638	12.673	0.249	-0.194
-637.624	13.758	0.241	-0.189
-636.609	800.000	0.062	0.218
-635.595	-72.384	-0.076	-0.028
-634.580	6.264	-0.255	-0.190
-633.565	-19.766	-0.050	0.031
-632.551	-200.000	0.017	-0.173
-631.536	-18.327	0.091	-0.057
-630.522	-134.921	0.237	0.029
-629.507	-23.062	0.140	0.085
-628.492	207.194	0.143	0.225
-627.478	-4.681	-0.250	-0.174
-626.463	-200.000	0.047	0.230
-625.449	259.091	0.097	-0.168
-624.434	545.400	0.109	0.262
-623.419	-200.000	0.125	-0.000
-622.405	-96.744	-0.148	-0.039
-621.390	-32.727	-0.039	0.022
-620.376	-22.786	0.181	-0.110
-619.361	-130.492	-0.288	-0.039
-618.346	286.472	-0.072	0.131
-617.332	167.364	0.149	-0.213
-616.317	135.752	-0.103	0.135
-615.303	781.149	-0.058	-0.160
-614.288	-118.338	-0.207	-0.037
-613.273	-103.434	0.052	0.012
-612.259	134.646	0.148	-0.194
-611.244	-64.911	-0.281	0.114
-610.230	-200.000	-0.013	0.197
-609.215	-91.327	-0.472	-0.136
-608.201	-200.000	0.005	-0.060
-607.186	155.447	-0.163	0.226
-606.171	47.298	-0.100	-0.094
-605.157	-30.908	-0.246	0.140
-604.142	493.110	-0.140	-0.324
-603.128	-103.460	0.168	0.040
-602.113	-200.000	-0.013	-0.330
-601.098	-200.000	-0.066	-0.298
-600.084	-160.015	-0.173	0.009
-599.069	7.150	0.050	-0.038
-598.055	-37.527	0.431	-0.232
-597.040	125.285	-0.117	0.149
-596.025	-55.861	0.291	0.131
-595.011	59.852	-0.115	0.114
-593.996	77.286	-0.286	-0.306
-592.982	137.581	-0.180	-0.237
-591.967	210.225	-0.021	0.033
-590.952	278.359	0.113	-0.203
-589.938	154.896	-0.106	0.146
-588.923	483.973	0.131	-0.300
-587.909	70.672	-0.019	0.019
-586.894	800.000	-0.078	0.248
-585.879	-67.922	0.129	-0.051
-584.865	182.096	0.160	0.237
-583.850	-200.000	-0.015	0.186
-582.836	-138.764	-0.436	-0.048
-581.821	45.506	0.269	0.250
-580.806	175.979	-0.041	0.060
-579.792	16.883	-0.070	-0.056
-578.777	10.945	0.319	-0.246
-577.763	5.975	0.192	-0.143
-576.748	149.921	-0.155	0.212
-575.733	-200.000	0.009	0.094
-574.719	-88.686	0.064	-0.019
-573.704	-79.738	0.292	-0.099
-572.690	-200.000	0.034	-0.241
-571.675	-200.000	-0.019	-0.214
-570.661	-48.335	0.071	0.034
-569.646	446.970	-0.019	0.041
-568.631	800.000	-0.029	-0.094
-567.617	800.000	0.112	0.441
-566.602	-46.029	0.239	0.119
-565.588	493.791	0.043	0.099
-564.573	138.817	0.164	0.217
-563.558	800.000	0.102	-0.360
-562.544	-200.000	0.012	0.124
-561.529	-90.522	0.223	0.065
-560.515	800.000	-0.085	0.300
-559.500	800.000	0.031	-0.133
-558.485	534.957	0.007	0.016
-557.471	371.166	0.208	-0.423
-556.456	220.762	-0.233	-0.376
-555.442	-101.428	0.578	-0.141
-554.427	1.560	-0.090	-0.065
-553.412	-200.000	-0.022	0.326
-552.398	-174.540	-0.210	-0.006
-551.383	51.688	-0.313	-0.299
-550.369	-34.755	-0.221	0.121
-549.354	281.147	-0.023	0.041
-548.339	-200.000	0.048	0.218
-547.325	-77.640	-0.147	-0.051
-546.310	-43.416	0.273	-0.139
-545.296	800.000	-0.021	0.080
-544.281	-59.376	0.314	0.136
-543.266	-200.000	0.010	0.102
-542.252	-200.000	0.008	-0.185
-541.237	-103.352	-0.344	-0.081
-540.223	233.266	-0.156	-0.258
-539.208	-183.306	0.237	-0.004
-538.193	-27.139	-0.272	0.159
-537.179	800.000	-0.035	0.103
-536.164	-38.138	-0.292	-0.156
-535.150	2.553	0.198	-0.144
-534.135	8.075	-0.390	-0.294
-533.121	-200.000	0.020	-0.170
-532.106	800.000	0.051	-0.201
-531.091	174.633	0.160	0.233
-530.077	800.000	0.026	-0.112
-529.062	218.016	-0.083	-0.132
-528.048	171.516	0.128	0.185
-527.033	-38.604	-0.268	0.142
-526.018	272.419	0.068	-0.120
-525.004	800.000	-0.178	0.529
-523.989	800.000	-0.086	0.244
-522.975	-4.689	-0.197	0.136
-521.960	-19.226	0.101	0.063
-520.945	570.675	0.022	-0.053
-519.931	167.579	0.059	-0.085
-518.916	-200.000	-0.127	-0.000
-517.902	-200.000	-0.009	-0.045
-516.887	-137.342	-0.136	-0.015
-515.872	47.935	-0.177	-0.166
-514.858	-73.092	0.050	0.019
-513.843	162.265	0.097	0.137
-512.829	65.676	-0.109	-0.111
-511.814	-182.998	-0.312	-0.006
-510.799	31.737	-0.215	-0.186
-509.785	800.000	0.021	0.065
-508.770	-61.561	-0.085	-0.036
-507.756	159.546	0.162	0.226
-506.741	-24.385	-0.130	-0.077
-505.726	-15.610	0.282	-0.181
-504.712	-185.740	-0.256	0.004
-503.697	-200.000	0.019	-0.160
-502.683	545.113	-0.073	0.176
-501.668	20.888	-0.228	-0.185
-500.653	72.329	-0.220	-0.230
-499.639	-47.085	0.296	-0.145
-498.624	800.000	0.035	-0.138
-497.610	60.856	0.200	0.199
-496.595	-98.118	0.140	0.036
-495.581	800.000	0.080	-0.319
-494.566	103.480	-0.198	-0.233
-493.551	-40.319	0.156	0.082
-492.537	800.000	0.024	0.083
-491.522	-69.742	0.066	0.025
-490.508	80.347	-0.170	0.184
-489.493	253.021	0.033	-0.057
-488.478	-200.000	0.019	-0.106
-487.464	-200.000	0.010	-0.057
-486.449	1.449	0.291	0.210
-485.435	-9.082	-0.153	-0.102
-484.420	-42.755	-0.094	-0.048
-483.405	-28.982	0.114	-0.066
-482.391	695.955	-0.054	-0.143
-481.376	446.281	0.106	0.233
-480.362	-35.563	0.094	0.051
-479.347	-200.000	0.004	0.048
-478.332	373.715	-0.070	-0.143
-477.318	154.671	-0.102	0.140
-476.303	-70.780	-0.175	0.066
-475.289	10.212	-0.076	0.058
-474.274	-200.000	-0.018	0.178
-473.259	-133.982	-0.407	0.051
-472.245	473.323	-0.030	-0.067
-471.230	-161.980	0.077	0.004
-470.216	679.005	-0.085	-0.223
-469.201	17.526	0.115	0.092
-468.186	-105.004	0.473	-0.109
-467.172	-200.000	0.037	-0.235
-466.157	-76.115	0.169	-0.060
-465.143	78.086	0.197	-0.211
-464.128	-200.000	-0.035	0.375
-463.113	800.000	0.035	0.129
-462.099	-200.000	-0.053	-0.309
-461.084	-99.400	0.315	0.079
-460.070	-200.000	-0.009	0.182
-459.055	307.801	0.118	-0.220
-458.040	-76.536	0.043	-0.015
-457.026	-200.000	-0.020	0.351
-456.011	800.000	-0.096	-0.289
-454.997	-200.000	0.031	-0.156
-453.982	-23.921	0.136	-0.081
-452.968	-200.000	-0.033	0.271
-451.953	-40.379	-0.241	-0.125
-450.938	161.940	0.081	-0.113
-449.924	-200.000	-0.016	0.139
-448.909	-154.788	-0.299	0.020
-447.895	-81.209	0.114	-0.038
-446.880	96.036	0.228	0.261
-445.865	-150.672	-0.296	-0.023
-444.851	197.133	0.235	-0.358
-443.836	374.459	0.071	-0.145
-442.822	-32.087	-0.111	0.062
-441.807	735.482	0.105	-0.281
-440.792	237.157	0.141	-0.234
-439.778	-85.487	-0.124	-0.039
-438.763	-92.626	-0.440	0.123
-437.749	9.903	0.233	0.177
-436.734	527.382	0.074	-0.174
-435.719	-200.000	0.041	-0.188
-434.705	-46.646	-0.247	0.121
-433.690	79.630	0.256	0.275
-432.676	-119.422	-0.094	-0.016
-431.661	-200.000	0.062	-0.420
-430.646	100.305	-0.223	0.259
-429.632	74.722	0.297	0.312
-428.617	1.507	-0.149	0.107
-427.603	623.119	-0.107	-0.270
-426.588	491.524	0.035	-0.081
-425.573	-88.268	0.272	-0.081
-424.559	11.047	0.291	0.222
-423.544	800.000	-0.062	-0.191
-422.530	-54.617	-0.052	-0.024
-421.515	-200.000	-0.015	0.511
-420.500	-30.287	0.285	0.162
-419.486	-94.977	0.118	0.032
-418.471	-200.000	-0.032	-0.143
-417.457	63.302	-0.071	0.071
-416.442	14.189	0.172	-0.134
-415.428	165.711	0.131	-0.185
-414.413	-86.395	-0.154	0.047
-413.398	800.000	0.059	-0.225
-412.384	150.685	0.198	0.269
-411.369	149.569	-0.184	0.249
-410.355	-200.000	0.014	0.197
-409.340	-23.163	0.178	0.107
-408.325	109.265	-0.146	-0.175
-407.311	800.000	-0.025	-0.083
-406.296	-69.256	-0.070	-0.027
-405.282	101.581	-0.160	-0.187
-404.267	-33.278	-0.340	-0.188
-403.252	-97.724	0.437	0.113
-402.238	-98.965	-0.151	-0.038
-401.223	-34.412	0.230	0.126
-400.209	455.017	0.103	0.229
-399.194	-200.000	-0.079	0.441
-398.179	250.999	0.012	-0.021
-397.165	-23.758	-0.127	-0.076
-396.150	86.279	-0.045	-0.050
-395.136	7.005	-0.262	-0.195
-394.121	-107.686	-0.461	-0.101
-393.106	-200.000	0.008	-0.151
-392.092	-67.620	0.081	-0.032
-391.077	-200.000	0.009	0.517
-390.063	7.415	0.088	0.066
-389.048	63.809	0.185	0.186
-388.033	-200.000	-0.006	0.069
-387.019	-200.000	0.020	0.297
-386.004	185.679	-0.112	-0.166
-384.990	-184.919	-0.236	-0.004
-383.975	62.368	-0.076	0.076
-382.960	33.793	-0.031	-0.027
-381.946	-113.961	-0.143	0.028
-380.931	800.000	-0.104	0.395
-379.917	-200.000	0.001	0.089
-378.902	-200.000	-0.051	-0.296
-377.888	800.000	0.011	-0.041
-376.873	-170.178	-0.390	0.014
-375.858	79.303	0.081	0.086
-374.844	399.825	-0.076	-0.160
-373.829	104.860	-0.053	-0.062
-372.815	780.190	0.062	-0.170
-371.800	-12.142	0.151	0.098
-370.785	-125.322	0.156	0.024
-369.771	800.000	0.106	-0.298
-368.756	-83.416	-0.463	0.148
-367.742	-9.870	0.280	0.186
-366.727	-61.429	0.196	0.082
-365.712	-200.000	0.120	-0.000
-364.698	-125.085	0.299	-0.046
-363.683	-200.000	0.050	0.000
-362.669	-124.511	-0.151	0.023
-361.654	-200.000	-0.014	0.301
-360.639	-9.475	-0.094	0.063
-359.625	-200.000	0.181	0.000
-358.610	-73.064	-0.261	0.096
-357.596	-200.000	0.010	0.173
-356.581	-71.348	0.430	-0.161
-355.566	46.146	0.134	0.124
-354.552	621.289	-0.073	-0.184
-353.537	800.000	-0.030	0.129
-352.523	35.855	-0.071	0.062
-351.508	92.772	0.283	0.318
-350.493	-56.959	-0.103	-0.045
-349.479	-67.907	0.153	-0.060
-348.464	131.323	-0.208	-0.267
-347.450	-165.125	-0.324	0.014
-346.435	343.314	-0.129	-0.252
-345.420	800.000	-0.112	-0.383
-344.406	-45.357	-0.316	-0.156
-343.391	-4.968	-0.200	-0.137
-342.377	800.000	0.018	-0.069
-341.362	-200.000	-0.047	0.237
-340.348	-200.000	-0.004	-0.109
-339.333	377.255	-0.095	0.194
-338.318	-200.000	-0.026	0.158
-337.304	-143.674	-0.206	0.019
-336.289	692.466	-0.113	-0.295
-335.275	105.938	-0.124	-0.146
-334.260	-25.756	0.234	0.138
-333.245	88.759	-0.060	-0.066
-332.231	-78.907	-0.069	-0.023
-331.216	100.889	0.106	-0.123
-330.202	-14.280	0.047	-0.030
-329.187	185.946	0.062	-0.092
-328.172	-57.569	-0.144	-0.063
-327.158	-31.796	-0.314	-0.175
-326.143	-51.246	-0.474	-0.221
-325.129	31.999	0.371	0.318
-324.114	105.525	0.118	0.138
-323.099	81.708	0.404	0.436
-322.085	82.485	-0.064	-0.070
-321.070	-126.916	0.147	0.022
-320.056	-132.086	0.273	-0.035
-319.041	282.114	0.124	0.222
-318.026	-169.070	0.256	0.009
-317.012	27.646	-0.172	-0.144
-315.997	800.000	-0.065	-0.201
-314.983	487.468	0.108	-0.246
-313.968	-18.384	0.021	0.013
-312.953	-200.000	0.043	0.247
-311.939	-147.519	0.314	0.026
-310.924	800.000	0.050	-0.181
-309.910	-136.942	-0.160	-0.018
-308.895	-179.991	-0.137	-0.003
-307.880	-105.539	-0.252	-0.057
-306.866	-124.296	0.090	-0.014
-305.851	46.721	0.042	-0.039
-304.837	228.461	0.096	-0.155
-303.822	-124.652	-0.271	0.042
-302.807	-200.000	-0.025	0.120
-301.793	800.000	0.014	0.052
-300.778	-78.315	0.166	0.057
-299.764	-200.000	0.013	-0.064
-298.749	137.995	0.075	0.098
-297.735	-200.000	-0.006	0.176
-296.720	-200.000	0.053	-0.000
-295.705	-2.104	0.133	0.093
-294.691	2.523	0.285	0.205
-293.676	-41.946	0.277	-0.141
-292.662	-96.051	-0.278	0.074
-291.647	800.000	-0.037	-0.119
-290.632	-70.682	-0.130	0.049
-289.618	-200.000	0.058	0.392
-288.603	413.297	0.085	-0.179
-287.589	125.328	-0.055	0.069
-286.574	-28.616	-0.046	0.026
-285.559	154.528	0.088	0.121
-284.545	-152.865	-0.252	0.018
-283.530	-60.514	-0.259	-0.110
-282.516	104.619	-0.202	0.236
-281.501	800.000	-0.017	0.052
-280.486	29.820	-0.024	-0.021
-279.472	-52.247	0.311	0.144
-278.457	-132.576	0.204	-0.026
-277.443	-200.000	-0.022	0.114
-276.428	-50.327	0.063	0.030
-275.413	-48.278	0.092	-0.044
-274.399	-76.933	-0.327	0.113
-273.384	800.000	-0.021	-0.065
-272.370	425.397	0.112	0.241
-271.355	-51.953	-0.245	-0.113
-270.340	800.000	0.069	-0.236
-269.326	-111.723	-0.186	0.038
-268.311	-200.000	0.037	0.318
-267.297	-200.000	0.006	-0.341
-266.282	450.751	-0.184	-0.403
-265.267	-200.000	0.006	0.160
-264.253	-152.451	0.223	0.016
-263.238	43.598	0.210	-0.191
-262.224	47.126	0.122	0.113
-261.209	-107.623	0.212	0.046
-260.195	244.496	-0.144	0.241
-259.180	85.669	-0.262	0.287
-258.165	-65.793	0.368	0.147
-257.151	-39.560	0.064	0.033
-256.136	-77.576	0.161	0.056
-255.122	-47.336	0.374	0.181
-254.107	800.000	0.009	0.026
-253.092	-200.000	0.000	-0.249
-252.078	-16.703	-0.232	-0.146
-251.063	-58.381	0.239	0.103
-250.049	800.000	-0.041	-0.131
-249.034	-6.765	-0.073	0.049
-248.019	-131.018	-0.122	0.016
-247.005	-200.000	0.046	0.237
-245.990	-94.879	0.246	-0.066
-244.976	-200.000	-0.019	-0.085
-243.961	-4.183	-0.303	0.208
-242.946	-200.000	-0.032	0.241
-241.932	-105.876	0.453	0.101
-240.917	6.259	-0.232	0.171
-239.903	-3.132	0.050	-0.035
-238.888	-123.026	0.234	0.037
-237.873	487.511	0.089	0.202
-236.859	800.000	-0.126	-0.439
-235.844	464.387	-0.156	-0.346
-234.830	-191.330	-0.205	0.002
-233.815	-58.547	-0.047	-0.020
-232.800	-8.887	0.245	0.163
-231.786	370.192	0.081	-0.163
-230.771	-200.000	-0.027	0.136
-229.757	-22.844	-0.117	0.070
-228.742	-12.202	-0.290	0.188
-227.727	-21.970	-0.044	-0.027
-226.713	272.183	-0.120	-0.211
-225.698	-16.140	0.170	0.107
-224.684	-87.135	-0.200	0.060
-223.669	-160.510	0.097	-0.005
-222.655	-52.790	0.259	-0.118
-221.640	-200.000	-0.023	0.143
-220.625	-0.112	0.099	0.070
-219.611	52.956	-0.068	-0.065
-218.596	602.659	-0.103	-0.253
-217.582	18.060	-0.053	-0.042
-216.567	-200.000	-0.022	-0.264
-215.552	62.776	-0.106	0.106
-214.538	-200.000	0.007	-0.037
-213.523	435.874	-0.106	0.229
-212.509	-90.264	-0.192	0.055
-211.494	800.000	-0.077	-0.274
-210.479	59.006	0.081	-0.079
-209.465	800.000	-0.103	0.304
-208.450	524.974	-0.122	-0.284
-207.436	249.443	0.046	-0.078
-206.421	-200.000	-0.013	-0.121
-205.406	-183.206	0.311	-0.005
-204.392	277.461	0.180	0.318
-203.377	-200.000	0.039	-0.297
-202.363	800.000	0.063	0.197
-201.348	-122.614	0.059	0.010
-200.333	19.273	-0.242	-0.193
-199.319	-87.296	0.555	0.167
-198.304	-82.870	-0.191	0.061
-197.290	-79.098	0.414	0.140
-196.275	800.000	-0.076	0.212
-195.260	14.674	-0.152	0.118
-194.246	70.280	-0.174	0.178
-193.231	63.056	0.058	0.057
-192.217	57.444	0.113	-0.109
-191.202	229.185	0.155	-0.251
-190.187	-21.841	-0.190	0.114
-189.173	224.349	0.074	0.118
-188.158	501.918	0.098	-0.224
-187.144	-140.224	-0.233	0.024
-186.129	227.909	-0.085	0.138
-185.114	574.238	-0.070	-0.169
-184.100	-200.000	-0.040	0.189
-183.085	-9.336	0.160	-0.106
-182.071	53.180	0.105	-0.100
-181.056	286.255	-0.070	-0.125
-180.042	258.957	0.085	-0.145
-179.027	-200.000	-0.000	-0.069
-178.012	162.775	-0.132	-0.183
-176.998	150.621	-0.019	0.026
-175.983	220.144	0.103	0.163
-174.969	-123.246	-0.301	-0.048
-173.954	96.300	0.260	0.294
-172.939	-102.224	-0.063	0.015
-171.925	271.154	0.089	0.155
-170.910	118.093	0.145	0.177
-169.896	-100.327	0.114	-0.028
-168.881	209.850	-0.065	0.100
-167.866	-121.916	-0.132	0.022
-166.852	-13.655	-0.316	0.203
-165.837	-200.000	0.018	0.162
-164.823	113.144	-0.232	-0.279
-163.808	68.719	0.044	-0.044
-162.793	800.000	-0.060	0.214
-161.779	287.646	-0.139	0.248
-160.764	78.015	0.198	-0.209
-159.750	88.194	0.224	0.246
-158.735	-200.000	0.009	-0.168
-157.720	-200.000	-0.032	0.209
-156.706	159.553	0.046	0.063
-155.691	618.170	0.094	-0.234
-154.677	-200.000	-0.012	0.401
-153.662	800.000	0.025	-0.103
-152.647	-200.000	0.015	-0.181
-151.633	77.439	-0.172	-0.181
-150.618	187.050	-0.123	-0.181
-149.604	-200.000	0.004	0.253
-148.589	32.454	0.220	0.188
-147.574	146.290	-0.086	0.115
-146.560	174.084	-0.081	0.115
-145.545	-200.000	0.013	-0.151
-144.531	233.049	-0.028	0.046
-143.516	-128.364	0.059	0.008
-142.502	-200.000	-0.019	0.207
-141.487	-92.245	0.124	0.035
-140.472	-98.408	0.127	-0.032
-139.458	-162.940	0.207	-0.010
-138.443	-42.405	-0.031	0.016
-137.429	-152.442	0.284	0.020
-136.414	-70.327	-0.254	-0.095
-135.399	204.606	-0.125	0.191
-134.385	-47.211	0.129	0.062
-133.370	-200.000	-0.008	0.038
-132.356	-60.508	-0.165	-0.069
-131.341	468.779	0.066	-0.146
-130.326	-200.000	0.036	-0.249
-129.312	114.243	0.038	-0.045
-128.297	-200.000	-0.029	-0.361
-127.283	335.593	0.198	-0.381
-126.268	-85.195	-0.285	0.088
-125.253	32.770	-0.297	-0.254
-124.239	-175.808	-0.103	0.003
-123.224	-3.987	0.057	-0.039
-122.210	-200.000	-0.040	-0.249
-121.195	345.244	0.133	0.259
-120.180	-200.000	0.035	-0.250
-119.166	-58.883	0.270	0.115
-118.151	-163.068	0.182	-0.009
-117.137	21.122	-0.238	-0.191
-116.122	219.893	0.097	-0.154
-115.107	-200.000	-0.018	0.109
-114.093	-131.511	-0.301	-0.039
-113.078	24.597	-0.154	-0.126
-112.064	-45.089	0.239	0.118
-111.049	-200.000	-0.013	0.258
-110.034	-146.498	0.349	-0.030
-109.020	-200.000	-0.030	-0.357
-108.005	-187.138	-0.084	-0.001
-106.991	-200.000	0.072	0.567
-105.976	-79.002	0.146	0.049
-104.962	100.097	-0.092	0.106
-103.947	-38.028	-0.100	0.052
-102.932	710.676	0.105	-0.274
-101.918	-200.000	0.029	0.134
-100.903	-13.803	0.086	0.055
-99.889	25.388	0.076	0.063
-98.874	800.000	-0.017	-0.072
-97.859	-69.470	0.220	0.083
-96.845	-29.917	-0.178	0.100
-95.830	226.635	0.152	0.243
-94.816	-1.643	-0.302	0.210
-93.801	750.004	-0.096	0.255
-92.786	-117.410	0.060	0.011
-91.772	-115.036	-0.389	0.073
-90.757	-61.896	-0.153	0.063
-89.743	-154.924	0.163	-0.011
-88.728	800.000	-0.056	-0.231
-87.713	-8.025	-0.341	0.227
-86.699	-200.000	0.054	-0.373
-85.684	-23.585	-0.115	-0.068
-84.670	-200.000	-0.015	0.140
-83.655	-200.000	0.070	0.350
-82.640	38.695	-0.174	0.153
-81.626	231.688	-0.027	0.043
-80.611	134.187	-0.153	-0.196
-79.597	-136.146	0.193	-0.022
-78.582	289.522	0.112	0.200
-77.567	-200.000	0.064	0.332
-76.553	-92.326	-0.371	0.103
-75.538	-160.045	-0.098	0.005
-74.524	800.000	0.016	-0.068
-73.509	-76.415	0.291	-0.101
-72.494	-200.000	0.024	-0.209
-71.480	16.650	-0.170	0.133
-70.465	573.698	0.162	0.390
-69.451	-142.104	-0.211	-0.021
-68.436	361.501	0.117	-0.231
-67.422	44.708	0.328	0.297
-66.407	-169.482	0.061	0.002
-65.392	65.050	0.076	0.076
-64.378	18.634	-0.192	-0.152
-63.363	800.000	0.094	0.299
-62.349	-87.963	0.257	-0.076
-61.334	21.829	-1.260	-1.013
-60.319	1.557	0.408	0.290
-59.305	-200.000	-0.161	-0.706
-58.290	800.000	0.395	1.321
-57.276	502.441	0.745	1.697
-56.261	-200.000	97.089	595.966
-55.246	639.166	1412.888	3543.068
-54.232	189.363	2599.090	3840.164
-53.217	121.422	2168.743	2663.719
-52.203	44.498	1619.491	1466.814
-51.188	35.842	1354.495	1174.226
-50.173	32.606	1311.930	1118.114
-49.159	56.553	1358.617	1302.713
-48.144	58.876	1375.000	1332.325
-47.130	36.187	1333.946	1158.303
-46.115	32.721	1316.112	1122.186
-45.100	32.399	1311.470	1116.271
-44.086	32.200	1309.027	1112.971
-43.071	32.329	1306.439	1111.488
-42.057	32.239	1304.482	1109.249
-41.042	32.328	1302.975	1108.448
-40.027	32.344	1301.738	1107.444
-39.013	32.301	1299.186	1104.980
-37.998	32.388	1297.489	1104.003
-36.984	32.307	1296.339	1102.502
-35.969	32.400	1294.352	1101.315
-34.954	32.354	1293.113	1099.949
-33.940	32.405	1291.947	1099.210
-32.925	32.442	1290.212	1097.904
-31.911	32.488	1288.306	1096.508
-30.896	32.555	1286.824	1095.594
-29.881	32.470	1285.676	1094.078
-28.867	32.517	1284.080	1092.952
-27.852	32.520	1282.362	1091.465
-26.838	32.377	1281.609	1089.947
-25.823	32.502	1280.103	1089.348
-24.809	32.378	1278.610	1087.318
-23.794	32.450	1277.502	1086.749
-22.779	32.525	1275.869	1085.748
-21.765	32.487	1274.963	1084.714
-20.750	32.447	1273.523	1083.217
-19.736	32.387	1272.310	1081.799
-18.721	32.297	1271.023	1080.145
-17.706	32.393	1269.954	1079.742
-16.692	32.386	1268.519	1078.438
-15.677	32.338	1267.391	1077.163
-14.663	32.430	1266.349	1076.760
-13.648	32.279	1265.677	1075.282
-12.633	32.259	1264.467	1074.097
-11.619	32.297	1263.642	1073.572
-10.604	32.374	1262.781	1073.236
-9.590	32.260	1262.213	1072.061
-8.575	32.301	1260.741	1071.003
-7.560	32.276	1260.310	1070.449
-6.546	32.206	1259.754	1069.542
-5.531	32.193	1258.733	1068.556
-4.517	32.179	1257.818	1067.658
-3.502	32.351	1256.731	1067.671
-2.487	32.322	1255.689	1066.579
-1.473	32.378	1251.808	1063.555
-0.458	31.441	1237.250	1045.904
0.556	27.236	1220.728	1011.392
1.571	23.887	1226.185	997.082
2.586	22.908	1241.220	1003.655
3.600	22.261	1229.984	990.841
4.615	17.034	1158.041	904.999
5.629	8.847	1083.024	805.309
6.644	5.304	1063.103	772.928
7.659	4.978	1061.114	769.805
8.673	4.838	1059.765	768.066
9.688	4.810	1058.575	766.999
10.702	5.074	1056.710	766.877
11.717	10.168	1063.874	797.162
12.731	17.390	1073.796	840.329
13.746	19.266	1075.195	850.620
14.761	18.191	1073.248	843.701
15.775	16.839	1071.027	835.225
16.790	15.845	1069.203	828.834
17.804	15.302	1067.133	824.486
18.819	14.840	1066.454	821.620
19.834	14.628	1065.316	819.630
20.848	14.248	1064.698	817.213
21.863	14.017	1063.968	815.451
22.877	14.081	1063.069	815.004
23.892	13.989	1062.000	813.658
24.907	14.030	1061.035	813.050
25.921	14.091	1060.362	812.758
26.936	13.980	1058.886	811.016
27.950	14.152	1057.515	810.733
28.965	14.189	1056.117	809.767
29.980	14.226	1054.446	808.592
30.994	14.325	1053.186	808.039
32.009	14.301	1052.677	807.461
33.023	14.381	1051.083	806.552
34.038	14.254	1050.243	805.223
35.053	14.216	1049.300	804.244
36.067	14.170	1048.714	803.500
37.082	14.267	1047.381	802.878
38.096	14.200	1046.966	802.163
39.111	14.249	1046.344	801.853
40.126	14.209	1044.976	800.542
41.140	13.987	1043.871	798.557
42.155	14.030	1042.470	797.620
43.169	13.888	1041.616	796.216
44.184	13.891	1040.615	795.397
45.199	13.949	1038.961	794.337
46.213	13.889	1038.286	793.466
47.228	14.088	1037.226	793.534
48.242	14.080	1036.085	792.552
49.257	14.010	1035.048	791.359
50.271	14.075	1034.390	791.091
51.286	14.219	1033.144	790.756
52.301	14.093	1032.135	789.313
53.315	14.039	1031.197	788.271
54.330	13.844	1030.372	786.649
55.344	13.983	1029.445	786.527
56.359	14.015	1028.489	785.879
57.374	14.149	1027.551	785.723
58.388	13.877	1026.566	783.619
59.403	13.793	1026.167	782.847
60.417	14.002	1025.058	782.920
61.432	13.913	1024.677	782.140
62.447	13.881	1023.719	781.188
63.461	13.795	1022.683	779.924
64.476	13.861	1021.853	779.534
65.490	13.936	1020.975	779.144
66.505	13.923	1020.310	778.508
67.520	13.860	1019.800	777.752
68.534	13.873	1019.003	777.137
69.549	13.831	1018.269	776.313
70.563	13.801	1017.177	775.274
71.578	13.876	1016.632	775.137
72.593	13.884	1015.622	774.338
73.607	13.728	1015.241	773.252
74.622	13.680	1014.940	772.730
75.636	13.814	1013.669	772.316
76.651	13.809	1013.052	771.754
77.666	13.722	1012.686	771.005
78.680	13.811	1011.851	770.713
79.695	13.820	1011.049	770.076
80.709	13.892	1010.472	769.902
81.724	14.010	1009.819	769.884
82.739	14.101	1008.938	769.563
83.753	14.190	1008.349	769.457
84.768	14.190	1007.785	768.962
85.782	14.275	1006.490	768.294
86.797	14.212	1005.543	767.216
87.812	14.091	1005.292	766.400
88.826	14.095	1004.174	765.496
89.841	14.299	1002.679	765.225
90.855	14.217	1002.349	764.529
91.870	14.265	1001.607	764.117
92.884	14.178	1001.205	763.343
93.899	14.144	1000.212	762.363
94.914	14.384	998.977	762.451
95.928	14.343	998.411	761.767
96.943	14.322	996.920	760.467
97.957	14.255	996.338	759.650
98.972	14.232	995.413	758.770
99.987	14.246	994.595	758.144
101.001	14.326	993.678	757.742
102.016	14.230	992.920	756.660
103.030	14.285	992.254	756.336
104.045	14.326	991.526	755.899
105.060	14.131	990.713	754.328
106.074	14.044	989.390	752.862
107.089	14.027	988.394	751.958
108.103	13.969	987.572	751.004
109.118	14.012	986.413	750.254
110.133	14.060	985.589	749.777
111.147	13.961	985.167	748.939
112.162	13.940	984.314	748.134
113.176	14.055	983.532	747.989
114.191	14.079	982.887	747.541
115.206	14.062	982.089	746.792
116.220	14.018	980.974	745.682
117.235	14.063	980.258	745.273
118.249	14.081	979.201	744.484
119.264	13.943	978.807	743.501
120.279	14.043	977.691	743.035
121.293	13.915	977.186	742.011
122.308	13.931	976.566	741.547
123.322	13.855	975.332	740.203
124.337	13.943	974.402	739.825
125.352	13.878	973.346	738.668
126.366	13.979	972.155	738.147
127.381	13.926	971.381	737.260
128.395	13.996	970.407	736.768
129.410	14.029	969.601	736.235
130.424	14.151	968.627	735.972
131.439	14.147	968.208	735.570
132.454	14.192	967.250	734.975
133.468	14.104	966.664	734.078
134.483	14.218	965.644	733.740
135.497	14.088	964.848	732.497
136.512	14.109	964.185	732.022
137.527	14.122	963.425	731.439
138.541	14.172	962.251	730.698
139.556	14.136	962.088	730.356
140.570	14.120	961.169	729.522
141.585	14.364	959.999	729.640
142.600	14.315	959.233	728.777
143.614	14.369	958.691	728.535
144.629	14.476	957.627	728.132
145.643	14.465	956.801	727.390
146.658	14.265	955.993	725.842
147.673	14.343	954.792	725.203
148.687	14.083	954.236	723.587
149.702	14.140	953.260	723.031
150.716	14.076	952.488	722.101
151.731	14.248	951.600	722.111
152.746	14.257	950.968	721.606
153.760	14.223	950.480	721.025
154.775	14.300	949.882	720.840
155.789	14.382	949.407	720.771
156.804	14.276	948.514	719.574
157.819	14.300	948.184	719.363
158.833	14.412	947.431	719.209
159.848	14.429	946.567	718.563
160.862	14.275	945.826	717.276
161.877	14.227	944.603	716.078
162.892	14.287	943.620	715.525
163.906	14.218	942.658	714.436
164.921	14.241	941.737	713.774
165.935	14.213	941.284	713.248
166.950	14.337	940.163	712.865
167.964	14.364	939.464	712.388
168.979	14.332	938.210	711.238
169.994	14.324	937.497	710.602
171.008	14.337	937.173	710.348
172.023	14.446	936.457	710.206
173.037	14.479	935.608	709.639
174.052	14.497	934.738	708.995
175.067	14.271	934.598	707.866
176.081	14.266	933.965	707.300
177.096	14.364	933.122	707.018
178.110	14.498	932.149	706.784
179.125	14.418	931.661	706.014
180.140	14.339	931.563	705.543
181.154	14.533	930.756	705.689
182.169	14.464	930.796	705.365
183.183	14.615	929.441	704.911
184.198	14.696	928.919	704.795
185.213	14.514	928.315	703.508
186.227	14.696	927.319	703.458
187.242	14.830	926.745	703.526
188.256	14.749	926.757	703.130
189.271	14.785	925.780	702.480
190.286	14.489	924.748	700.392
191.300	14.319	924.013	699.057
192.315	14.301	923.300	698.381
193.329	14.438	922.925	698.610
194.344	14.409	922.392	698.023
195.359	14.555	921.737	698.076
196.373	14.596	920.902	697.554
197.388	14.677	920.802	697.756
198.402	14.810	920.586	698.088
199.417	14.823	919.748	697.442
200.432	14.987	919.271	697.702
201.446	15.052	918.542	697.358
202.461	15.156	917.934	697.267
203.475	14.933	917.593	696.020
204.490	14.898	916.523	694.999
205.504	14.930	915.681	694.435
206.519	14.760	914.615	692.857
207.534	14.810	914.451	692.880
208.548	14.796	913.663	692.167
209.563	14.905	913.022	692.068
210.577	14.866	912.501	691.449
211.592	15.040	911.493	691.346
212.607	15.107	910.762	691.007
213.621	15.065	910.222	690.364
214.636	14.971	909.597	689.441
215.650	15.125	908.803	689.413
216.665	15.029	908.457	688.692
217.680	15.076	907.643	688.207
218.694	15.093	906.985	687.716
219.709	15.109	906.138	687.079
220.723	15.206	905.498	686.930
221.738	15.220	904.824	686.418
222.753	15.077	904.311	685.381
223.767	15.229	904.097	685.781
224.782	15.430	903.051	685.749
225.796	15.320	902.805	685.052
226.811	15.415	901.797	684.613
227.826	15.201	901.012	683.084
228.840	15.125	900.758	682.520
229.855	15.117	899.353	681.365
230.869	15.146	899.029	681.176
231.884	15.196	898.135	680.643
232.899	15.248	897.190	680.076
233.913	15.149	896.924	679.412
234.928	15.098	896.038	678.474
235.942	15.069	895.745	678.076
236.957	15.264	895.240	678.424
237.972	15.184	894.476	677.461
238.986	15.161	893.944	676.903
240.001	15.149	893.329	676.332
241.015	15.155	893.106	676.125
242.030	15.241	892.231	675.752
243.045	15.337	891.392	675.442
244.059	15.274	891.258	675.027
245.074	15.276	890.834	674.654
246.088	15.337	890.048	674.245
247.103	15.419	889.184	673.861
248.117	15.423	888.912	673.610
249.132	15.606	888.471	673.951
250.147	15.761	887.559	673.818
251.161	15.652	887.084	672.962
252.176	15.732	886.441	672.734
253.190	15.712	885.779	672.093
254.205	15.862	884.981	672.028
255.220	15.867	884.247	671.432
256.234	15.814	883.952	670.935
257.249	15.863	883.208	670.506
258.263	15.891	882.368	669.921
259.278	15.765	882.178	669.218
260.293	15.934	881.101	669.013
261.307	16.047	880.376	668.852
262.322	15.943	879.772	667.920
263.336	15.955	879.343	667.582
264.351	15.977	878.389	666.887
265.366	16.008	878.179	666.793
266.380	15.818	877.687	665.609
267.395	15.964	876.541	665.255
268.409	15.873	876.097	664.500
269.424	15.957	875.438	664.275
270.439	15.885	874.371	663.123
271.453	15.847	874.207	662.790
272.468	15.758	873.452	661.807
273.482	15.869	872.957	661.812
274.497	15.939	872.314	661.540
275.512	15.992	871.819	661.315
276.526	15.868	871.227	660.320
277.541	16.033	870.670	660.484
278.555	16.094	870.263	660.357
279.570	16.097	869.760	659.930
280.585	16.177	868.780	659.440
281.599	16.170	867.882	658.672
282.614	16.021	866.935	657.313
283.628	15.981	866.927	657.096
284.643	16.057	866.253	656.822
285.657	16.130	865.514	656.488
286.672	16.078	865.079	655.898
287.687	16.249	864.345	655.948
288.701	16.255	863.675	655.405
289.716	16.095	863.421	654.533
290.730	16.004	862.818	653.665
291.745	16.256	861.954	653.927
292.760	16.278	861.679	653.745
293.774	16.461	860.696	653.649
294.789	16.385	860.275	652.981
295.803	16.318	859.162	651.817
296.818	16.300	858.649	651.304
297.833	16.208	858.120	650.489
298.847	16.319	857.936	650.718
299.862	16.282	857.302	650.039
300.876	16.401	856.694	649.976
301.891	16.508	855.944	649.761
302.906	16.348	855.747	648.939
303.920	16.377	855.106	648.507
304.935	16.613	854.586	648.962
305.949	16.536	853.734	647.961
306.964	16.460	853.309	647.293
307.979	16.493	852.698	646.898
308.993	16.682	851.943	646.989
310.008	16.593	851.662	646.378
311.022	16.676	851.076	646.195
312.037	16.549	850.562	645.262
313.052	16.448	849.708	644.172
314.066	16.462	849.274	643.841
315.081	16.451	848.754	643.347
316.095	16.476	848.030	642.837
317.110	16.475	847.737	642.553
318.125	16.572	846.919	642.242
319.139	16.495	846.682	641.714
320.154	16.583	846.116	641.562
321.168	16.728	845.445	641.547
322.183	16.804	844.579	641.120
323.197	16.608	844.566	640.311
324.212	16.663	844.104	640.113
325.227	16.624	843.356	639.343
326.241	16.644	842.470	638.689
327.256	16.679	842.139	638.515
328.270	16.634	841.542	637.837
329.285	16.568	841.186	637.261
330.300	16.577	840.247	636.528
331.314	16.671	839.891	636.556
332.329	16.741	839.357	636.356
333.343	16.773	839.173	636.280
334.358	16.907	838.463	636.188
335.373	16.876	838.404	635.973
336.387	16.596	838.543	634.969
337.402	16.825	837.811	635.219
338.416	16.912	837.281	635.087
339.431	16.879	836.995	634.690
340.446	17.082	836.375	634.920
341.460	17.124	836.276	634.947
342.475	17.175	835.760	634.688
343.489	17.041	835.591	634.004
344.504	17.044	835.011	633.521
345.519	17.133	834.407	633.337
346.533	17.033	833.924	632.541
347.548	16.971	833.329	631.803
348.562	16.984	832.643	631.277
349.577	17.017	832.095	630.929
350.592	17.020	831.371	630.333
351.606	16.989	830.935	629.831
352.621	17.028	829.924	629.156
353.635	16.987	829.495	628.624
354.650	17.040	828.763	628.208
355.665	17.081	828.304	627.956
356.679	17.065	827.713	627.394
357.694	17.143	826.858	626.978
358.708	17.234	826.394	626.907
359.723	17.190	825.646	626.123
360.738	17.348	824.826	626.026
361.752	17.219	824.510	625.255
362.767	17.233	824.310	625.101
363.781	17.341	823.722	624.995
364.796	17.413	823.343	624.919
365.810	17.386	822.981	624.490
366.825	17.367	822.825	624.246
367.840	17.287	822.206	623.429
368.854	17.354	821.691	623.226
369.869	17.416	821.266	623.075
370.883	17.513	820.689	622.939
371.898	17.586	820.313	622.864
372.913	17.567	819.806	622.355
373.927	17.564	819.230	621.851
374.942	17.650	818.744	621.743
375.956	17.637	818.628	621.550
376.971	17.578	818.348	621.068
377.986	17.672	817.551	620.751
379.000	17.645	817.358	620.451
380.015	17.698	816.513	619.947
381.029	17.896	815.715	620.008
382.044	17.732	815.420	619.133
383.059	17.717	815.143	618.813
384.073	17.634	814.272	617.796
385.088	17.638	813.430	617.115
386.102	17.765	813.072	617.250
387.117	17.877	811.989	616.777
388.132	17.563	811.892	615.515
389.146	17.667	811.368	615.438
390.161	17.752	811.127	615.508
391.175	17.617	810.589	614.557
392.190	17.856	809.826	614.786
393.205	17.716	809.545	614.016
394.219	17.599	809.524	613.524
395.234	17.600	809.321	613.321
396.248	17.683	808.285	612.779
397.263	17.715	807.723	612.414
398.278	17.578	807.387	611.613
399.292	17.738	807.173	611.971
400.307	17.650	806.533	611.117
401.321	17.769	805.965	611.056
402.336	17.636	805.753	610.367
403.350	17.766	805.008	610.212
404.365	17.741	805.167	610.191
405.380	17.920	804.249	610.080
406.394	17.917	803.881	609.737
407.409	18.193	803.410	610.309
408.423	18.105	803.268	609.832
409.438	18.051	803.099	609.460
410.453	18.236	802.284	609.445
411.467	18.127	801.734	608.584
412.482	18.361	801.461	609.157
413.496	18.293	801.159	608.633
414.511	18.223	801.037	608.237
415.526	18.211	800.367	607.629
416.540	18.226	799.704	607.126
417.555	18.186	799.397	606.698
418.569	18.252	798.951	606.540
419.584	18.104	798.663	605.742
420.599	18.148	798.344	605.603
421.613	155.323	1370.083	1792.904
422.628	134.597	1453.385	1793.023
