DTS Sentinel unit serial number:	SN413079Multiplexer serial number:	ORYXHardware model number:	OX4-SRSoftware version number:	ORYX F/W v4.00 Oryx Data Collector v3.7.2.0data status	okinstallation	princeton_trtdifferential loss correction	single-endedforward channel	channel 1reverse channel	N/Adate	2019/09/19time	07:34:35forward acquisition time	60.00reverse acquisition time	0.00gamma	496.2192k internal	0.2342k external	0.2342temperature offset calibration	1.0014default loss term (dB/km)	0.3790temperature slope calibration	1.0000multiplexer offset coefficient	1.0000multiplexer slope coefficient	1.0000fibre end	0.00T internal ref (°C)	19.31T ext. ref 1 (°C)	0.55T ext. ref 2 (°C)	14.27length (m)	temperature (°C)	Stokes	anti-Stokes-747.200	-48.040	-0.211	0.102
-746.185	-200.000	-0.031	0.237
-745.171	119.676	-0.287	0.357
-744.156	-16.249	-0.447	0.284
-743.142	80.364	0.129	0.139
-742.127	800.000	-0.039	0.168
-741.112	-63.193	-0.225	0.093
-740.098	461.150	0.108	0.240
-739.083	-200.000	0.033	0.224
-738.069	-200.000	-0.049	0.233
-737.054	-187.222	-0.180	0.002
-736.039	800.000	0.012	-0.036
-735.025	344.265	0.198	0.389
-734.010	-147.289	-0.296	-0.025
-732.996	97.053	-0.084	0.096
-731.981	-200.000	0.012	-0.154
-730.966	-132.530	-0.259	-0.033
-729.952	-200.000	-0.042	-0.202
-728.937	-110.579	-0.280	-0.058
-727.923	-200.000	-0.015	-0.225
-726.908	339.746	0.107	0.209
-725.894	800.000	-0.064	-0.211
-724.879	97.666	-0.066	0.076
-723.864	481.008	-0.057	0.130
-722.850	-200.000	0.016	0.113
-721.835	-200.000	-0.024	-0.134
-720.821	-52.858	-0.337	0.155
-719.806	111.037	-0.062	-0.075
-718.791	-56.271	-0.291	0.129
-717.777	-82.944	0.397	-0.128
-716.762	-56.017	-0.278	0.124
-715.748	-200.000	0.040	-0.244
-714.733	-147.658	-0.064	-0.005
-713.718	-200.000	-0.006	-0.248
-712.704	-153.776	0.222	-0.015
-711.689	103.378	-0.122	-0.143
-710.675	-200.000	0.007	-0.218
-709.660	373.518	-0.078	0.158
-708.645	151.748	0.068	-0.093
-707.631	2.863	0.172	-0.125
-706.616	-200.000	0.003	0.204
-705.602	-180.048	-0.162	0.003
-704.587	-186.536	0.151	-0.002
-703.572	150.598	-0.205	0.279
-702.558	-138.489	0.097	0.011
-701.543	-150.050	0.145	0.011
-700.529	-173.434	-0.366	0.011
-699.514	800.000	0.057	-0.227
-698.499	800.000	-0.071	0.231
-697.485	391.760	-0.194	0.404
-696.470	-86.257	-0.334	0.103
-695.456	-200.000	0.038	-0.271
-694.441	-162.201	-0.108	0.005
-693.426	172.849	0.053	0.076
-692.412	738.682	0.033	-0.089
-691.397	-63.040	0.286	0.118
-690.383	-18.850	-0.276	-0.172
-689.368	133.050	-0.158	-0.204
-688.354	-96.512	-0.153	-0.040
-687.339	195.160	0.071	0.108
-686.324	71.979	0.115	-0.120
-685.310	214.913	0.018	0.028
-684.295	-200.000	0.040	-0.227
-683.281	1.126	-0.277	-0.198
-682.266	-104.683	-0.098	0.023
-681.251	0.596	-0.159	0.114
-680.237	-92.382	-0.483	-0.136
-679.222	169.630	0.203	0.290
-678.208	-200.000	0.011	-0.078
-677.193	83.819	-0.060	-0.065
-676.178	-23.432	-0.229	-0.138
-675.164	-44.883	-0.111	0.055
-674.149	-200.000	0.001	0.023
-673.135	800.000	0.075	-0.235
-672.120	78.784	0.072	0.076
-671.105	-41.256	-0.231	0.119
-670.091	236.279	-0.008	0.012
-669.076	-200.000	-0.016	0.125
-668.062	-200.000	0.064	-0.451
-667.047	-200.000	0.004	0.236
-666.032	-39.339	-0.131	0.069
-665.018	45.428	-0.257	-0.237
-664.003	28.762	-0.119	-0.100
-662.989	-200.000	-0.061	0.314
-661.974	409.346	-0.097	-0.206
-660.959	163.851	-0.288	0.405
-659.945	103.307	0.180	-0.211
-658.930	-57.231	-0.023	0.010
-657.916	38.267	-0.106	-0.094
-656.901	-200.000	-0.078	-0.344
-655.886	-75.712	-0.181	-0.064
-654.872	225.179	-0.188	-0.304
-653.857	-8.755	0.415	0.278
-652.843	-24.993	-0.138	0.082
-651.828	-104.841	-0.171	0.039
-650.814	56.643	0.221	0.214
-649.799	211.713	0.132	0.208
-648.784	-18.507	-0.177	0.111
-647.770	308.705	-0.043	-0.081
-646.755	379.854	0.124	0.254
-645.741	800.000	-0.092	0.303
-644.726	-86.432	-0.343	0.105
-643.711	-115.964	0.152	-0.028
-642.697	183.859	-0.111	-0.164
-641.682	182.982	0.012	-0.018
-640.668	-92.592	-0.185	-0.052
-639.653	-83.495	0.346	-0.110
-638.638	-113.016	0.030	0.006
-637.624	-16.684	0.414	-0.262
-636.609	800.000	0.106	-0.399
-635.595	-113.824	-0.333	-0.065
-634.580	-91.513	-0.226	0.064
-633.565	800.000	0.053	-0.159
-632.551	57.339	-0.116	-0.113
-631.536	361.804	-0.104	-0.208
-630.522	356.381	0.256	-0.508
-629.507	-85.016	0.437	0.137
-628.492	-112.693	-0.074	-0.015
-627.478	-125.833	-0.090	-0.014
-626.463	290.106	-0.051	0.093
-625.449	800.000	0.061	-0.230
-624.434	-72.000	-0.127	-0.047
-623.419	800.000	-0.059	-0.194
-622.405	69.199	0.335	-0.343
-621.390	-121.947	0.136	0.022
-620.376	443.152	0.152	-0.332
-619.361	4.077	-0.066	-0.048
-618.346	-56.337	-0.130	-0.057
-617.332	-57.157	0.199	-0.088
-616.317	-200.000	-0.063	0.359
-615.303	-200.000	0.004	-0.253
-614.288	118.220	-0.104	0.127
-613.273	762.232	0.038	0.103
-612.259	59.792	-0.131	0.129
-611.244	-200.000	0.006	0.129
-610.230	161.797	0.066	-0.092
-609.215	-200.000	0.032	0.362
-608.201	24.791	0.215	-0.177
-607.186	-113.168	0.047	0.009
-606.171	-117.618	-0.262	-0.047
-605.157	108.583	0.154	0.183
-604.142	-21.280	-0.226	0.138
-603.128	10.835	-0.145	0.110
-602.113	439.332	-0.026	0.056
-601.098	-200.000	0.041	0.226
-600.084	-126.774	0.140	-0.021
-599.069	116.656	-0.023	-0.028
-598.055	92.256	-0.098	0.110
-597.040	30.133	0.316	-0.268
-596.025	-21.513	-0.333	0.202
-595.011	-33.064	-0.057	-0.032
-593.996	-200.000	-0.007	0.243
-592.982	-93.689	-0.138	-0.038
-591.967	0.574	-0.135	0.096
-590.952	24.869	-0.055	0.046
-589.938	-179.087	-0.247	0.006
-588.923	235.369	0.120	-0.197
-587.909	91.644	-0.156	0.175
-586.894	-134.264	-0.038	0.005
-585.879	-108.558	-0.187	0.040
-584.865	405.419	-0.106	-0.223
-583.850	-200.000	0.005	0.030
-582.836	-141.746	-0.221	-0.022
-581.821	-127.918	0.442	-0.063
-580.806	39.910	0.150	-0.134
-579.792	351.834	-0.120	-0.237
-578.777	-152.587	-0.197	-0.014
-577.763	252.568	0.154	-0.261
-576.748	-200.000	0.014	0.216
-575.733	54.526	-0.230	0.221
-574.719	-63.864	-0.044	0.018
-573.704	-131.684	-0.283	-0.037
-572.690	17.965	0.087	-0.069
-571.675	5.549	-0.162	-0.119
-570.661	-142.501	-0.249	0.024
-569.646	374.966	0.059	0.119
-568.631	-19.454	0.137	0.084
-567.617	-168.583	-0.173	0.007
-566.602	16.363	0.296	0.233
-565.588	763.165	-0.139	0.376
-564.573	107.919	0.110	0.130
-563.558	-74.933	-0.183	0.065
-562.544	-77.827	0.183	-0.063
-561.529	-148.421	0.271	-0.022
-560.515	284.664	-0.119	-0.213
-559.500	-5.613	-0.099	0.068
-558.485	-148.307	-0.311	0.025
-557.471	-200.000	0.028	0.315
-556.456	-115.161	0.106	-0.020
-555.442	546.457	-0.042	-0.099
-554.427	-46.057	-0.132	-0.065
-553.412	-83.056	0.016	0.005
-552.398	258.053	-0.155	0.265
-551.383	-31.315	-0.335	0.188
-550.369	87.435	0.033	0.036
-549.354	8.221	-0.161	-0.120
-548.339	-134.382	-0.333	-0.041
-547.325	4.366	0.203	0.148
-546.310	-200.000	-0.007	0.148
-545.296	659.148	-0.085	0.217
-544.281	-127.005	-0.436	0.064
-543.266	219.951	0.133	-0.211
-542.252	100.865	-0.417	0.482
-541.237	68.426	0.399	0.407
-540.223	-200.000	0.005	0.140
-539.208	-200.000	-0.072	0.400
-538.193	-180.221	0.160	0.003
-537.179	651.942	-0.078	-0.198
-536.164	-13.112	0.283	-0.183
-535.150	-200.000	0.008	0.079
-534.135	800.000	-0.031	-0.109
-533.121	-155.947	-0.138	-0.009
-532.106	-200.000	-0.022	-0.127
-531.091	800.000	-0.080	-0.225
-530.077	545.827	0.069	-0.164
-529.062	-200.000	-0.037	0.214
-528.048	800.000	0.023	0.096
-527.033	-57.726	-0.332	-0.144
-526.018	112.617	0.129	0.155
-525.004	234.263	-0.032	0.053
-523.989	800.000	-0.080	-0.224
-522.975	800.000	-0.078	-0.265
-521.960	-105.633	0.297	-0.067
-520.945	-42.931	-0.285	0.143
-519.931	269.928	0.146	-0.255
-518.916	638.213	-0.091	-0.230
-517.902	-33.098	-0.046	-0.025
-516.887	183.428	0.164	0.240
-515.872	-200.000	-0.020	0.116
-514.858	-3.392	0.179	0.124
-513.843	99.486	0.260	-0.298
-512.829	-160.632	0.399	0.021
-511.814	119.462	-0.224	-0.276
-510.799	-51.028	0.424	-0.198
-509.785	392.387	0.060	0.123
-508.770	-200.000	0.006	0.045
-507.756	173.551	0.220	0.316
-506.741	248.188	0.146	0.245
-505.726	64.945	-0.195	0.196
-504.712	72.974	-0.059	0.062
-503.697	-200.000	0.007	-0.197
-502.683	-91.564	0.201	0.057
-501.668	366.523	-0.188	-0.377
-500.653	381.742	0.037	-0.076
-499.639	-91.470	0.091	-0.026
-498.624	12.601	-0.356	0.273
-497.610	71.778	-0.018	-0.019
-496.595	48.066	-0.155	-0.144
-495.581	-7.610	-0.050	-0.033
-494.566	-126.632	0.348	-0.051
-493.551	659.847	-0.048	-0.123
-492.537	450.963	-0.099	0.216
-491.522	23.773	0.175	0.143
-490.508	-200.000	0.022	0.197
-489.493	-200.000	-0.029	0.183
-488.478	308.571	0.134	-0.248
-487.464	189.199	-0.109	-0.162
-486.449	-66.202	0.286	-0.113
-485.435	29.211	-0.327	0.275
-484.420	-200.000	0.038	-0.253
-483.405	33.109	0.126	0.108
-482.391	342.757	0.120	-0.233
-481.376	-103.111	-0.311	-0.073
-480.362	-200.000	0.020	0.115
-479.347	156.698	-0.144	0.197
-478.332	-114.862	0.375	0.071
-477.318	434.573	0.091	0.196
-476.303	-107.444	-0.260	-0.057
-475.289	-9.920	-0.184	-0.121
-474.274	800.000	-0.023	-0.073
-473.259	800.000	-0.073	0.246
-472.245	-42.717	0.153	0.077
-471.230	44.512	-0.085	0.077
-470.216	24.832	0.304	-0.250
-469.201	45.913	-0.193	0.177
-468.186	196.743	-0.149	0.226
-467.172	5.183	0.052	-0.038
-466.157	-152.895	-0.113	0.008
-465.143	202.887	0.093	0.142
-464.128	800.000	-0.065	0.272
-463.113	-144.551	0.187	-0.017
-462.099	82.217	-0.154	-0.166
-461.084	366.806	-0.152	-0.305
-460.070	-36.415	-0.155	-0.083
-459.055	-115.139	0.158	0.030
-458.040	-148.915	-0.115	-0.009
-457.026	4.200	0.166	0.120
-456.011	76.160	0.081	0.085
-454.997	-200.000	-0.033	-0.310
-453.982	-200.000	-0.023	-0.428
-452.968	42.222	-0.140	-0.126
-451.953	62.049	-0.241	0.238
-450.938	162.945	-0.152	-0.212
-449.924	-200.000	-0.015	0.098
-448.909	137.972	0.144	0.187
-447.895	55.673	-0.133	0.127
-446.880	48.498	0.218	-0.202
-445.865	-84.575	-0.247	0.077
-444.851	800.000	0.034	-0.118
-443.836	-200.000	-0.006	-0.117
-442.822	102.526	0.144	0.167
-441.807	388.238	-0.061	-0.126
-440.792	-200.000	-0.004	-0.361
-439.778	-2.302	-0.326	-0.227
-438.763	-200.000	0.013	-0.068
-437.749	-110.631	0.189	0.039
-436.734	800.000	-0.061	0.211
-435.719	57.330	0.122	-0.118
-434.705	170.604	-0.042	0.059
-433.690	-116.242	-0.107	-0.020
-432.676	-167.596	0.318	-0.013
-431.661	99.157	-0.031	0.035
-430.646	-52.562	0.133	-0.061
-429.632	-110.986	0.265	-0.054
-428.617	7.545	0.055	-0.041
-427.603	629.759	0.203	0.509
-426.588	800.000	-0.051	0.143
-425.573	376.629	0.122	-0.247
-424.559	-101.664	-0.229	0.055
-423.544	542.863	-0.037	-0.088
-422.530	-95.668	-0.263	-0.070
-421.515	800.000	-0.025	0.082
-420.500	504.715	0.086	0.196
-419.486	-150.545	0.329	-0.025
-418.471	-107.715	0.138	-0.030
-417.457	494.601	-0.080	-0.182
-416.442	350.293	-0.245	-0.478
-415.428	800.000	0.086	0.302
-414.413	26.193	-0.293	-0.242
-413.398	-132.168	0.192	-0.025
-412.384	-200.000	-0.027	-0.538
-411.369	-143.194	-0.369	0.035
-410.355	-66.973	0.464	-0.181
-409.340	309.912	-0.107	0.199
-408.325	-200.000	0.014	-0.061
-407.311	528.724	0.011	0.025
-406.296	-114.398	0.392	-0.074
-405.282	106.211	0.169	-0.197
-404.267	-102.584	0.137	0.032
-403.252	-200.000	0.038	0.303
-402.238	365.913	-0.134	-0.266
-401.223	-149.812	-0.168	-0.013
-400.209	800.000	-0.159	0.552
-399.194	17.152	0.041	-0.032
-398.179	-200.000	0.011	0.125
-397.165	-73.764	-0.278	-0.100
-396.150	-32.881	0.277	0.152
-395.136	-133.057	-0.363	-0.046
-394.121	-200.000	-0.013	-0.301
-393.106	-74.560	-0.185	-0.066
-392.092	250.458	0.120	0.202
-391.077	-70.504	0.065	-0.024
-390.063	-90.522	-0.070	-0.020
-389.048	4.902	0.116	-0.084
-388.033	-172.692	0.141	-0.004
-387.019	100.819	-0.035	0.040
-386.004	-14.078	0.145	0.092
-384.990	-186.712	-0.319	-0.004
-383.975	20.719	0.327	0.262
-382.960	-157.328	0.144	-0.009
-381.946	114.901	-0.130	0.157
-380.931	-24.939	0.141	-0.083
-379.917	-200.000	-0.009	0.265
-378.902	800.000	-0.033	-0.122
-377.888	-45.073	0.105	0.052
-376.873	83.873	0.193	0.209
-375.858	-200.000	-0.027	-0.253
-374.844	265.052	0.075	0.129
-373.829	55.236	0.259	0.247
-372.815	-128.453	0.263	-0.037
-371.800	107.485	-0.127	0.149
-370.785	110.877	0.140	0.166
-369.771	117.195	0.214	-0.260
-368.756	136.424	0.240	0.309
-367.742	-200.000	-0.021	-0.226
-366.727	48.355	-0.191	-0.176
-365.712	-25.126	-0.286	0.167
-364.698	-77.161	0.164	-0.056
-363.683	-56.191	-0.228	-0.100
-362.669	141.562	-0.043	-0.057
-361.654	266.411	-0.073	-0.126
-360.639	265.295	-0.122	-0.209
-359.625	800.000	-0.043	-0.139
-358.610	300.664	0.170	-0.309
-357.596	507.398	-0.110	0.253
-356.581	423.818	-0.056	-0.120
-355.566	-100.299	0.156	0.038
-354.552	-110.755	0.450	-0.092
-353.537	-200.000	0.035	0.298
-352.523	-147.683	0.117	0.010
-351.508	-6.740	-0.155	-0.104
-350.493	745.117	0.103	-0.274
-349.479	554.654	-0.029	0.069
-348.464	-84.523	0.293	0.091
-347.450	243.726	0.061	0.101
-346.435	-200.000	-0.021	0.235
-345.420	205.379	0.089	0.137
-344.406	90.802	-0.070	-0.077
-343.391	-93.188	-0.271	0.074
-342.377	76.678	-0.269	-0.281
-341.362	-165.300	0.365	0.016
-340.348	187.047	0.165	0.242
-339.333	-151.445	0.344	0.025
-338.318	186.699	0.176	-0.258
-337.304	53.996	0.257	-0.243
-336.289	-149.125	0.265	-0.021
-335.275	-4.253	0.181	0.124
-334.260	-81.478	0.429	-0.139
-333.245	-59.834	-0.205	-0.087
-332.231	-187.642	-0.138	0.002
-331.216	800.000	-0.095	-0.273
-330.202	87.999	-0.202	-0.220
-329.187	-71.924	-0.472	0.173
-328.172	-200.000	-0.032	-0.182
-327.158	-200.000	-0.005	-0.167
-326.143	5.528	0.135	0.098
-325.129	-200.000	0.026	-0.130
-324.114	-200.000	-0.018	-0.179
-323.099	15.807	-0.053	-0.041
-322.085	-110.231	0.151	0.031
-321.070	-24.707	-0.204	0.120
-320.056	-1.032	-0.183	0.128
-319.041	-96.678	-0.333	0.086
-318.026	-108.854	-0.037	0.008
-317.012	33.164	0.157	-0.134
-315.997	800.000	0.025	-0.081
-314.983	-107.831	0.231	0.050
-313.968	34.615	0.174	-0.150
-312.953	-91.801	-0.101	0.028
-311.939	800.000	0.038	0.122
-310.924	-114.113	0.421	0.080
-309.910	-99.334	-0.303	0.075
-308.895	-138.128	0.293	0.032
-307.880	-25.111	0.241	0.141
-306.866	-126.643	-0.336	0.049
-305.851	-200.000	-0.055	0.343
-304.837	-133.726	-0.275	0.034
-303.822	800.000	0.134	0.520
-302.807	-21.623	-0.147	0.088
-301.793	579.579	-0.043	-0.103
-300.778	-200.000	-0.018	-0.090
-299.764	489.556	0.083	0.188
-298.749	274.196	0.070	-0.122
-297.735	-147.321	-0.212	0.018
-296.720	-37.858	0.160	0.084
-295.705	253.950	-0.070	0.119
-294.691	195.246	0.038	-0.057
-293.676	-146.109	0.331	0.029
-292.662	-175.226	0.123	-0.003
-291.647	-75.574	-0.108	-0.038
-290.632	52.745	0.215	0.203
-289.618	-23.697	-0.106	-0.063
-288.603	280.985	0.077	0.135
-287.589	70.854	0.051	0.052
-286.574	-8.186	0.028	0.019
-285.559	57.439	0.305	-0.293
-284.545	-78.893	-0.184	-0.062
-283.530	-200.000	0.044	-0.326
-282.516	63.581	0.144	-0.143
-281.501	-120.231	-0.125	-0.021
-280.486	-56.976	0.329	-0.143
-279.472	94.677	0.175	0.195
-278.457	294.403	0.124	-0.223
-277.443	77.459	0.147	-0.154
-276.428	-200.000	0.007	-0.264
-275.413	800.000	-0.080	-0.312
-274.399	800.000	-0.107	0.294
-273.384	800.000	0.095	0.368
-272.370	-35.066	0.026	-0.014
-271.355	-88.857	-0.371	-0.108
-270.340	366.828	0.023	-0.046
-269.326	-109.299	-0.331	-0.069
-268.311	17.380	0.116	-0.091
-267.297	-200.000	0.010	0.187
-266.282	-200.000	-0.012	-0.220
-265.267	-103.867	0.213	0.049
-264.253	-44.767	-0.343	-0.168
-263.238	800.000	0.063	-0.228
-262.224	34.097	0.150	0.129
-261.209	202.111	-0.087	0.132
-260.195	-149.539	0.316	-0.025
-259.180	257.673	0.081	-0.137
-258.165	28.622	-0.059	0.049
-257.151	-200.000	0.019	0.269
-256.136	-180.984	0.139	-0.003
-255.122	212.331	0.130	-0.201
-254.107	800.000	-0.039	0.106
-253.092	800.000	0.049	0.210
-252.078	58.048	-0.194	-0.187
-251.063	79.159	0.265	0.280
-250.049	33.580	-0.083	-0.070
-249.034	102.506	0.278	-0.320
-248.019	-200.000	-0.026	-0.226
-247.005	-103.041	-0.340	-0.079
-245.990	543.661	0.049	0.115
-244.976	-44.429	0.270	-0.133
-243.961	-75.351	-0.207	-0.072
-242.946	352.236	0.135	0.262
-241.932	-200.000	-0.018	0.092
-240.917	191.586	-0.120	0.178
-239.903	800.000	-0.067	0.234
-238.888	-110.354	-0.426	0.087
-237.873	172.364	-0.149	0.210
-236.859	325.289	0.118	0.222
-235.844	-58.476	0.108	0.046
-234.830	-64.028	-0.227	-0.091
-233.815	-167.025	-0.072	0.003
-232.800	-70.172	-0.155	-0.058
-231.786	89.864	0.065	0.071
-230.771	-79.050	-0.248	-0.083
-229.757	800.000	-0.030	-0.101
-228.742	62.100	-0.137	0.134
-227.727	-200.000	-0.008	-0.049
-226.713	264.045	-0.140	-0.239
-225.698	-8.715	-0.350	0.230
-224.684	800.000	-0.094	-0.273
-223.669	-114.210	-0.386	0.073
-222.655	-109.596	0.096	-0.020
-221.640	799.060	0.111	-0.301
-220.625	33.608	0.222	0.189
-219.611	-76.375	0.204	-0.071
-218.596	205.732	0.160	-0.245
-217.582	-3.771	-0.230	-0.157
-216.567	309.775	0.085	0.156
-215.552	246.649	0.226	-0.373
-214.538	352.686	-0.112	-0.218
-213.523	-88.261	0.369	-0.108
-212.509	276.428	0.074	-0.129
-211.494	-54.757	-0.328	0.145
-210.479	145.733	0.264	-0.347
-209.465	-200.000	0.016	0.166
-208.450	800.000	-0.023	0.090
-207.436	-17.887	-0.192	-0.118
-206.421	-177.758	-0.271	0.006
-205.406	-98.059	0.147	-0.037
-204.392	-152.092	0.207	0.015
-203.377	422.620	-0.040	-0.083
-202.363	360.060	0.237	0.465
-201.348	117.959	0.191	0.231
-200.333	800.000	0.082	0.257
-199.319	-200.000	-0.012	0.305
-198.304	170.374	0.166	-0.233
-197.290	613.433	-0.130	0.320
-196.275	18.327	0.348	0.273
-195.260	800.000	-0.141	0.430
-194.246	-170.571	-0.191	-0.007
-193.231	470.041	-0.158	0.348
-192.217	-126.975	-0.175	-0.025
-191.202	-80.826	0.181	0.059
-190.187	-86.718	0.284	-0.085
-189.173	-44.183	-0.097	-0.048
-188.158	-200.000	0.005	0.023
-187.144	-200.000	0.036	0.399
-186.129	-109.669	-0.347	-0.072
-185.114	-200.000	0.005	-0.024
-184.100	67.873	-0.161	-0.162
-183.085	94.721	-0.108	0.120
-182.071	457.685	-0.052	-0.113
-181.056	117.479	-0.352	-0.424
-180.042	620.663	0.009	-0.023
-179.027	220.417	-0.096	0.152
-178.012	202.661	0.077	-0.117
-176.998	78.308	0.305	0.320
-175.983	-11.012	-0.008	0.005
-174.969	-80.022	-0.372	-0.122
-173.954	800.000	0.072	-0.216
-172.939	-87.437	0.031	0.009
-171.925	333.605	-0.102	0.194
-170.910	297.183	0.114	-0.204
-169.896	60.551	-0.147	-0.143
-168.881	0.954	0.030	-0.021
-167.866	-118.613	0.383	-0.066
-166.852	-76.002	-0.216	-0.075
-165.837	1.934	-0.091	-0.065
-164.823	41.799	0.250	-0.222
-163.808	0.947	0.184	-0.129
-162.793	-169.047	-0.271	0.010
-161.779	140.580	-0.070	0.091
-160.764	-66.013	-0.315	-0.123
-159.750	-200.000	-0.025	-0.232
-158.735	800.000	-0.046	0.178
-157.720	226.466	-0.125	0.199
-156.706	-126.284	-0.158	0.023
-155.691	-68.460	-0.043	0.016
-154.677	42.640	0.164	0.146
-153.662	800.000	0.076	0.275
-152.647	232.261	-0.038	-0.061
-151.633	-136.222	-0.096	-0.011
-150.618	-200.000	0.008	-0.202
-149.604	-15.781	0.206	0.129
-148.589	-200.000	0.047	-0.357
-147.574	-159.670	0.267	0.014
-146.560	-79.284	-0.564	-0.187
-145.545	-12.176	-0.042	-0.027
-144.531	79.988	-0.077	-0.081
-143.516	-138.139	0.149	0.016
-142.502	94.560	0.175	-0.194
-141.487	2.310	-0.029	-0.020
-140.472	243.112	0.258	0.423
-139.458	-17.903	-0.215	-0.132
-138.443	532.084	-0.117	-0.270
-137.429	-187.529	0.249	-0.003
-136.414	263.378	-0.033	-0.057
-135.399	90.614	0.070	-0.077
-134.385	-81.154	-0.074	0.024
-133.370	-200.000	0.058	0.259
-132.356	-10.055	0.278	-0.181
-131.341	251.458	0.141	-0.235
-130.326	194.597	0.069	0.102
-129.312	-107.764	0.336	0.072
-128.297	-200.000	0.071	0.305
-127.283	-200.000	-0.154	0.001
-126.268	9.500	-0.058	-0.043
-125.253	720.789	0.034	-0.087
-124.239	-177.647	-0.166	0.004
-123.224	258.448	-0.062	0.105
-122.210	682.855	-0.111	0.284
-121.195	171.726	-0.200	-0.281
-120.180	-200.000	0.011	-0.318
-119.166	383.565	0.031	-0.063
-118.151	800.000	-0.010	-0.044
-117.137	-200.000	-0.028	0.211
-116.122	-87.431	-0.273	-0.081
-115.107	56.135	-0.085	0.081
-114.093	264.849	-0.037	0.063
-113.078	320.962	-0.112	-0.207
-112.064	135.729	-0.237	0.302
-111.049	1.371	0.170	-0.120
-110.034	81.963	-0.081	-0.085
-109.020	629.290	0.114	0.283
-108.005	129.874	-0.043	-0.053
-106.991	472.749	-0.101	0.223
-105.976	-99.530	0.254	-0.062
-104.962	214.243	0.296	0.458
-103.947	-111.089	-0.144	-0.029
-102.932	-109.046	0.327	-0.068
-101.918	-124.008	-0.368	0.057
-100.903	2.752	0.132	-0.094
-99.889	-63.708	0.354	-0.142
-98.874	68.348	-0.273	0.273
-97.859	285.882	0.104	0.183
-96.845	800.000	-0.058	0.213
-95.830	-200.000	0.073	0.387
-94.816	-200.000	0.056	0.280
-93.801	-200.000	-0.011	-0.048
-92.786	246.977	-0.152	-0.251
-91.772	242.357	-0.045	-0.073
-90.757	-200.000	0.242	0.001
-89.743	446.268	-0.196	0.420
-88.728	-31.533	-0.168	-0.092
-87.713	698.255	-0.109	0.279
-86.699	-200.000	-0.141	0.001
-85.684	557.375	-0.224	0.527
-84.670	499.130	-0.124	-0.279
-83.655	-71.558	-0.301	0.110
-82.640	39.285	0.192	-0.168
-81.626	-140.790	-0.234	-0.024
-80.611	-48.563	0.332	0.156
-79.597	147.379	-0.091	-0.119
-78.582	143.767	0.241	-0.313
-77.567	97.840	0.205	-0.230
-76.553	-109.716	0.309	-0.063
-75.538	706.336	-0.112	0.288
-74.524	-200.000	-0.007	0.052
-73.509	597.061	0.126	-0.304
-72.494	-21.985	0.173	0.103
-71.480	-77.383	-0.129	-0.044
-70.465	-144.375	-0.409	-0.037
-69.451	-1.393	0.161	-0.111
-68.436	800.000	-0.076	-0.237
-67.422	-200.000	0.047	0.326
-66.407	-37.634	0.066	0.034
-65.392	-115.976	0.032	0.006
-64.378	-48.626	0.156	0.073
-63.363	62.576	-0.130	0.127
-62.349	-200.000	0.054	0.303
-61.334	36.724	-1.361	-1.173
-60.319	20.515	0.799	0.630
-59.305	256.258	-0.841	-1.407
-58.290	368.327	0.777	1.533
-57.276	339.650	0.848	1.613
-56.261	-200.000	136.724	620.522
-55.246	333.859	1652.788	3118.380
-54.232	135.142	2790.844	3537.012
-53.217	82.053	2163.803	2286.726
-52.203	30.004	1595.757	1326.715
-51.188	22.276	1347.637	1073.425
-50.173	20.226	1313.288	1033.820
-49.159	46.354	1388.209	1254.849
-48.144	42.269	1396.600	1237.249
-47.130	22.249	1344.298	1070.432
-46.115	19.378	1325.667	1038.293
-45.100	19.234	1320.388	1033.254
-44.086	19.232	1318.139	1031.443
-43.071	19.198	1315.551	1029.170
-42.057	19.215	1313.060	1027.283
-41.042	19.321	1311.491	1026.645
-40.027	19.178	1310.700	1025.137
-39.013	19.258	1308.098	1023.536
-37.998	19.313	1306.678	1022.709
-36.984	19.340	1305.366	1021.800
-35.969	19.468	1302.926	1020.608
-34.954	19.275	1301.576	1018.374
-33.940	19.229	1300.664	1017.347
-32.925	19.420	1298.766	1016.948
-31.911	19.467	1297.538	1016.222
-30.896	19.364	1296.347	1014.641
-29.881	19.480	1294.523	1013.855
-28.867	19.464	1292.836	1012.402
-27.852	19.397	1291.919	1011.249
-26.838	19.392	1290.565	1010.121
-25.823	19.325	1288.887	1008.375
-24.809	19.518	1287.731	1008.558
-23.794	19.425	1286.107	1006.703
-22.779	19.437	1284.795	1005.706
-21.765	19.385	1284.302	1004.976
-20.750	19.374	1282.743	1003.657
-19.736	19.352	1281.286	1002.345
-18.721	19.305	1280.211	1001.193
-17.706	19.193	1279.146	999.670
-16.692	19.283	1277.794	999.096
-15.677	19.286	1276.519	998.078
-14.663	19.196	1275.694	996.873
-13.648	19.245	1273.987	995.781
-12.633	19.280	1273.341	995.437
-11.619	19.279	1272.550	994.774
-10.604	19.240	1271.990	994.074
-9.590	19.232	1270.739	993.011
-8.575	19.172	1269.787	991.877
-7.560	19.178	1268.927	991.200
-6.546	19.093	1268.190	990.101
-5.531	19.154	1267.065	989.532
-4.517	19.327	1266.315	989.900
-3.502	19.261	1266.172	989.373
-2.487	19.310	1264.181	988.058
-1.473	19.171	1260.469	984.322
-0.458	17.822	1245.606	965.051
0.556	13.741	1230.120	930.274
1.571	10.389	1239.339	918.193
2.586	9.862	1254.579	926.378
3.600	10.086	1241.908	918.214
4.615	7.509	1170.658	851.650
5.629	2.846	1101.995	778.035
6.644	0.701	1086.324	756.178
7.659	0.489	1084.725	753.937
8.673	0.476	1083.949	753.267
9.688	0.534	1082.740	752.651
10.702	0.598	1080.138	751.091
11.717	3.608	1083.266	768.199
12.731	9.590	1091.104	803.600
13.746	14.984	1098.268	835.821
14.761	17.151	1100.521	848.295
15.775	16.321	1098.737	842.706
16.790	15.475	1096.806	836.934
17.804	14.735	1095.143	831.905
18.819	14.321	1094.277	829.114
19.834	14.351	1093.054	828.264
20.848	14.050	1092.426	826.219
21.863	13.773	1091.194	823.838
22.877	13.629	1090.813	822.760
23.892	13.573	1089.878	821.707
24.907	13.510	1089.539	821.068
25.921	13.573	1088.438	820.478
26.936	13.598	1087.862	820.094
27.950	13.651	1086.848	819.519
28.965	13.683	1085.349	818.472
29.980	13.727	1084.292	817.819
30.994	13.738	1082.684	816.588
32.009	13.790	1081.919	816.196
33.023	13.736	1081.141	815.269
34.038	13.788	1080.037	814.624
35.053	13.670	1079.083	813.253
36.067	13.646	1078.551	812.660
37.082	13.734	1077.447	812.188
38.096	13.745	1076.683	811.597
39.111	13.675	1075.627	810.384
40.126	13.803	1074.260	809.906
41.140	13.658	1073.391	808.476
42.155	13.595	1072.108	807.129
43.169	13.535	1071.150	806.043
44.184	13.539	1070.171	805.254
45.199	13.551	1068.638	804.092
46.213	13.564	1067.815	803.461
47.228	13.555	1066.640	802.462
48.242	13.606	1065.664	801.906
49.257	13.632	1064.538	801.112
50.271	13.701	1063.618	800.681
51.286	13.615	1062.856	799.621
52.301	13.677	1062.021	799.224
53.315	13.654	1060.729	798.068
54.330	13.639	1059.763	797.198
55.344	13.481	1059.507	796.176
56.359	13.485	1058.302	795.219
57.374	13.495	1057.567	794.647
58.388	13.569	1056.684	794.265
59.403	13.559	1055.310	793.114
60.417	13.533	1054.720	792.475
61.432	13.603	1053.332	791.699
62.447	13.365	1052.832	790.116
63.461	13.522	1052.482	790.536
64.476	13.495	1051.090	789.289
65.490	13.575	1050.286	788.998
66.505	13.499	1049.698	788.124
67.520	13.582	1048.584	787.610
68.534	13.501	1048.300	786.944
69.549	13.580	1047.236	786.449
70.563	13.504	1046.514	785.477
71.578	13.433	1045.781	784.523
72.593	13.472	1044.679	783.810
73.607	13.467	1044.198	783.358
74.622	13.371	1043.797	782.531
75.636	13.539	1042.544	782.318
76.651	13.395	1042.408	781.467
77.666	13.459	1041.598	781.093
78.680	13.469	1040.838	780.499
79.695	13.496	1039.856	779.820
80.709	13.471	1039.537	779.398
81.724	13.553	1039.075	779.368
82.739	13.633	1037.993	778.863
83.753	13.695	1037.298	778.562
84.768	13.647	1036.414	777.605
85.782	13.694	1035.245	776.880
86.797	13.761	1034.318	776.428
87.812	13.641	1033.452	775.148
88.826	13.685	1032.214	774.357
89.841	13.707	1031.413	773.789
90.855	13.790	1030.235	773.226
91.870	13.782	1029.773	772.771
92.884	13.642	1028.865	771.371
93.899	13.766	1028.036	771.257
94.914	13.787	1026.855	770.400
95.928	13.691	1026.513	769.629
96.943	13.843	1025.355	769.399
97.957	13.683	1024.442	767.903
98.972	13.687	1023.958	767.491
99.987	13.616	1023.022	766.393
101.001	13.809	1022.190	766.594
102.016	13.806	1021.101	765.699
103.030	13.703	1020.180	764.464
104.045	13.929	1019.220	764.717
105.060	13.711	1018.815	763.342
106.074	13.621	1018.013	762.259
107.089	13.627	1016.727	761.257
108.103	13.623	1015.859	760.521
109.118	13.572	1015.318	759.814
110.133	13.606	1014.023	758.934
111.147	13.564	1012.825	757.782
112.162	13.634	1012.318	757.651
113.176	13.700	1011.625	757.369
114.191	13.740	1010.885	756.931
115.206	13.656	1010.226	755.985
116.220	13.663	1009.088	755.100
117.235	13.721	1007.952	754.447
118.249	13.621	1007.363	753.487
119.264	13.568	1006.786	752.744
120.279	13.490	1005.967	751.715
121.293	13.694	1004.842	751.730
122.308	13.609	1003.891	750.569
123.322	13.619	1002.849	749.768
124.337	13.628	1001.637	748.838
125.352	13.631	1000.756	748.123
126.366	13.531	999.818	746.906
127.381	13.736	998.263	746.601
128.395	13.597	997.663	745.459
129.410	13.644	996.842	744.992
130.424	13.565	996.342	744.198
131.439	13.714	995.480	744.157
132.454	13.668	994.589	743.218
133.468	13.724	993.549	742.625
134.483	13.664	992.491	741.503
135.497	13.603	991.800	740.650
136.512	13.731	991.310	740.788
137.527	13.749	989.907	739.754
138.541	13.778	989.183	739.276
139.556	13.752	988.657	738.705
140.570	13.885	987.639	738.471
141.585	13.931	986.788	737.972
142.600	13.787	986.076	736.735
143.614	13.776	985.362	736.088
144.629	13.980	983.986	735.897
145.643	13.825	983.413	734.717
146.658	13.843	982.704	734.202
147.673	13.786	981.680	733.119
148.687	13.773	981.081	732.549
149.702	13.877	979.697	731.911
150.716	13.811	979.234	731.210
151.731	13.926	978.260	730.924
152.746	13.811	977.630	729.884
153.760	13.783	977.262	729.419
154.775	13.905	976.345	729.208
155.789	13.928	976.191	729.130
156.804	14.048	974.935	728.653
157.819	13.966	974.597	727.974
158.833	13.930	973.987	727.297
159.848	14.078	972.859	727.039
160.862	13.956	972.089	725.867
161.877	13.961	971.163	725.133
162.892	14.030	969.820	724.365
163.906	13.953	969.052	723.395
164.921	14.002	968.328	723.001
165.935	13.958	967.520	722.142
166.950	14.105	966.188	721.724
167.964	14.087	965.415	721.006
168.979	14.039	964.742	720.227
169.994	14.002	963.722	719.244
171.008	14.055	963.041	718.901
172.023	14.269	962.220	719.151
173.037	14.096	961.448	717.762
174.052	14.134	960.921	717.469
175.067	13.985	960.244	716.260
176.081	14.176	959.454	716.430
177.096	14.256	959.133	716.470
178.110	14.140	958.742	715.616
179.125	14.045	957.862	714.488
180.140	14.067	957.712	714.408
181.154	14.321	956.706	714.682
182.169	14.199	956.629	714.039
183.183	14.289	955.583	713.580
184.198	14.291	954.876	712.998
185.213	14.305	954.395	712.635
186.227	14.356	953.465	712.095
187.242	14.329	952.533	711.220
188.256	14.414	951.979	711.107
189.271	14.344	951.305	710.242
190.286	14.355	950.627	709.721
191.300	14.107	950.033	708.159
192.315	14.203	949.210	707.891
193.329	14.307	948.534	707.766
194.344	14.315	947.751	707.154
195.359	14.278	947.494	706.741
196.373	14.517	946.762	707.144
197.388	14.361	946.497	706.223
198.402	14.493	945.504	705.981
199.417	14.581	945.008	705.918
200.432	14.467	944.830	705.242
201.446	14.481	943.735	704.420
202.461	14.570	943.371	704.463
203.475	14.510	942.952	703.833
204.490	14.419	942.193	702.824
205.504	14.651	941.311	703.082
206.519	14.634	940.269	702.168
207.534	14.590	939.751	701.534
208.548	14.647	938.791	700.996
209.563	14.626	938.361	700.524
210.577	14.600	937.611	699.791
211.592	14.707	936.781	699.558
212.607	14.682	935.679	698.570
213.621	14.671	935.249	698.142
214.636	14.763	934.456	697.871
215.650	14.786	933.997	697.561
216.665	14.762	933.095	696.726
217.680	14.891	932.477	696.741
218.694	14.807	931.478	695.583
219.709	14.725	931.607	695.278
220.723	14.793	930.894	694.969
221.738	14.803	929.986	694.270
222.753	14.834	929.118	693.687
223.767	14.775	928.699	693.069
224.782	14.899	928.366	693.275
225.796	14.820	927.983	692.599
226.811	14.929	926.917	692.194
227.826	14.962	926.187	691.722
228.840	14.931	925.575	691.078
229.855	14.943	924.750	690.450
230.869	14.866	923.922	689.453
231.884	15.018	922.698	689.106
232.899	14.918	922.468	688.460
233.913	14.923	921.863	687.969
234.928	14.820	921.319	687.078
235.942	14.930	920.558	686.900
236.957	14.884	919.939	686.190
237.972	14.927	919.455	685.945
238.986	14.959	918.905	685.602
240.001	14.984	917.639	684.703
241.015	14.890	917.206	683.932
242.030	15.099	916.855	684.467
243.045	15.010	916.039	683.433
244.059	15.001	915.668	683.057
245.074	15.055	915.011	682.727
246.088	15.120	914.262	682.371
247.103	15.206	913.424	682.039
248.117	15.139	913.311	681.619
249.132	15.123	912.505	680.894
250.147	15.259	911.780	680.845
251.161	15.469	910.760	680.876
252.176	15.202	910.164	679.288
253.190	15.312	909.670	679.305
254.205	15.299	908.562	678.363
255.220	15.384	908.486	678.591
256.234	15.428	907.544	678.004
257.249	15.404	906.701	677.218
258.263	15.411	906.249	676.847
259.278	15.423	905.532	676.302
260.293	15.551	905.062	676.406
261.307	15.442	904.292	675.330
262.322	15.570	903.685	675.334
263.336	15.615	902.713	674.727
264.351	15.634	902.359	674.480
265.366	15.544	901.788	673.634
266.380	15.659	901.068	673.496
267.395	15.646	900.014	672.599
268.409	15.690	899.448	672.290
269.424	15.741	898.437	671.679
270.439	15.532	898.365	670.730
271.453	15.663	897.515	670.560
272.468	15.630	897.011	669.991
273.482	15.758	895.875	669.593
274.497	15.657	895.559	668.895
275.512	15.658	895.023	668.443
276.526	15.771	894.490	668.431
277.541	15.740	894.071	667.937
278.555	15.717	893.255	667.176
279.570	15.724	893.051	666.993
280.585	15.902	891.894	666.774
281.599	15.884	890.707	665.756
282.614	15.927	890.163	665.464
283.628	15.790	890.042	664.771
284.643	15.733	889.508	664.088
285.657	15.641	889.075	663.344
286.672	15.877	887.952	663.377
287.687	15.757	887.554	662.550
288.701	16.024	886.495	662.748
289.716	15.988	886.150	662.290
290.730	15.875	885.548	661.339
291.745	15.867	885.163	660.963
292.760	15.970	884.054	660.479
293.774	16.026	883.492	660.222
294.789	15.902	883.245	659.492
295.803	15.963	882.454	659.080
296.818	15.943	881.967	658.580
297.833	15.853	881.278	657.657
298.847	16.007	880.203	657.397
299.862	16.007	879.476	656.796
300.876	16.122	879.197	656.977
301.891	16.203	878.476	656.696
302.906	16.087	878.258	656.024
303.920	16.081	877.996	655.749
304.935	16.212	877.064	655.502
305.949	16.201	876.394	654.900
306.964	16.271	875.538	654.472
307.979	16.383	875.190	654.589
308.993	16.262	874.906	653.852
310.008	16.419	873.886	653.640
311.022	16.296	873.324	652.684
312.037	16.285	873.009	652.349
313.052	16.218	872.228	651.449
314.066	16.235	871.814	651.146
315.081	16.234	871.162	650.597
316.095	16.167	870.616	649.876
317.110	16.392	869.817	650.088
318.125	16.339	869.406	649.520
319.139	16.324	869.131	649.198
320.154	16.412	868.144	648.740
321.168	16.448	867.876	648.620
322.183	16.499	867.216	648.268
323.197	16.405	866.811	647.545
324.212	16.409	866.553	647.310
325.227	16.494	865.293	646.638
326.241	16.343	865.048	645.819
327.256	16.349	864.389	645.296
328.270	16.464	863.236	644.815
329.285	16.439	863.271	644.689
330.300	16.573	862.640	644.673
331.314	16.445	861.969	643.624
332.329	16.391	861.692	643.158
333.343	16.590	860.661	643.088
334.358	16.465	860.620	642.525
335.373	16.589	860.214	642.636
336.387	16.567	859.818	642.200
337.402	16.575	859.843	642.191
338.416	16.638	859.406	642.046
339.431	16.617	858.917	641.544
340.446	16.698	858.154	641.225
341.460	16.724	857.556	640.821
342.475	16.694	857.396	640.531
343.489	16.770	856.673	640.222
344.504	16.921	856.086	640.297
345.519	16.838	856.031	639.884
346.533	16.852	855.693	639.628
347.548	16.813	854.769	638.732
348.562	16.771	854.484	638.305
349.577	16.808	854.094	638.098
350.592	16.733	853.115	637.027
351.606	16.714	852.640	636.544
352.621	16.896	851.587	636.386
353.635	16.852	851.352	635.987
354.650	16.871	850.601	635.444
355.665	16.939	850.218	635.356
356.679	17.032	849.238	634.915
357.694	16.892	848.679	633.917
358.708	16.886	848.403	633.633
359.723	17.044	847.539	633.520
360.738	16.896	847.074	632.565
361.752	16.962	846.295	632.172
362.767	17.091	845.718	632.167
363.781	16.968	845.536	631.518
364.796	17.101	844.701	631.333
365.810	17.230	844.017	631.245
366.825	17.180	843.989	630.982
367.840	17.153	843.423	630.401
368.854	17.079	843.330	630.002
369.869	17.174	842.516	629.693
370.883	17.137	842.319	629.352
371.898	17.304	841.659	629.419
372.913	17.372	841.350	629.387
373.927	17.284	841.257	628.934
374.942	17.363	840.641	628.708
375.956	17.337	840.326	628.322
376.971	17.351	839.288	627.543
377.986	17.505	838.877	627.748
379.000	17.329	838.547	626.798
380.015	17.326	837.963	626.292
381.029	17.347	837.567	626.018
382.044	17.484	836.858	625.938
383.059	17.509	836.345	625.592
384.073	17.478	835.443	624.745
385.088	17.518	835.206	624.662
386.102	17.488	834.433	623.919
387.117	17.408	834.113	623.330
388.132	17.273	833.505	622.324
389.146	17.427	832.628	622.179
390.161	17.522	832.342	622.259
391.175	17.625	831.939	622.278
392.190	17.650	831.192	621.753
393.205	17.456	830.958	620.818
394.219	17.552	830.453	620.735
395.234	17.536	830.117	620.370
396.248	17.651	829.300	620.126
397.263	17.508	829.226	619.493
398.278	17.488	829.067	619.249
399.292	17.517	828.388	618.792
400.307	17.560	828.039	618.631
401.321	17.648	827.444	618.451
402.336	17.594	826.937	617.823
403.350	17.616	826.099	617.222
404.365	17.703	826.280	617.615
405.380	17.784	825.261	617.094
406.394	17.854	824.705	616.877
407.409	17.766	824.298	616.199
408.423	17.803	824.350	616.316
409.438	17.801	824.010	616.000
410.453	17.922	822.931	615.577
411.467	17.918	822.638	615.286
412.482	17.902	822.659	615.192
413.496	17.886	822.279	614.794
414.511	17.984	821.805	614.742
415.526	17.960	821.055	614.038
416.540	17.991	820.769	613.880
417.555	17.997	820.362	613.543
418.569	18.013	819.872	613.182
419.584	18.023	819.519	612.899
420.599	18.010	819.368	612.685
421.613	115.713	1301.585	1493.342
422.628	100.372	1371.795	1493.398
