DTS Sentinel unit serial number:	SN413079Multiplexer serial number:	ORYXHardware model number:	OX4-SRSoftware version number:	ORYX F/W v4.00 Oryx Data Collector v3.7.2.0data status	okinstallation	princeton_trtdifferential loss correction	single-endedforward channel	channel 1reverse channel	N/Adate	2019/09/14time	10:26:35forward acquisition time	60.00reverse acquisition time	0.00gamma	496.2192k internal	0.2306k external	0.2306temperature offset calibration	1.0072default loss term (dB/km)	0.3790temperature slope calibration	1.0000multiplexer offset coefficient	1.0000multiplexer slope coefficient	1.0000fibre end	0.00T internal ref (°C)	34.56T ext. ref 1 (°C)	4.16T ext. ref 2 (°C)	32.75length (m)	temperature (°C)	Stokes	anti-Stokes-747.200	35.285	0.271	0.241
-746.185	441.000	0.043	-0.096
-745.171	-149.096	-0.073	0.006
-744.156	-121.406	-0.430	-0.073
-743.142	9.112	0.193	-0.148
-742.127	-15.837	-0.045	-0.029
-741.112	39.700	-0.050	-0.046
-740.098	-110.497	-0.211	-0.044
-739.083	-43.972	0.129	0.066
-738.069	800.000	-0.054	0.206
-737.054	-200.000	0.012	0.104
-736.039	178.045	-0.068	0.100
-735.025	-74.096	0.250	-0.092
-734.010	205.453	-0.127	0.201
-732.996	-121.622	-0.082	0.014
-731.981	176.561	-0.138	-0.204
-730.966	-200.000	0.001	-0.495
-729.952	466.960	0.176	-0.402
-728.937	-6.760	-0.070	-0.049
-727.923	-65.854	0.211	-0.086
-726.908	800.000	0.128	-0.445
-725.894	526.513	0.138	-0.330
-724.879	-77.810	-0.492	0.173
-723.864	800.000	-0.042	-0.132
-722.850	800.000	0.111	-0.474
-721.835	-200.000	0.018	-0.217
-720.821	672.644	-0.011	0.030
-719.806	305.706	0.073	0.138
-718.791	-200.000	0.045	-0.417
-717.777	83.485	0.126	-0.139
-716.762	-200.000	0.028	-0.310
-715.748	607.265	-0.162	-0.411
-714.733	90.185	-0.041	-0.046
-713.718	-136.086	0.220	-0.026
-712.704	-200.000	0.032	-0.239
-711.689	-112.325	0.105	0.021
-710.675	-6.742	0.204	0.141
-709.660	-25.441	0.076	0.045
-708.645	81.053	-0.137	-0.150
-707.631	-181.307	-0.247	-0.005
-706.616	-2.506	0.185	0.132
-705.602	-110.857	-0.249	0.052
-704.587	85.458	-0.071	0.080
-703.572	5.065	-0.195	-0.146
-702.558	-10.341	0.451	-0.304
-701.543	800.000	-0.029	-0.126
-700.529	-200.000	-0.022	0.118
-699.514	-75.446	0.345	-0.125
-698.499	254.030	-0.030	0.053
-697.485	92.369	0.159	-0.182
-696.470	62.792	-0.330	-0.335
-695.456	-200.000	-0.018	-0.387
-694.441	800.000	0.054	-0.185
-693.426	-104.537	0.231	0.054
-692.412	800.000	-0.082	-0.229
-691.397	517.243	0.112	0.265
-690.383	40.320	0.215	0.197
-689.368	-150.034	-0.307	0.024
-688.354	-133.304	0.102	-0.013
-687.339	-121.927	-0.207	0.035
-686.324	-165.868	0.136	-0.006
-685.310	120.796	0.073	0.092
-684.295	-16.527	0.144	-0.093
-683.281	61.310	0.176	-0.177
-682.266	800.000	0.022	-0.076
-681.251	-30.667	-0.092	0.053
-680.237	-200.000	-0.033	-0.196
-679.222	800.000	-0.053	-0.190
-678.208	-116.350	0.196	0.037
-677.193	49.119	-0.180	0.171
-676.178	-48.136	0.121	0.059
-675.164	-79.369	0.254	0.087
-674.149	-74.058	0.434	0.160
-673.135	800.000	-0.042	-0.127
-672.120	168.104	-0.214	0.308
-671.105	596.514	0.045	0.112
-670.091	10.220	0.028	-0.021
-669.076	-88.024	0.148	-0.045
-668.062	-77.735	-0.456	0.160
-667.047	800.000	-0.022	0.067
-666.032	37.825	-0.069	-0.062
-665.018	154.707	-0.058	-0.081
-664.003	-200.000	-0.032	-0.205
-662.989	-200.000	0.051	-0.327
-661.974	-163.380	0.196	-0.009
-660.959	477.803	-0.221	-0.506
-659.945	-109.623	0.333	0.071
-658.930	-99.481	-0.343	0.088
-657.916	-200.000	0.014	0.425
-656.901	-200.000	-0.004	-0.128
-655.886	763.344	-0.005	-0.015
-654.872	132.147	0.056	0.073
-653.857	118.479	0.069	0.086
-652.843	713.810	-0.051	-0.136
-651.828	24.028	-0.234	0.196
-650.814	-36.789	-0.336	0.183
-649.799	77.617	0.175	0.189
-648.784	-97.466	-0.157	-0.041
-647.770	206.558	-0.145	-0.228
-646.755	-68.894	0.106	-0.041
-645.741	714.096	0.082	-0.221
-644.726	304.059	0.042	0.080
-643.711	177.674	-0.050	0.074
-642.697	-200.000	-0.008	-0.119
-641.682	15.902	-0.229	0.183
-640.668	800.000	0.068	0.273
-639.653	9.549	0.289	-0.222
-638.638	-131.492	0.238	0.032
-637.624	-91.041	-0.155	0.045
-636.609	-172.715	-0.120	0.004
-635.595	800.000	-0.109	-0.394
-634.580	-80.772	-0.442	-0.149
-633.565	-59.714	0.087	0.038
-632.551	-200.000	0.001	0.115
-631.536	226.019	-0.124	0.203
-630.522	734.296	0.165	0.446
-629.507	341.391	0.137	-0.271
-628.492	-200.000	0.022	-0.195
-627.478	492.469	-0.050	0.117
-626.463	33.134	0.070	0.061
-625.449	-125.943	-0.107	-0.016
-624.434	-12.512	-0.179	0.118
-623.419	229.127	0.036	-0.060
-622.405	-12.325	0.105	-0.070
-621.390	-69.564	0.026	-0.010
-620.376	1.108	0.023	-0.017
-619.361	538.490	0.024	-0.059
-618.346	437.606	0.046	-0.102
-617.332	-5.621	-0.100	-0.069
-616.317	-186.481	-0.270	-0.004
-615.303	91.606	0.142	-0.162
-614.288	106.890	-0.052	-0.062
-613.273	149.082	0.100	-0.137
-612.259	-84.689	-0.034	0.011
-611.244	-163.051	-0.495	0.024
-610.230	113.624	0.164	0.202
-609.215	-74.054	-0.371	0.136
-608.201	19.928	-0.162	-0.132
-607.186	-9.833	-0.225	-0.151
-606.171	523.568	-0.113	-0.270
-605.157	337.139	0.049	-0.096
-604.142	-200.000	-0.046	0.216
-603.128	198.292	-0.131	0.202
-602.113	211.252	-0.123	-0.197
-601.098	-45.260	0.087	0.044
-600.084	-47.020	0.327	0.162
-599.069	800.000	0.053	-0.159
-598.055	-69.672	0.523	-0.202
-597.040	-200.000	0.049	0.273
-596.025	-200.000	0.027	0.264
-595.011	-29.656	-0.135	-0.078
-593.996	126.736	0.106	-0.135
-592.982	38.841	0.248	-0.224
-591.967	-200.000	0.024	-0.201
-590.952	800.000	-0.077	0.265
-589.938	337.779	0.167	0.329
-588.923	-127.246	0.272	-0.040
-587.909	3.281	-0.170	-0.125
-586.894	467.083	0.120	-0.273
-585.879	274.543	0.139	-0.248
-584.865	-200.000	0.030	-0.182
-583.850	-114.860	0.112	-0.022
-582.836	-98.062	-0.408	0.106
-581.821	112.105	0.032	-0.040
-580.806	-133.578	0.076	-0.010
-579.792	800.000	0.086	0.253
-578.777	-200.000	0.004	0.451
-577.763	-200.000	-0.003	0.155
-576.748	37.953	0.296	0.266
-575.733	800.000	0.084	-0.249
-574.719	-24.947	0.164	-0.098
-573.704	65.035	-0.210	0.214
-572.690	-39.145	-0.111	0.059
-571.675	-200.000	0.035	-0.262
-570.661	-200.000	-0.003	0.158
-569.646	-85.232	-0.088	-0.028
-568.631	-106.430	-0.185	0.042
-567.617	-200.000	-0.006	-0.219
-566.602	12.825	0.106	-0.083
-565.588	48.040	0.189	-0.178
-564.573	-39.040	0.123	-0.065
-563.558	-89.697	-0.353	-0.105
-562.544	-105.971	0.190	-0.043
-561.529	-46.346	0.236	-0.117
-560.515	69.042	-0.098	-0.102
-559.500	-18.074	0.113	0.072
-558.485	800.000	0.017	-0.062
-557.471	91.851	-0.194	0.221
-556.456	19.578	0.146	0.118
-555.442	-200.000	-0.001	0.051
-554.427	462.063	-0.051	-0.115
-553.412	-111.022	0.399	-0.083
-552.398	-200.000	-0.064	-0.401
-551.383	-77.025	-0.114	-0.040
-550.369	-200.000	0.032	0.215
-549.354	415.342	-0.122	0.262
-548.339	-138.496	-0.230	0.026
-547.325	410.227	0.090	-0.193
-546.310	50.407	0.249	0.237
-545.296	-121.482	-0.405	0.068
-544.281	-66.029	-0.185	0.075
-543.266	125.657	-0.052	-0.066
-542.252	252.954	0.132	-0.227
-541.237	-1.758	-0.329	-0.234
-540.223	-78.733	0.345	0.119
-539.208	-35.860	0.100	-0.055
-538.193	-98.422	0.164	-0.042
-537.179	219.321	0.041	-0.066
-536.164	1.842	0.161	-0.117
-535.150	350.400	-0.148	-0.295
-534.135	-51.658	-0.264	-0.124
-533.121	164.139	-0.021	-0.030
-532.106	41.101	-0.127	0.115
-531.091	-89.918	-0.181	0.053
-530.077	734.524	0.177	-0.479
-529.062	-200.000	-0.014	0.271
-528.048	-166.665	-0.209	-0.009
-527.033	-200.000	-0.032	-0.212
-526.018	129.595	-0.259	0.334
-525.004	-105.536	0.094	0.021
-523.989	800.000	0.062	-0.234
-522.975	-68.363	-0.146	-0.057
-521.960	87.964	-0.265	-0.296
-520.945	-200.000	-0.017	-0.240
-519.931	-200.000	-0.001	0.010
-518.916	-200.000	0.001	0.113
-517.902	-43.101	-0.092	0.047
-516.887	-153.622	0.398	0.028
-515.872	-51.659	-0.120	0.057
-514.858	558.244	0.088	0.215
-513.843	-200.000	0.018	0.106
-512.829	51.318	-0.148	-0.142
-511.814	-136.984	0.176	0.020
-510.799	490.648	-0.143	0.330
-509.785	-50.332	-0.316	0.150
-508.770	21.522	0.213	-0.175
-507.756	-92.438	0.242	0.069
-506.741	-131.345	-0.152	0.020
-505.726	68.116	-0.110	0.113
-504.712	164.589	-0.266	0.378
-503.697	761.713	-0.053	0.144
-502.683	-200.000	0.045	0.246
-501.668	-200.000	-0.004	-0.156
-500.653	-200.000	-0.005	-0.022
-499.639	800.000	0.022	-0.078
-498.624	176.122	-0.031	-0.046
-497.610	-200.000	0.024	0.140
-496.595	-50.995	-0.144	-0.068
-495.581	-66.285	-0.163	0.065
-494.566	-124.678	-0.080	0.012
-493.551	18.000	-0.140	-0.112
-492.537	43.148	-0.134	-0.123
-491.522	31.712	0.262	-0.227
-490.508	99.811	-0.104	0.121
-489.493	-200.000	-0.011	-0.060
-488.478	-200.000	0.014	-0.487
-487.464	-155.352	-0.102	0.007
-486.449	-79.398	-0.305	0.104
-485.435	-200.000	0.067	0.315
-484.420	-118.817	0.233	-0.041
-483.405	-200.000	-0.051	0.238
-482.391	-200.000	0.011	-0.047
-481.376	-42.836	0.364	-0.186
-480.362	-200.000	0.007	0.070
-479.347	-200.000	-0.008	-0.211
-478.332	-7.031	-0.087	-0.060
-477.318	91.033	-0.116	-0.131
-476.303	800.000	-0.024	-0.089
-475.289	202.039	0.133	-0.207
-474.274	17.926	-0.106	0.085
-473.259	-73.798	0.235	-0.086
-472.245	78.331	-0.197	0.212
-471.230	-56.254	0.031	-0.014
-470.216	-200.000	0.009	-0.167
-469.201	570.831	-0.113	0.277
-468.186	60.367	0.354	0.353
-467.172	-150.329	0.228	0.018
-466.157	-42.206	-0.146	0.075
-465.143	-14.791	-0.300	0.194
-464.128	-103.496	-0.187	0.044
-463.113	-161.614	0.195	-0.010
-462.099	236.306	-0.003	0.005
-461.084	-54.899	-0.283	-0.128
-460.070	800.000	0.071	0.200
-459.055	7.660	0.203	-0.153
-458.040	558.943	0.129	0.313
-457.026	116.663	0.071	-0.087
-456.011	-140.401	-0.072	0.008
-454.997	-44.805	0.250	0.125
-453.982	634.859	0.062	-0.159
-452.968	-93.321	0.135	-0.038
-451.953	-200.000	-0.021	0.291
-450.938	115.714	-0.165	0.204
-449.924	-200.000	-0.025	-0.174
-448.909	-200.000	0.010	0.072
-447.895	-13.760	-0.126	-0.082
-446.880	-84.474	-0.189	0.060
-445.865	-11.547	-0.189	0.125
-444.851	361.992	0.045	0.091
-443.836	0.260	-0.112	-0.080
-442.822	-109.360	0.115	0.025
-441.807	-87.109	-0.098	-0.030
-440.792	129.818	0.111	0.143
-439.778	311.329	0.112	-0.210
-438.763	-200.000	-0.078	-0.398
-437.749	314.697	-0.198	0.374
-436.734	800.000	0.057	0.231
-435.719	73.747	-0.189	-0.199
-434.705	800.000	-0.143	-0.445
-433.690	-27.014	-0.305	0.179
-432.676	-23.750	-0.022	-0.013
-431.661	-154.360	-0.168	0.011
-430.646	153.498	0.287	0.396
-429.632	-72.183	-0.450	-0.168
-428.617	65.737	0.014	0.014
-427.603	-7.543	0.166	0.113
-426.588	-188.651	-0.286	-0.004
-425.573	-185.842	0.330	-0.005
-424.559	209.666	0.082	0.129
-423.544	-104.121	-0.218	0.051
-422.530	-111.730	-0.040	-0.008
-421.515	138.463	0.050	-0.066
-420.500	-167.065	0.276	0.011
-419.486	449.092	0.155	-0.342
-418.471	-14.201	0.137	0.089
-417.457	-132.076	0.272	0.036
-416.442	170.915	-0.054	-0.078
-415.428	-120.573	0.179	0.031
-414.413	193.552	-0.203	-0.308
-413.398	-200.000	0.006	-0.045
-412.384	-200.000	-0.011	0.169
-411.369	-43.060	-0.285	0.145
-410.355	110.168	-0.187	0.225
-409.340	-14.482	0.115	0.075
-408.325	-17.333	0.468	0.296
-407.311	-200.000	-0.052	-0.239
-406.296	-84.354	-0.073	0.023
-405.282	708.729	-0.158	0.420
-404.267	-105.920	0.282	-0.064
-403.252	-140.276	-0.292	0.031
-402.238	-73.871	0.279	0.102
-401.223	89.501	0.132	0.148
-400.209	330.868	0.061	-0.118
-399.194	-131.584	0.173	-0.023
-398.179	-200.000	0.008	0.146
-397.165	776.241	0.085	0.234
-396.150	460.116	-0.069	0.155
-395.136	196.465	0.134	-0.204
-394.121	-69.038	-0.229	0.088
-393.106	61.822	-0.139	0.139
-392.092	-63.227	0.245	-0.102
-391.077	29.157	0.127	-0.108
-390.063	-200.000	0.002	-0.055
-389.048	127.614	-0.135	0.172
-388.033	-88.588	-0.090	-0.027
-387.019	286.075	0.183	-0.332
-386.004	-11.225	-0.176	0.117
-384.990	-88.975	-0.082	-0.024
-383.975	-20.785	-0.235	0.144
-382.960	336.387	-0.233	0.453
-381.946	634.425	0.117	-0.297
-380.931	116.514	-0.184	-0.226
-379.917	-122.417	-0.301	0.049
-378.902	592.168	0.053	0.131
-377.888	43.210	0.148	0.136
-376.873	-134.687	0.160	0.020
-375.858	-20.208	-0.205	-0.127
-374.844	22.049	0.238	-0.195
-373.829	561.548	0.116	-0.281
-372.815	800.000	0.097	-0.306
-371.800	-62.186	-0.013	-0.006
-370.785	183.461	0.183	0.272
-369.771	36.992	-0.240	0.213
-368.756	-200.000	-0.007	-0.364
-367.742	183.093	-0.224	-0.332
-366.727	239.332	0.075	0.125
-365.712	-105.093	0.210	-0.048
-364.698	408.581	0.089	0.189
-363.683	-90.763	-0.353	-0.102
-362.669	800.000	0.064	0.214
-361.654	-200.000	0.011	-0.084
-360.639	-200.000	0.012	0.144
-359.625	-198.550	0.108	0.001
-358.610	800.000	0.021	0.067
-357.596	593.403	-0.061	-0.151
-356.581	-200.000	0.009	-0.226
-355.566	-200.000	-0.003	-0.183
-354.552	-200.000	-0.278	-0.000
-353.537	-69.297	-0.289	-0.111
-352.523	215.037	0.056	0.090
-351.508	-200.000	0.188	-0.001
-350.493	-200.000	-0.027	0.294
-349.479	-129.480	-0.045	0.006
-348.464	51.565	0.148	-0.141
-347.450	326.923	-0.067	-0.129
-346.435	203.146	0.134	-0.208
-345.420	-40.910	-0.091	-0.047
-344.406	51.178	-0.056	-0.053
-343.391	-200.000	0.034	-0.228
-342.377	800.000	-0.104	-0.294
-341.362	-8.646	-0.012	0.008
-340.348	127.835	0.118	-0.150
-339.333	-111.099	-0.066	-0.013
-338.318	-78.410	-0.324	-0.111
-337.304	-200.000	0.032	0.415
-336.289	799.997	-0.170	0.470
-335.275	-115.149	0.282	-0.054
-334.260	-52.014	-0.266	0.124
-333.245	-144.097	0.228	-0.021
-332.231	68.309	0.045	0.046
-331.216	-200.000	0.209	-0.000
-330.202	800.000	0.048	0.147
-329.187	-93.627	0.151	-0.042
-328.172	-19.038	0.182	-0.113
-327.158	84.601	-0.201	0.220
-326.143	615.723	-0.066	-0.165
-325.129	15.900	-0.048	0.038
-324.114	-12.611	-0.162	-0.106
-323.099	85.447	0.268	0.294
-322.085	173.684	-0.202	-0.292
-321.070	-200.000	-0.029	-0.198
-320.056	-168.916	-0.250	-0.009
-319.041	-79.141	-0.472	-0.160
-318.026	800.000	0.073	-0.242
-317.012	-36.908	0.130	-0.070
-315.997	800.000	-0.063	0.229
-314.983	-94.496	0.443	0.121
-313.968	800.000	-0.092	-0.370
-312.953	692.955	0.069	0.181
-311.939	-153.966	-0.152	0.010
-310.924	-200.000	-0.020	0.360
-309.910	-25.543	0.278	-0.164
-308.895	98.266	-0.185	0.213
-307.880	800.000	0.051	0.211
-306.866	-200.000	-0.026	0.227
-305.851	-200.000	0.001	0.065
-304.837	-200.000	0.026	0.330
-303.822	-135.008	0.045	-0.005
-302.807	-27.814	0.230	0.133
-301.793	-14.905	-0.204	-0.131
-300.778	453.443	-0.050	-0.111
-299.764	-52.772	0.087	0.040
-298.749	-200.000	0.029	-0.144
-297.735	-71.553	0.182	-0.068
-296.720	-123.294	-0.243	0.039
-295.705	800.000	0.082	0.325
-294.691	800.000	-0.105	-0.359
-293.676	152.221	0.149	0.204
-292.662	-106.853	0.084	-0.019
-291.647	800.000	-0.068	0.199
-290.632	-150.691	-0.181	-0.014
-289.618	-115.346	0.162	0.031
-288.603	-200.000	-0.004	0.133
-287.589	800.000	0.049	-0.164
-286.574	-12.205	-0.227	0.149
-285.559	383.741	-0.094	-0.193
-284.545	-200.000	0.054	-0.299
-283.530	-5.101	0.423	-0.291
-282.516	-200.000	0.281	-0.001
-281.501	-200.000	-0.019	0.185
-280.486	-200.000	-0.003	-0.122
-279.472	-71.512	0.271	0.101
-278.457	46.941	0.131	-0.121
-277.443	800.000	-0.041	-0.177
-276.428	-200.000	0.019	-0.274
-275.413	-64.576	0.171	0.069
-274.399	295.374	-0.103	-0.189
-273.384	419.528	0.109	-0.233
-272.370	-131.763	0.364	0.048
-271.355	-151.307	0.169	0.013
-270.340	429.914	-0.120	0.260
-269.326	657.597	-0.090	0.231
-268.311	-43.992	-0.198	-0.100
-267.297	-145.415	0.560	-0.050
-266.282	-200.000	0.121	-0.000
-265.267	-0.286	-0.200	-0.142
-264.253	-188.415	-0.357	0.004
-263.238	-148.055	0.280	-0.023
-262.224	354.301	0.117	0.232
-261.209	-21.769	-0.107	-0.065
-260.195	-24.384	0.194	0.115
-259.180	-200.000	0.053	0.261
-258.165	-136.131	0.249	-0.029
-257.151	59.372	-0.075	0.074
-256.136	-56.456	0.340	-0.151
-255.122	220.009	-0.117	0.187
-254.107	58.601	-0.139	-0.136
-253.092	462.336	-0.072	0.159
-252.078	265.373	0.151	0.262
-251.063	372.553	-0.051	0.104
-250.049	-146.630	-0.240	0.021
-249.034	476.317	-0.064	-0.143
-248.019	-147.742	-0.048	0.004
-247.005	75.589	-0.064	-0.068
-245.990	-55.345	-0.185	-0.083
-244.976	-200.000	-0.034	-0.214
-243.961	85.774	-0.114	-0.125
-242.946	-17.749	-0.084	0.052
-241.932	800.000	0.030	0.110
-240.917	-200.000	-0.028	0.411
-239.903	-200.000	0.032	0.331
-238.888	221.261	0.098	-0.157
-237.873	185.538	-0.110	0.163
-236.859	800.000	0.091	0.361
-235.844	409.576	-0.104	0.220
-234.830	800.000	0.054	-0.233
-233.815	800.000	-0.056	-0.220
-232.800	107.861	0.090	-0.107
-231.786	-87.991	0.188	0.056
-230.771	-85.042	0.185	0.058
-229.757	114.449	0.139	0.169
-228.742	-116.729	-0.185	-0.034
-227.727	51.521	0.137	0.130
-226.713	-113.067	0.088	-0.017
-225.698	111.729	0.145	-0.174
-224.684	-8.622	0.038	-0.025
-223.669	800.000	0.028	-0.089
-222.655	45.377	0.099	0.091
-221.640	-67.309	-0.214	0.084
-220.625	800.000	-0.028	-0.109
-219.611	-200.000	-0.092	0.434
-218.596	-106.898	0.218	-0.048
-217.582	-146.207	0.368	0.032
-216.567	800.000	0.046	-0.177
-215.552	-4.430	-0.143	-0.099
-214.538	33.173	-0.210	-0.181
-213.523	-128.198	0.064	0.009
-212.509	-71.514	0.179	-0.067
-211.494	-200.000	0.016	-0.343
-210.479	-200.000	-0.057	0.302
-209.465	158.934	0.045	0.062
-208.450	129.694	-0.105	-0.133
-207.436	484.691	-0.036	0.082
-206.421	-157.381	0.196	-0.012
-205.406	217.167	-0.116	-0.184
-204.392	-57.062	-0.252	0.111
-203.377	-126.926	0.325	0.048
-202.363	490.528	0.131	-0.299
-201.348	800.000	0.045	0.132
-200.333	9.763	-0.052	0.040
-199.319	-128.129	-0.162	0.023
-198.304	-125.486	0.341	-0.052
-197.290	-39.591	-0.117	0.061
-196.275	-20.471	-0.233	-0.143
-195.260	-116.670	-0.177	0.032
-194.246	800.000	0.060	-0.187
-193.231	660.465	-0.080	-0.204
-192.217	-47.352	0.229	0.111
-191.202	143.890	-0.291	0.386
-190.187	323.472	0.191	0.364
-189.173	-200.000	0.063	-0.286
-188.158	800.000	-0.081	-0.248
-187.144	29.201	-0.170	0.144
-186.129	20.477	0.125	0.101
-185.114	-200.000	-0.032	0.243
-184.100	-7.862	-0.084	-0.057
-183.085	-81.092	-0.048	-0.016
-182.071	-3.340	0.144	-0.099
-181.056	-74.767	0.324	-0.116
-180.042	800.000	0.024	-0.104
-179.027	82.178	0.268	0.289
-178.012	462.078	-0.215	0.477
-176.998	279.566	-0.123	-0.219
-175.983	-186.611	0.245	-0.003
-174.969	-73.394	0.163	0.059
-173.954	-200.000	-0.008	-0.121
-172.939	71.071	-0.291	-0.300
-171.925	-109.595	-0.268	-0.056
-170.910	-114.922	-0.216	0.041
-169.896	-146.966	0.207	-0.018
-168.881	-39.773	0.027	-0.014
-167.866	195.366	0.102	-0.155
-166.852	18.302	0.324	-0.258
-165.837	12.408	0.082	0.063
-164.823	-39.046	-0.410	0.215
-163.808	-200.000	0.038	0.168
-162.793	-50.315	0.185	-0.087
-161.779	4.419	-0.085	-0.062
-160.764	779.658	-0.154	0.420
-159.750	-167.335	-0.114	0.005
-158.735	-200.000	-0.042	-0.255
-157.720	-200.000	0.033	0.409
-156.706	-24.680	0.174	0.103
-155.691	-200.000	-0.061	-0.285
-154.677	19.469	-0.186	-0.149
-153.662	-141.412	-0.094	0.009
-152.647	-200.000	0.024	-0.389
-151.633	800.000	-0.035	-0.124
-150.618	-159.616	0.203	0.011
-149.604	-34.817	0.080	0.043
-148.589	317.538	0.242	0.456
-147.574	-105.378	0.328	0.074
-146.560	-34.335	-0.124	0.068
-145.545	338.114	-0.061	0.119
-144.531	205.996	0.081	0.125
-143.516	-100.617	0.175	-0.043
-142.502	-96.653	0.054	0.014
-141.487	800.000	-0.055	-0.176
-140.472	263.088	-0.107	-0.184
-139.458	-105.416	0.224	-0.051
-138.443	-200.000	-0.061	0.319
-137.429	417.558	-0.081	0.171
-136.414	62.855	0.185	0.184
-135.399	-61.980	-0.137	0.057
-134.385	-11.546	0.147	-0.096
-133.370	16.842	0.014	-0.011
-132.356	800.000	0.040	0.172
-131.341	-200.000	-0.001	-0.017
-130.326	55.474	0.256	0.246
-129.312	34.504	0.030	-0.026
-128.297	-37.936	-0.298	0.157
-127.283	-166.316	0.357	0.015
-126.268	-60.210	-0.390	-0.165
-125.253	370.031	-0.029	-0.057
-124.239	-30.694	0.328	0.184
-123.224	-200.000	0.009	0.213
-122.210	-93.033	0.331	-0.092
-121.195	800.000	-0.073	0.217
-120.180	-78.956	0.066	-0.022
-119.166	254.816	-0.130	-0.222
-118.151	-90.307	0.114	0.033
-117.137	-200.000	0.077	0.345
-116.122	-164.226	0.201	-0.009
-115.107	-120.356	0.207	-0.035
-114.093	-200.000	-0.001	-0.005
-113.078	-61.624	0.147	-0.061
-112.064	-79.783	0.244	0.082
-111.049	-200.000	0.069	0.334
-110.034	-200.000	-0.065	-0.414
-109.020	776.718	0.070	0.189
-108.005	631.836	-0.085	-0.213
-106.991	-48.822	0.073	0.035
-105.976	617.946	-0.127	0.316
-104.962	-155.490	0.141	0.009
-103.947	-108.836	0.280	-0.059
-102.932	285.916	-0.166	-0.298
-101.918	655.112	0.007	-0.018
-100.903	-48.725	0.212	-0.101
-99.889	-108.776	-0.144	0.031
-98.874	-18.939	-0.121	0.075
-97.859	-17.705	-0.360	-0.224
-96.845	-33.779	0.301	-0.164
-95.830	34.815	-0.096	0.083
-94.816	-124.632	0.357	0.055
-93.801	52.704	-0.164	-0.156
-92.786	-200.000	0.015	0.104
-91.772	469.376	0.133	0.297
-90.757	21.973	-0.252	-0.204
-89.743	-146.225	0.346	-0.030
-88.728	-200.000	-0.095	0.424
-87.713	37.362	-0.123	0.108
-86.699	-171.601	0.143	0.005
-85.684	-176.323	0.018	0.000
-84.670	-122.774	0.181	0.029
-83.655	-65.958	-0.173	-0.069
-82.640	-61.381	-0.027	0.011
-81.626	68.819	0.080	0.082
-80.611	28.110	0.280	0.234
-79.597	18.536	0.116	0.092
-78.582	-154.206	0.269	-0.018
-77.567	-200.000	-0.005	0.063
-76.553	525.939	-0.117	0.273
-75.538	-94.518	0.262	0.071
-74.524	171.220	0.157	0.223
-73.509	800.000	-0.074	0.250
-72.494	-200.000	-0.019	0.302
-71.480	-123.328	0.052	0.008
-70.465	-40.661	-0.203	-0.104
-69.451	205.629	-0.187	-0.287
-68.436	-59.057	0.184	0.079
-67.422	49.139	-0.157	-0.146
-66.407	199.489	0.186	-0.283
-65.392	-141.343	-0.174	-0.017
-64.378	85.866	0.202	-0.220
-63.363	-81.572	0.256	0.083
-62.349	-96.310	0.217	-0.057
-61.334	85.776	-0.829	-0.903
-60.319	2.694	0.385	0.276
-59.305	-200.000	-0.232	-1.018
-58.290	101.817	0.572	0.662
-57.276	800.000	0.438	1.360
-56.261	-200.000	93.111	535.127
-55.246	591.467	1387.074	3390.749
-54.232	182.791	2623.638	3834.170
-53.217	118.667	2220.543	2715.533
-52.203	46.279	1662.462	1525.762
-51.188	38.026	1392.611	1226.467
-50.173	34.759	1349.811	1168.780
-49.159	54.549	1397.945	1334.134
-48.144	58.642	1415.853	1376.651
-47.130	38.449	1370.469	1209.389
-46.115	34.734	1352.752	1170.988
-45.100	34.558	1348.060	1165.807
-44.086	34.461	1345.495	1162.947
-43.071	34.478	1342.457	1160.380
-42.057	34.501	1340.715	1158.967
-41.042	34.401	1339.220	1157.021
-40.027	34.458	1337.223	1155.597
-39.013	34.459	1335.465	1154.038
-37.998	34.524	1333.252	1152.470
-36.984	34.630	1331.481	1151.536
-35.969	34.546	1329.901	1149.615
-34.954	34.596	1328.132	1148.343
-33.940	34.643	1326.646	1147.295
-32.925	34.636	1325.699	1146.390
-31.911	34.748	1323.830	1145.398
-30.896	34.761	1322.203	1144.023
-29.881	34.632	1321.515	1142.613
-28.867	34.590	1319.826	1140.854
-27.852	34.702	1317.863	1139.780
-26.838	34.723	1316.582	1138.751
-25.823	34.640	1315.502	1137.279
-24.809	34.792	1313.596	1136.488
-23.794	34.609	1312.624	1134.514
-22.779	34.647	1311.282	1133.540
-21.765	34.707	1309.577	1132.371
-20.750	34.631	1308.693	1131.117
-19.736	34.482	1307.601	1129.242
-18.721	34.495	1306.141	1128.015
-17.706	34.409	1304.950	1126.431
-16.692	34.540	1303.123	1125.583
-15.677	34.490	1302.530	1124.730
-14.663	34.523	1301.108	1123.655
-13.648	34.488	1300.162	1122.590
-12.633	34.559	1299.280	1122.197
-11.619	34.512	1298.545	1121.242
-10.604	34.361	1297.760	1119.632
-9.590	34.514	1296.198	1119.137
-8.575	34.430	1295.387	1117.904
-7.560	34.467	1295.165	1117.881
-6.546	34.409	1293.736	1116.264
-5.531	34.454	1292.615	1115.517
-4.517	34.572	1291.551	1115.244
-3.502	34.533	1290.703	1114.239
-2.487	34.484	1289.819	1113.148
-1.473	34.619	1286.119	1110.694
-0.458	33.842	1271.315	1093.393
0.556	31.212	1252.943	1056.631
1.571	27.618	1257.106	1039.597
2.586	26.376	1272.030	1044.676
3.600	24.629	1259.070	1023.940
4.615	18.052	1182.460	926.031
5.629	8.593	1103.665	816.194
6.644	4.304	1081.956	778.577
7.659	4.080	1079.538	775.647
8.673	4.165	1078.408	775.194
9.688	4.082	1077.299	773.910
10.702	4.365	1075.391	773.884
11.717	9.714	1083.456	806.433
12.731	18.189	1095.798	858.246
13.746	20.742	1098.206	872.871
14.761	19.734	1096.119	866.092
15.775	18.844	1094.034	859.913
16.790	17.684	1092.225	852.616
17.804	16.965	1090.440	847.555
18.819	16.627	1089.061	844.723
19.834	16.491	1088.368	843.433
20.848	16.168	1087.877	841.365
21.863	16.088	1086.436	839.777
22.877	15.851	1085.706	837.958
23.892	15.776	1084.985	836.956
24.907	15.870	1084.605	837.058
25.921	16.018	1082.868	836.376
26.936	15.864	1081.785	834.705
27.950	15.976	1080.754	834.389
28.965	16.101	1078.739	833.375
29.980	16.158	1077.650	832.745
30.994	16.253	1075.688	831.623
32.009	16.240	1074.948	830.914
33.023	16.111	1074.588	829.925
34.038	16.144	1073.482	829.162
35.053	16.012	1072.248	827.487
36.067	16.058	1071.369	826.962
37.082	15.971	1070.847	826.056
38.096	16.150	1069.402	825.743
39.111	16.255	1068.295	825.331
40.126	16.005	1067.676	823.556
41.140	15.860	1066.023	821.503
42.155	15.840	1064.845	820.426
43.169	15.649	1064.554	819.197
44.184	15.729	1063.140	818.426
45.199	15.713	1062.179	817.538
46.213	15.886	1060.778	817.225
47.228	15.955	1060.193	817.039
48.242	16.050	1058.963	816.477
49.257	16.146	1057.695	815.891
50.271	16.147	1056.865	815.182
51.286	16.005	1056.224	813.930
52.301	15.976	1055.116	812.866
53.315	15.971	1053.960	811.880
54.330	15.786	1053.086	810.243
55.344	15.893	1052.720	810.404
56.359	15.867	1051.333	809.140
57.374	15.918	1050.406	808.600
58.388	15.834	1049.718	807.594
59.403	15.774	1048.950	806.646
60.417	15.727	1048.301	805.851
61.432	15.695	1047.332	804.883
62.447	15.746	1046.470	804.393
63.461	15.650	1045.727	803.290
64.476	15.679	1044.546	802.453
65.490	15.715	1043.661	801.869
66.505	15.702	1043.195	801.379
67.520	15.564	1043.055	800.544
68.534	15.619	1041.983	799.915
69.549	15.655	1040.954	799.224
70.563	15.670	1040.033	798.515
71.578	15.608	1039.354	797.631
72.593	15.381	1039.235	796.392
73.607	15.431	1037.986	795.600
74.622	15.545	1037.122	795.407
75.636	15.551	1036.412	794.822
76.651	15.587	1035.853	794.492
77.666	15.630	1034.967	793.946
78.680	15.675	1034.433	793.680
79.695	15.630	1033.846	792.947
80.709	15.748	1033.395	793.086
81.724	15.828	1032.356	792.595
82.739	15.884	1031.695	792.283
83.753	15.890	1031.222	791.874
84.768	16.155	1030.181	792.252
85.782	16.251	1029.251	791.916
86.797	16.189	1028.374	790.883
87.812	16.046	1027.504	789.470
88.826	16.000	1026.467	788.392
89.841	16.099	1025.254	787.850
90.855	16.163	1024.604	787.579
91.870	16.251	1023.757	787.272
92.884	16.290	1022.542	786.446
93.899	16.173	1021.901	785.342
94.914	16.322	1021.129	785.370
95.928	16.276	1020.386	784.518
96.943	16.194	1019.438	783.336
97.957	16.201	1018.461	782.548
98.972	16.196	1017.810	781.959
99.987	16.120	1017.691	781.447
101.001	16.154	1015.853	780.124
102.016	16.106	1015.183	779.316
103.030	16.128	1014.619	778.916
104.045	16.125	1013.986	778.347
105.060	16.036	1012.669	776.855
106.074	15.852	1011.574	775.099
107.089	15.773	1010.692	773.995
108.103	15.884	1009.354	773.413
109.118	15.825	1008.615	772.504
110.133	15.678	1007.879	771.198
111.147	15.769	1007.394	771.176
112.162	15.759	1006.144	770.104
113.176	15.932	1005.396	770.256
114.191	15.886	1005.042	769.707
115.206	15.801	1004.385	768.746
116.220	15.840	1003.120	767.889
117.235	15.895	1002.432	767.543
118.249	15.949	1001.044	766.659
119.264	15.730	1000.136	764.903
120.279	15.853	999.771	765.112
121.293	15.788	998.713	763.940
122.308	15.705	997.699	762.720
123.322	15.712	996.525	761.786
124.337	15.779	995.494	761.235
125.352	15.637	994.861	760.044
126.366	15.689	993.490	759.164
127.381	15.792	992.370	758.702
128.395	15.636	991.798	757.498
129.410	15.729	990.688	756.998
130.424	15.799	990.381	757.015
131.439	15.980	989.171	756.834
132.454	15.965	988.114	755.894
133.468	15.993	987.516	755.494
134.483	15.985	986.734	754.792
135.497	15.910	986.022	753.842
136.512	15.963	984.917	753.168
137.527	15.998	983.921	752.497
138.541	16.027	983.415	752.175
139.556	16.006	982.768	751.517
140.570	16.134	982.288	751.656
141.585	16.145	981.239	750.835
142.600	16.196	980.455	750.396
143.614	16.268	979.789	750.142
144.629	16.330	978.744	749.547
145.643	16.178	978.078	748.298
146.658	16.237	976.304	747.138
147.673	16.143	975.084	745.721
148.687	15.944	974.997	744.708
149.702	15.960	973.874	743.856
150.716	15.991	973.202	743.414
151.731	15.932	972.410	742.481
152.746	16.054	971.513	742.269
153.760	16.003	971.245	741.776
154.775	16.192	970.465	741.943
155.789	16.162	969.725	741.182
156.804	16.143	969.047	740.512
157.819	16.271	968.450	740.555
158.833	16.388	967.692	740.423
159.848	16.368	966.766	739.560
160.862	16.279	965.815	738.378
161.877	16.111	964.917	736.893
162.892	16.084	963.552	735.664
163.906	16.133	962.723	735.183
164.921	15.980	962.244	734.084
165.935	16.210	960.981	734.057
166.950	16.211	959.694	733.014
167.964	16.142	959.075	732.175
168.979	16.186	958.102	731.559
169.994	16.204	957.422	731.054
171.008	16.249	957.152	730.976
172.023	16.265	956.301	730.332
173.037	16.456	955.390	730.398
174.052	16.315	954.457	729.010
175.067	16.265	953.698	728.149
176.081	16.061	953.186	726.816
177.096	16.027	953.221	726.632
178.110	16.144	952.143	726.248
179.125	16.141	951.681	725.817
180.140	16.327	951.140	726.142
181.154	16.205	951.027	725.469
182.169	16.289	950.418	725.300
183.183	16.428	949.391	725.046
184.198	16.438	948.141	724.071
185.213	16.512	947.738	724.017
186.227	16.520	946.939	723.378
187.242	16.571	946.731	723.372
188.256	16.599	945.710	722.648
189.271	16.618	945.161	722.244
190.286	16.320	944.381	720.313
191.300	16.135	943.224	718.582
192.315	15.999	942.623	717.481
193.329	16.122	942.055	717.507
194.344	16.138	941.799	717.318
195.359	16.364	941.160	717.728
196.373	16.444	940.499	717.498
197.388	16.567	939.979	717.561
198.402	16.700	939.792	717.919
199.417	16.747	939.242	717.636
200.432	16.895	938.409	717.560
201.446	16.836	938.213	717.096
202.461	16.954	937.883	717.278
203.475	16.845	936.851	715.969
204.490	16.629	936.095	714.415
205.504	16.657	935.227	713.805
206.519	16.752	934.341	713.469
207.534	16.656	933.983	712.727
208.548	16.676	933.444	712.336
209.563	16.696	932.411	711.571
210.577	16.833	931.601	711.464
211.592	16.833	931.148	711.053
212.607	16.947	930.410	710.908
213.621	16.901	929.782	710.172
214.636	16.857	928.882	709.235
215.650	16.777	927.986	708.154
216.665	16.946	927.316	708.289
217.680	17.007	926.965	708.210
218.694	17.004	926.129	707.498
219.709	17.029	925.298	706.906
220.723	17.018	924.771	706.394
221.738	16.897	924.439	705.574
222.753	16.949	923.634	705.114
223.767	16.915	923.235	704.603
224.782	17.127	922.622	704.955
225.796	17.112	922.455	704.703
226.811	17.100	920.924	703.422
227.826	17.039	920.223	702.569
228.840	16.884	919.761	701.514
229.855	17.029	918.544	701.122
230.869	16.986	917.935	700.418
231.884	16.982	917.573	700.065
232.899	16.978	916.591	699.236
233.913	16.903	915.783	698.248
234.928	16.931	915.205	697.863
235.942	16.915	914.861	697.470
236.957	16.958	914.205	697.085
237.972	16.868	913.574	696.176
238.986	16.975	912.622	695.825
240.001	16.844	912.419	695.073
241.015	16.940	911.681	694.841
242.030	16.975	911.294	694.631
243.045	17.028	910.490	694.171
244.059	17.066	909.947	693.852
245.074	17.153	909.197	693.575
246.088	17.100	908.788	692.984
247.103	17.274	908.133	693.132
248.117	17.239	907.669	692.575
249.132	17.586	907.084	693.479
250.147	17.561	906.716	693.036
251.161	17.593	905.962	692.530
252.176	17.630	905.401	692.188
253.190	17.728	904.149	691.567
254.205	17.682	904.078	691.266
255.220	17.627	903.345	690.422
256.234	17.715	902.627	690.167
257.249	17.634	902.259	689.496
258.263	17.578	901.274	688.457
259.278	17.687	900.504	688.249
260.293	17.643	900.063	687.673
261.307	17.630	899.856	687.401
262.322	17.900	898.435	687.342
263.336	17.878	898.050	686.899
264.351	17.775	897.453	685.966
265.366	17.988	896.328	685.900
266.380	17.911	895.760	685.096
267.395	17.750	895.159	683.931
268.409	17.772	894.153	683.192
269.424	17.737	893.615	682.578
270.439	17.885	892.677	682.392
271.453	17.749	892.080	681.333
272.468	17.855	891.235	681.050
273.482	17.783	891.134	680.625
274.497	17.884	890.484	680.472
275.512	17.752	890.181	679.654
276.526	17.773	889.269	678.982
277.541	17.896	889.085	679.269
278.555	18.012	887.959	678.810
279.570	18.161	887.417	678.926
280.585	18.042	886.720	677.863
281.599	17.940	885.944	676.805
282.614	17.875	885.396	676.067
283.628	17.860	884.606	675.347
284.643	17.955	884.048	675.236
285.657	18.000	883.636	675.038
286.672	17.804	883.012	673.730
287.687	17.944	882.243	673.637
288.701	18.008	881.716	673.424
289.716	18.064	881.137	673.144
290.730	18.091	880.520	672.721
291.745	18.111	880.166	672.468
292.760	18.092	879.330	671.695
293.774	18.281	878.639	671.848
294.789	18.124	878.011	670.695
295.803	18.024	877.242	669.658
296.818	18.036	876.528	669.100
297.833	18.092	875.837	668.731
298.847	18.140	875.317	668.464
299.862	18.203	874.673	668.159
300.876	18.180	874.661	667.999
301.891	18.221	873.894	667.513
302.906	18.269	873.482	667.328
303.920	18.412	872.705	667.234
304.935	18.431	872.107	666.790
305.949	18.426	871.463	666.218
306.964	18.428	870.645	665.545
307.979	18.430	869.974	664.978
308.993	18.476	869.602	664.813
310.008	18.450	869.189	664.339
311.022	18.495	868.076	663.601
312.037	18.393	867.905	663.021
313.052	18.287	867.485	662.228
314.066	18.269	866.384	661.261
315.081	18.323	866.056	661.162
316.095	18.355	865.164	660.545
317.110	18.205	864.827	659.651
318.125	18.322	864.216	659.578
319.139	18.408	863.809	659.539
320.154	18.287	863.643	658.888
321.168	18.202	863.030	658.036
322.183	18.366	862.026	657.844
323.197	18.255	862.268	657.540
324.212	18.332	861.312	657.051
325.227	18.397	860.675	656.754
326.241	18.301	859.873	655.717
327.256	18.292	859.428	655.285
328.270	18.319	859.145	655.114
329.285	18.336	858.557	654.672
330.300	18.254	857.585	653.560
331.314	18.347	857.335	653.668
332.329	18.629	856.734	654.227
333.343	18.466	856.641	653.475
334.358	18.672	856.265	653.919
335.373	18.582	855.523	652.949
336.387	18.556	855.387	652.688
337.402	18.745	855.080	653.115
338.416	18.758	854.851	652.932
339.431	18.863	854.417	652.944
340.446	18.884	853.898	652.567
341.460	18.611	853.833	651.426
342.475	19.004	853.169	652.351
343.489	18.873	852.635	651.389
344.504	19.006	852.069	651.403
345.519	19.062	851.825	651.371
346.533	19.055	850.896	650.577
347.548	18.979	850.322	649.793
348.562	18.817	849.880	648.785
349.577	18.831	849.160	648.232
350.592	18.629	848.771	647.113
351.606	18.645	848.293	646.752
352.621	18.834	847.052	646.459
353.635	18.839	846.646	646.113
354.650	18.687	846.139	645.097
355.665	18.633	845.633	644.452
356.679	18.967	844.894	645.084
357.694	18.989	843.886	644.340
358.708	18.990	843.441	643.948
359.723	19.053	842.383	643.318
360.738	18.995	842.171	642.884
361.752	19.105	841.671	642.855
362.767	19.029	841.215	642.167
363.781	19.094	840.708	641.963
364.796	19.200	840.542	642.176
365.810	19.428	840.051	642.594
366.825	19.411	839.739	642.236
367.840	19.217	839.393	641.192
368.854	19.187	838.895	640.643
369.869	19.386	838.033	640.667
370.883	19.194	837.801	639.719
371.898	19.395	837.301	640.027
372.913	19.418	836.992	639.821
373.927	19.265	836.688	638.962
374.942	19.407	835.780	638.738
375.956	19.512	835.248	638.664
376.971	19.503	835.121	638.478
377.986	19.444	835.035	638.139
379.000	19.564	834.356	638.007
380.015	19.523	833.490	637.137
381.029	19.552	832.822	636.675
382.044	19.514	832.434	636.184
383.059	19.602	831.527	635.758
384.073	19.545	830.898	635.011
385.088	19.368	830.335	633.874
386.102	19.369	830.126	633.661
387.117	19.503	829.530	633.643
388.132	19.522	828.851	633.136
389.146	19.526	828.176	632.579
390.161	19.522	827.939	632.328
391.175	19.444	827.611	631.736
392.190	19.494	827.271	631.605
393.205	19.346	826.526	630.439
394.219	19.505	826.119	630.655
395.234	19.440	825.436	629.838
396.248	19.397	824.835	629.169
397.263	19.473	824.379	629.040
398.278	19.435	824.200	628.709
399.292	19.452	823.736	628.364
400.307	19.329	823.128	627.397
401.321	19.516	822.719	627.708
402.336	19.496	822.414	627.347
403.350	19.654	821.840	627.427
404.365	19.641	821.462	627.038
405.380	19.792	820.609	626.877
406.394	19.820	820.445	626.799
407.409	19.831	819.846	626.325
408.423	19.814	819.991	626.319
409.438	19.899	819.481	626.180
410.453	19.962	819.094	626.057
411.467	20.128	818.139	625.873
412.482	20.097	818.298	625.826
413.496	20.076	818.029	625.491
414.511	20.165	817.112	625.054
415.526	20.029	816.782	624.257
416.540	19.926	816.452	623.577
417.555	20.190	815.672	623.877
418.569	20.129	815.508	623.475
419.584	20.029	814.924	622.617
420.599	20.002	814.797	622.365
421.613	155.117	1371.389	1786.683
422.628	134.935	1452.504	1786.814
