DTS Sentinel unit serial number:	SN413079Multiplexer serial number:	ORYXHardware model number:	OX4-SRSoftware version number:	ORYX F/W v4.00 Oryx Data Collector v3.7.2.0data status	okinstallation	princeton_trtdifferential loss correction	single-endedforward channel	channel 1reverse channel	N/Adate	2019/09/18time	19:54:35forward acquisition time	60.00reverse acquisition time	0.00gamma	496.2192k internal	0.2328k external	0.2328temperature offset calibration	1.0025default loss term (dB/km)	0.3790temperature slope calibration	1.0000multiplexer offset coefficient	1.0000multiplexer slope coefficient	1.0000fibre end	0.00T internal ref (°C)	30.80T ext. ref 1 (°C)	0.94T ext. ref 2 (°C)	21.85length (m)	temperature (°C)	Stokes	anti-Stokes-747.200	800.000	0.022	0.067
-746.185	-200.000	-0.010	-0.052
-745.171	-187.331	0.172	-0.002
-744.156	109.125	-0.300	0.362
-743.142	-2.515	-0.323	0.228
-742.127	-52.933	0.021	-0.010
-741.112	661.680	0.112	-0.290
-740.098	800.000	0.155	0.585
-739.083	-55.622	0.402	0.181
-738.069	800.000	0.062	0.205
-737.054	800.000	-0.041	0.135
-736.039	138.180	-0.193	-0.255
-735.025	-200.000	0.025	-0.318
-734.010	-147.933	-0.460	-0.039
-732.996	30.008	0.117	-0.100
-731.981	800.000	-0.054	-0.204
-730.966	55.957	0.039	0.039
-729.952	139.232	-0.055	-0.073
-728.937	-119.608	0.226	0.039
-727.923	-114.749	0.193	0.037
-726.908	-17.536	-0.280	0.177
-725.894	-200.000	0.013	-0.138
-724.879	-200.000	0.046	0.223
-723.864	212.825	-0.196	0.311
-722.850	-173.865	0.113	-0.003
-721.835	-200.000	-0.034	-0.177
-720.821	426.490	-0.065	-0.141
-719.806	-26.734	-0.069	0.040
-718.791	35.351	-0.109	-0.097
-717.777	583.525	0.052	-0.129
-716.762	179.164	-0.189	-0.279
-715.748	-200.000	-0.001	-0.177
-714.733	-68.425	-0.163	-0.064
-713.718	106.334	-0.147	-0.176
-712.704	23.453	-0.254	-0.211
-711.689	37.576	0.118	0.106
-710.675	-167.373	-0.376	0.015
-709.660	28.508	0.226	0.192
-708.645	21.147	0.071	0.058
-707.631	800.000	0.158	-0.512
-706.616	-69.595	0.050	-0.019
-705.602	-200.000	-0.025	0.171
-704.587	192.427	0.093	-0.141
-703.572	496.399	-0.075	-0.174
-702.558	317.636	0.062	0.118
-701.543	22.394	-0.174	0.143
-700.529	-67.578	-0.303	-0.119
-699.514	-173.905	0.140	-0.004
-698.499	-142.352	-0.338	-0.034
-697.485	-200.000	-0.059	-0.420
-696.470	59.995	0.258	-0.257
-695.456	114.585	-0.084	-0.103
-694.441	-94.415	0.297	-0.082
-693.426	-197.791	0.415	-0.003
-692.412	169.362	-0.173	0.249
-691.397	312.011	0.176	-0.332
-690.383	800.000	-0.032	0.112
-689.368	264.288	0.101	0.177
-688.354	800.000	-0.068	0.258
-687.339	402.771	0.136	0.287
-686.324	-17.937	-0.233	0.147
-685.310	-200.000	0.011	-0.300
-684.295	-166.662	-0.172	0.007
-683.281	-200.000	-0.013	-0.106
-682.266	-4.110	-0.097	-0.068
-681.251	215.290	-0.158	0.251
-680.237	-200.000	0.084	-0.389
-679.222	-200.000	0.006	-0.053
-678.208	161.367	-0.090	0.127
-677.193	-62.073	0.202	0.085
-676.178	-49.630	-0.299	0.143
-675.164	-200.000	-0.024	-0.120
-674.149	31.853	0.274	0.237
-673.135	-200.000	0.006	-0.109
-672.120	-92.302	-0.158	-0.045
-671.105	-59.903	0.300	0.129
-670.091	-27.893	0.208	0.121
-669.076	-98.421	-0.344	-0.088
-668.062	-10.228	-0.153	-0.102
-667.047	-103.843	-0.257	-0.060
-666.032	-200.000	0.036	0.289
-665.018	-55.867	-0.225	-0.101
-664.003	-157.621	-0.252	-0.015
-662.989	800.000	-0.074	0.211
-661.974	198.299	-0.105	0.162
-660.959	2.737	-0.032	0.023
-659.945	-123.536	0.158	0.025
-658.930	99.610	-0.257	-0.299
-657.916	-200.000	-0.051	-0.270
-656.901	-101.440	-0.207	0.051
-655.886	43.282	-0.115	-0.105
-654.872	-200.000	-0.018	-0.438
-653.857	800.000	-0.057	-0.204
-652.843	-61.009	0.252	-0.107
-651.828	88.520	0.371	-0.414
-650.814	-26.755	-0.362	0.213
-649.799	-200.000	0.029	0.189
-648.784	384.103	-0.178	-0.368
-647.770	-200.000	0.024	0.210
-646.755	208.224	-0.107	-0.168
-645.741	178.688	-0.167	-0.246
-644.726	-12.059	-0.216	0.142
-643.711	334.139	-0.065	0.127
-642.697	-64.052	-0.428	0.175
-641.682	800.000	0.110	-0.347
-640.668	550.797	0.118	-0.285
-639.653	20.099	0.034	-0.028
-638.638	42.917	0.210	0.192
-637.624	-200.000	0.037	-0.211
-636.609	-200.000	-0.025	0.190
-635.595	-80.443	0.243	0.081
-634.580	-37.222	-0.205	-0.110
-633.565	157.906	0.040	-0.056
-632.551	-93.978	-0.239	-0.066
-631.536	57.445	0.161	-0.158
-630.522	-74.048	0.212	-0.077
-629.507	-152.688	-0.111	0.008
-628.492	-200.000	-0.039	0.305
-627.478	298.448	0.069	0.128
-626.463	257.626	0.214	0.370
-625.449	-200.000	0.003	-0.207
-624.434	-103.739	-0.140	-0.033
-623.419	-66.453	-0.129	-0.051
-622.405	159.822	0.205	-0.286
-621.390	-200.000	0.001	0.143
-620.376	104.022	-0.178	-0.210
-619.361	-33.099	-0.332	-0.185
-618.346	-45.346	-0.150	0.075
-617.332	84.660	0.280	-0.307
-616.317	85.398	-0.222	0.245
-615.303	-97.409	-0.394	-0.103
-614.288	-64.333	-0.118	0.048
-613.273	-200.000	-0.058	0.472
-612.259	-150.006	-0.405	-0.032
-611.244	-85.183	0.143	-0.045
-610.230	-29.492	0.160	0.092
-609.215	-110.453	0.374	-0.078
-608.201	-200.000	-0.015	0.181
-607.186	-200.000	-0.030	-0.140
-606.171	-126.489	0.261	-0.039
-605.157	101.347	0.117	0.137
-604.142	-106.990	-0.255	0.057
-603.128	-121.937	-0.279	0.046
-602.113	92.928	0.114	0.130
-601.098	41.567	-0.189	0.171
-600.084	-129.286	-0.228	0.032
-599.069	-200.000	-0.003	0.275
-598.055	-130.309	-0.178	-0.024
-597.040	425.593	-0.127	0.273
-596.025	108.310	-0.199	-0.238
-595.011	-29.377	0.105	0.060
-593.996	-200.000	0.032	-0.308
-592.982	105.845	0.098	-0.116
-591.967	-200.000	0.051	-0.306
-590.952	253.841	-0.036	-0.061
-589.938	-65.132	0.167	0.067
-588.923	201.307	-0.061	0.094
-587.909	-91.366	0.122	0.035
-586.894	-48.447	-0.239	0.115
-585.879	-147.887	-0.315	-0.026
-584.865	-55.085	-0.418	-0.188
-583.850	135.145	0.171	0.223
-582.836	-99.343	-0.181	0.046
-581.821	78.884	-0.149	-0.160
-580.806	-106.740	-0.299	-0.067
-579.792	800.000	0.031	0.088
-578.777	-200.000	0.053	0.297
-577.763	800.000	0.016	-0.058
-576.748	-113.596	0.190	-0.037
-575.733	337.126	-0.122	-0.237
-574.719	-52.739	-0.455	-0.210
-573.704	-200.000	0.012	-0.116
-572.690	-121.968	-0.205	-0.034
-571.675	-200.000	-0.004	0.255
-570.661	-36.744	0.370	0.199
-569.646	-128.916	0.180	0.025
-568.631	171.101	-0.178	-0.255
-567.617	59.494	0.158	-0.156
-566.602	-8.451	0.166	-0.112
-565.588	-77.541	0.298	-0.103
-564.573	-200.000	0.026	0.122
-563.558	-200.000	-0.072	-0.496
-562.544	44.867	0.203	-0.187
-561.529	205.721	-0.061	0.094
-560.515	-94.922	-0.129	0.035
-559.500	-43.603	-0.222	0.112
-558.485	-165.934	0.251	0.011
-557.471	-80.611	-0.166	-0.055
-556.456	800.000	-0.008	0.030
-555.442	-74.636	0.284	0.102
-554.427	702.884	0.168	-0.442
-553.412	-50.689	-0.089	-0.042
-552.398	-97.808	0.158	0.041
-551.383	501.814	-0.056	0.129
-550.369	-200.000	0.010	-0.321
-549.354	800.000	-0.054	-0.175
-548.339	-107.145	-0.217	-0.048
-547.325	-131.353	-0.294	0.039
-546.310	-78.365	-0.090	-0.031
-545.296	800.000	0.037	-0.160
-544.281	-200.000	-0.070	0.311
-543.266	800.000	0.030	-0.097
-542.252	92.869	0.173	0.196
-541.237	800.000	-0.037	0.116
-540.223	-185.812	0.136	-0.002
-539.208	155.901	-0.145	0.199
-538.193	-159.762	0.565	0.031
-537.179	-173.301	-0.215	-0.007
-536.164	-200.000	-0.011	0.244
-535.150	161.176	0.179	0.250
-534.135	117.326	0.072	-0.089
-533.121	74.980	-0.090	-0.095
-532.106	714.537	0.094	0.249
-531.091	200.164	-0.122	-0.188
-530.077	9.465	0.152	-0.115
-529.062	-200.000	-0.026	-0.198
-528.048	235.534	-0.089	0.147
-527.033	-55.078	0.077	-0.035
-526.018	800.000	-0.082	-0.238
-525.004	-54.837	0.059	-0.027
-523.989	30.692	0.084	-0.072
-522.975	323.339	-0.045	-0.086
-521.960	800.000	-0.042	0.169
-520.945	-134.038	-0.255	0.031
-519.931	-110.089	0.205	0.043
-518.916	-133.163	0.186	-0.023
-517.902	84.717	-0.120	-0.132
-516.887	-121.079	-0.362	-0.061
-515.872	-200.000	0.012	-0.218
-514.858	422.977	-0.050	-0.108
-513.843	-200.000	0.046	-0.212
-512.829	57.240	0.024	-0.024
-511.814	91.582	-0.151	0.170
-510.799	800.000	-0.041	0.146
-509.785	800.000	0.112	0.363
-508.770	757.145	0.055	0.149
-507.756	-2.083	-0.192	-0.135
-506.741	-79.918	-0.095	-0.032
-505.726	-177.067	0.115	0.003
-504.712	149.099	0.191	-0.259
-503.697	148.931	-0.075	0.101
-502.683	-200.000	0.002	-0.162
-501.668	132.079	-0.142	-0.182
-500.653	365.723	0.046	0.093
-499.639	405.636	-0.082	-0.173
-498.624	143.907	0.230	-0.307
-497.610	82.186	-0.123	-0.133
-496.595	162.472	0.135	0.189
-495.581	-97.760	-0.086	-0.022
-494.566	21.477	0.191	-0.155
-493.551	-82.499	-0.360	-0.116
-492.537	-53.824	-0.260	-0.118
-491.522	47.455	-0.233	0.216
-490.508	-98.046	0.115	0.030
-489.493	38.841	0.070	-0.063
-488.478	-39.420	0.115	0.060
-487.464	-200.000	-0.028	-0.147
-486.449	-200.000	-0.026	0.125
-485.435	126.529	0.183	0.231
-484.420	-63.783	0.151	-0.062
-483.405	-200.000	-0.054	-0.418
-482.391	20.658	-0.216	-0.174
-481.376	53.278	-0.154	-0.148
-480.362	139.646	-0.134	-0.176
-479.347	132.071	-0.081	0.104
-478.332	-200.000	0.076	0.359
-477.318	-36.637	-0.250	0.134
-476.303	0.042	0.235	-0.167
-475.289	-94.400	0.388	-0.106
-474.274	-146.696	-0.372	-0.032
-473.259	397.772	-0.073	0.152
-472.245	-77.779	-0.224	0.077
-471.230	-85.992	0.108	0.033
-470.216	-200.000	0.004	-0.100
-469.201	-200.000	0.022	0.160
-468.186	800.000	0.054	0.198
-467.172	121.133	0.166	0.206
-466.157	87.624	-0.335	0.369
-465.143	160.129	-0.058	-0.080
-464.128	-5.063	0.231	0.158
-463.113	-25.038	0.366	0.217
-462.099	137.316	0.110	-0.143
-461.084	8.827	-0.166	-0.124
-460.070	247.500	-0.020	0.033
-459.055	-200.000	-0.035	0.000
-458.040	763.460	-0.101	0.273
-457.026	800.000	-0.068	-0.260
-456.011	99.293	0.118	0.136
-454.997	33.226	-0.141	0.122
-453.982	-200.000	0.006	0.299
-452.968	163.101	0.192	0.269
-451.953	-150.331	-0.161	-0.012
-450.938	207.814	-0.174	0.270
-449.924	132.385	0.089	0.115
-448.909	298.310	-0.230	0.421
-447.895	-78.854	0.088	-0.030
-446.880	-78.509	-0.248	-0.085
-445.865	63.979	0.073	0.074
-444.851	-95.816	0.160	-0.043
-443.836	-170.332	-0.310	-0.011
-442.822	-146.924	0.092	0.008
-441.807	-134.452	-0.333	0.041
-440.792	131.536	-0.068	-0.087
-439.778	0.633	0.242	-0.173
-438.763	-200.000	0.017	-0.222
-437.749	800.000	-0.081	-0.249
-436.734	800.000	-0.068	0.213
-435.719	-90.898	0.105	0.030
-434.705	-123.599	-0.140	0.022
-433.690	-57.843	-0.280	0.122
-432.676	-36.434	0.191	0.103
-431.661	235.083	0.303	-0.498
-430.646	237.630	0.066	-0.108
-429.632	-200.000	0.003	0.019
-428.617	-87.912	-0.148	-0.044
-427.603	277.876	0.154	0.273
-426.588	118.533	-0.096	0.118
-425.573	11.817	-0.045	0.034
-424.559	96.994	-0.187	0.213
-423.544	93.492	-0.026	0.029
-422.530	-105.346	0.334	0.076
-421.515	-200.000	0.014	-0.150
-420.500	-132.780	0.165	0.021
-419.486	-15.416	0.140	0.089
-418.471	-200.000	0.007	-0.060
-417.457	-62.485	0.065	-0.027
-416.442	-8.700	0.228	-0.152
-415.428	201.008	-0.141	-0.216
-414.413	67.786	0.161	-0.163
-413.398	-26.916	-0.278	-0.162
-412.384	150.727	-0.240	-0.325
-411.369	686.126	0.159	0.412
-410.355	317.924	-0.110	-0.206
-409.340	-58.831	0.102	0.044
-408.325	768.325	-0.042	-0.114
-407.311	406.604	-0.100	-0.210
-406.296	-200.000	-0.019	0.085
-405.282	-200.000	-0.052	-0.475
-404.267	-84.989	0.169	0.053
-403.252	24.372	-0.180	-0.148
-402.238	-1.510	0.222	0.156
-401.223	513.332	0.044	0.101
-400.209	229.251	0.165	-0.268
-399.194	381.089	0.068	0.139
-398.179	800.000	-0.023	-0.098
-397.165	-200.000	-0.027	0.541
-396.150	-200.000	-0.064	0.385
-395.136	-50.072	-0.294	-0.139
-394.121	541.012	0.124	-0.294
-393.106	-66.344	0.277	-0.110
-392.092	-88.675	0.231	-0.068
-391.077	173.528	0.191	0.274
-390.063	20.464	-0.056	0.045
-389.048	-200.000	0.046	0.274
-388.033	27.598	0.150	-0.126
-387.019	800.000	0.017	0.053
-386.004	-105.040	-0.066	-0.015
-384.990	-28.090	-0.254	0.146
-383.975	-200.000	0.016	0.076
-382.960	-164.952	0.167	-0.007
-381.946	265.802	-0.079	0.137
-380.931	426.842	0.173	-0.372
-379.917	-100.651	0.197	-0.048
-378.902	-200.000	-0.001	-0.035
-377.888	-124.914	0.200	0.031
-376.873	-56.488	-0.204	0.090
-375.858	124.234	-0.042	-0.052
-374.844	-24.719	-0.321	0.189
-373.829	-6.525	0.040	0.027
-372.815	57.451	0.076	0.073
-371.800	96.180	-0.154	0.175
-370.785	93.864	-0.180	-0.202
-369.771	800.000	-0.039	-0.139
-368.756	-200.000	-0.026	-0.173
-367.742	-97.797	0.189	0.049
-366.727	-15.710	0.252	-0.159
-365.712	-169.874	-0.391	-0.014
-364.698	-81.640	-0.026	0.009
-363.683	-58.919	-0.403	0.173
-362.669	436.838	0.109	0.236
-361.654	-147.738	0.267	-0.022
-360.639	-128.677	-0.127	-0.018
-359.625	179.942	-0.110	0.159
-358.610	-5.876	0.211	0.144
-357.596	-78.080	-0.319	0.109
-356.581	-200.000	-0.010	0.095
-355.566	-93.930	0.168	-0.046
-354.552	-185.002	0.057	0.001
-353.537	-200.000	0.000	-0.220
-352.523	193.897	0.112	0.169
-351.508	-200.000	-0.078	0.428
-350.493	762.005	-0.110	0.296
-349.479	418.688	-0.124	-0.264
-348.464	-34.611	-0.221	-0.120
-347.450	-16.493	-0.094	0.059
-346.435	70.641	0.049	0.051
-345.420	-47.420	-0.098	0.047
-344.406	-200.000	-0.070	0.344
-343.391	-2.003	0.211	-0.147
-342.377	-200.000	-0.032	0.333
-341.362	6.488	0.398	-0.293
-340.348	-159.569	0.130	-0.007
-339.333	800.000	0.016	-0.059
-338.318	25.841	-0.214	0.177
-337.304	-162.652	0.328	-0.016
-336.289	-103.172	-0.221	0.052
-335.275	-82.968	0.140	-0.045
-334.260	101.109	0.154	0.178
-333.245	115.439	-0.204	-0.247
-332.231	-200.000	-0.011	-0.311
-331.216	-200.000	0.055	-0.254
-330.202	-139.251	-0.195	0.021
-329.187	327.525	-0.095	-0.180
-328.172	-118.058	0.162	0.029
-327.158	29.694	-0.066	0.056
-326.143	73.592	-0.116	-0.121
-325.129	450.926	0.121	-0.265
-324.114	-127.910	0.182	0.026
-323.099	-165.174	-0.086	0.004
-322.085	-200.000	-0.007	-0.085
-321.070	-174.931	0.237	0.007
-320.056	125.553	0.173	-0.216
-319.041	-11.271	-0.293	-0.191
-318.026	800.000	-0.042	-0.126
-317.012	-20.184	0.328	-0.200
-315.997	-200.000	0.014	-0.258
-314.983	-200.000	0.106	0.582
-313.968	6.225	0.230	-0.169
-312.953	23.401	-0.034	0.028
-311.939	119.877	0.160	-0.196
-310.924	-60.768	-0.098	-0.041
-309.910	800.000	-0.016	0.068
-308.895	106.837	0.136	0.160
-307.880	-120.608	0.576	-0.097
-306.866	177.719	0.223	0.322
-305.851	-200.000	0.065	0.302
-304.837	-200.000	-0.028	0.184
-303.822	-81.636	0.185	-0.060
-302.807	366.041	0.195	-0.389
-301.793	-179.273	-0.047	0.001
-300.778	45.216	-0.154	-0.141
-299.764	61.492	0.021	-0.021
-298.749	307.889	0.070	0.130
-297.735	55.653	0.213	0.204
-296.720	93.090	-0.268	-0.300
-295.705	332.212	-0.119	-0.227
-294.691	77.427	-0.239	-0.251
-293.676	-200.000	0.025	0.232
-292.662	-195.097	-0.263	0.002
-291.647	217.610	-0.237	0.375
-290.632	78.533	0.163	0.173
-289.618	74.706	0.191	0.199
-288.603	-29.788	-0.341	0.193
-287.589	-92.893	-0.265	0.073
-286.574	419.585	0.147	0.311
-285.559	-84.473	-0.105	0.033
-284.545	493.379	-0.105	0.238
-283.530	43.080	0.114	0.103
-282.516	-141.264	-0.193	-0.019
-281.501	35.428	-0.077	-0.067
-280.486	-200.000	0.035	0.184
-279.472	97.018	0.306	-0.347
-278.457	518.803	0.113	0.262
-277.443	51.821	0.210	0.197
-276.428	188.064	-0.050	-0.074
-275.413	-56.845	0.409	-0.179
-274.399	46.230	-0.191	-0.175
-273.384	484.428	0.030	-0.069
-272.370	703.332	-0.088	0.230
-271.355	30.129	0.150	-0.126
-270.340	-200.000	0.027	-0.307
-269.326	308.950	-0.047	-0.086
-268.311	-92.129	-0.276	0.077
-267.297	82.304	0.126	-0.135
-266.282	800.000	0.049	-0.207
-265.267	-39.644	0.152	-0.078
-264.253	43.778	-0.090	-0.081
-263.238	-26.845	-0.187	0.108
-262.224	-72.340	-0.189	-0.069
-261.209	68.396	-0.221	0.224
-260.195	-200.000	0.040	0.394
-259.180	5.889	0.007	0.005
-258.165	-46.496	0.140	-0.068
-257.151	455.689	0.077	-0.168
-256.136	416.724	0.100	0.212
-255.122	658.605	-0.133	0.338
-254.107	-200.000	-0.018	-0.335
-253.092	711.427	-0.142	-0.372
-252.078	363.106	0.147	-0.292
-251.063	113.500	-0.222	-0.266
-250.049	-107.775	-0.360	-0.078
-249.034	800.000	0.087	0.355
-248.019	100.272	0.266	0.305
-247.005	800.000	0.050	0.145
-245.990	-114.749	-0.080	-0.015
-244.976	-14.549	0.149	0.095
-243.961	-200.000	0.009	-0.151
-242.946	166.175	-0.055	0.077
-241.932	47.866	0.215	-0.199
-240.917	61.209	-0.031	-0.030
-239.903	-75.018	-0.132	-0.047
-238.888	94.569	-0.032	-0.036
-237.873	-129.417	0.156	0.021
-236.859	-200.000	0.030	-0.218
-235.844	642.094	0.016	-0.041
-234.830	-83.852	-0.356	-0.112
-233.815	175.956	0.200	0.287
-232.800	61.029	0.276	-0.270
-231.786	210.127	0.094	-0.145
-230.771	-99.885	-0.129	-0.032
-229.757	-97.651	0.128	0.033
-228.742	-200.000	-0.033	0.244
-227.727	-78.377	-0.150	0.051
-226.713	25.179	0.226	-0.185
-225.698	-155.978	0.366	0.023
-224.684	209.146	-0.196	-0.302
-223.669	511.874	-0.005	-0.012
-222.655	6.352	0.172	0.126
-221.640	3.873	-0.085	-0.061
-220.625	-103.934	0.204	0.047
-219.611	-9.407	-0.180	-0.119
-218.596	70.954	0.279	-0.285
-217.582	-64.407	0.293	0.118
-216.567	117.673	-0.146	0.178
-215.552	129.076	-0.048	-0.061
-214.538	-57.260	-0.038	0.017
-213.523	-122.841	-0.195	0.031
-212.509	464.009	0.102	-0.225
-211.494	8.739	0.173	0.129
-210.479	76.238	0.217	0.227
-209.465	72.629	0.042	-0.043
-208.450	421.203	-0.053	-0.112
-207.436	-117.778	0.232	0.041
-206.421	178.404	0.149	-0.215
-205.406	-200.000	-0.019	-0.086
-204.392	-200.000	-0.028	0.365
-203.377	111.983	0.036	0.042
-202.363	-45.860	-0.236	0.115
-201.348	-200.000	-0.012	0.489
-200.333	361.322	0.055	0.109
-199.319	-7.544	-0.187	-0.125
-198.304	-22.182	0.247	0.148
-197.290	-200.000	-0.034	-0.148
-196.275	-46.683	-0.296	0.143
-195.260	800.000	0.120	-0.406
-194.246	800.000	-0.037	-0.133
-193.231	132.414	-0.140	-0.178
-192.217	-47.249	0.107	-0.051
-191.202	295.089	0.236	0.426
-190.187	-135.760	0.183	-0.021
-189.173	569.908	-0.078	0.188
-188.158	800.000	0.043	0.155
-187.144	-26.438	0.361	-0.209
-186.129	-200.000	-0.014	0.186
-185.114	49.571	0.107	-0.100
-184.100	800.000	-0.065	0.274
-183.085	-200.000	0.033	0.163
-182.071	-75.471	0.252	0.088
-181.056	-85.510	0.175	0.054
-180.042	95.892	0.097	0.109
-179.027	12.421	-0.300	0.228
-178.012	-59.411	0.095	-0.040
-176.998	-125.706	-0.272	0.041
-175.983	-200.000	0.022	-0.146
-174.969	92.222	-0.118	-0.131
-173.954	800.000	0.103	-0.372
-172.939	-6.637	-0.044	-0.029
-171.925	71.250	0.192	0.197
-170.910	-200.000	-0.022	-0.128
-169.896	220.774	-0.105	0.166
-168.881	680.791	-0.090	0.230
-167.866	-18.786	0.409	-0.251
-166.852	800.000	-0.049	-0.206
-165.837	-147.073	0.444	-0.037
-164.823	-109.807	-0.183	0.038
-163.808	298.960	-0.106	0.192
-162.793	350.445	0.078	0.152
-161.779	800.000	0.057	-0.192
-160.764	-126.308	0.074	0.011
-159.750	144.493	-0.140	0.184
-158.735	-98.698	0.054	-0.013
-157.720	-100.629	-0.114	0.028
-156.706	372.109	0.040	-0.081
-155.691	-119.711	-0.311	-0.053
-154.677	-30.502	0.180	0.100
-153.662	104.074	-0.201	-0.233
-152.647	-200.000	-0.074	0.409
-151.633	185.273	0.166	-0.242
-150.618	800.000	0.075	-0.315
-149.604	36.246	-0.255	-0.221
-148.589	-200.000	0.053	-0.538
-147.574	-34.604	-0.256	0.138
-146.560	-50.492	0.064	0.030
-145.545	-56.001	0.291	0.128
-144.531	140.520	0.093	-0.121
-143.516	16.469	-0.114	-0.089
-142.502	175.356	0.015	0.021
-141.487	-90.688	0.219	-0.062
-140.472	220.946	-0.215	-0.339
-139.458	-148.122	0.308	-0.025
-138.443	506.641	0.089	0.203
-137.429	-117.628	-0.235	-0.042
-136.414	-70.381	0.144	-0.054
-135.399	192.224	-0.152	0.225
-134.385	27.185	0.117	-0.097
-133.370	85.749	-0.198	0.214
-132.356	-9.561	0.118	0.077
-131.341	-134.634	0.107	0.013
-130.326	373.650	-0.033	-0.066
-129.312	512.906	0.096	0.220
-128.297	800.000	0.121	0.424
-127.283	-200.000	0.085	0.427
-126.268	-5.896	0.206	0.138
-125.253	55.874	0.223	0.213
-124.239	-33.164	-0.364	0.198
-123.224	226.729	0.205	0.328
-122.210	-200.000	-0.021	0.139
-121.195	-85.903	-0.269	-0.082
-120.180	78.101	-0.118	-0.124
-119.166	800.000	-0.042	-0.116
-118.151	-200.000	0.001	-0.135
-117.137	800.000	0.113	-0.370
-116.122	141.030	0.258	-0.335
-115.107	-71.633	-0.247	0.091
-114.093	63.288	-0.150	0.148
-113.078	-200.000	-0.024	0.241
-112.064	-1.964	-0.101	-0.069
-111.049	98.838	-0.050	0.056
-110.034	-94.909	0.103	0.027
-109.020	627.785	-0.134	-0.333
-108.005	11.713	0.197	0.148
-106.991	21.203	-0.117	0.093
-105.976	59.217	0.249	0.241
-104.962	117.652	0.263	0.319
-103.947	-99.406	-0.086	0.021
-102.932	-72.470	-0.255	0.093
-101.918	-200.000	-0.050	0.243
-100.903	-200.000	0.043	-0.200
-99.889	-30.102	0.289	0.161
-98.874	-28.958	-0.082	0.046
-97.859	-200.000	0.025	-0.132
-96.845	27.391	0.141	0.116
-95.830	324.366	-0.022	-0.042
-94.816	-92.348	0.090	-0.025
-93.801	-69.060	0.162	0.061
-92.786	-143.904	-0.156	-0.014
-91.772	-155.454	-0.045	0.003
-90.757	-200.000	-0.005	0.150
-89.743	800.000	0.085	0.346
-88.728	-25.571	-0.291	0.169
-87.713	-75.597	0.225	-0.079
-86.699	368.218	0.084	-0.168
-85.684	-28.508	0.235	-0.133
-84.670	71.803	0.189	-0.193
-83.655	56.540	0.122	-0.116
-82.640	-111.734	0.030	-0.006
-81.626	107.275	-0.156	-0.182
-80.611	100.181	0.165	0.187
-79.597	327.750	-0.122	0.229
-78.582	0.304	0.134	0.094
-77.567	-125.479	0.255	-0.038
-76.553	800.000	0.145	-0.411
-75.538	487.298	0.102	-0.229
-74.524	43.327	0.091	0.082
-73.509	605.566	-0.090	0.219
-72.494	-200.000	-0.037	0.164
-71.480	171.488	0.201	0.284
-70.465	115.133	-0.311	0.373
-69.451	-200.000	-0.026	-0.111
-68.436	-138.950	-0.474	0.051
-67.422	284.626	-0.076	-0.135
-66.407	-15.223	0.172	0.108
-65.392	177.250	-0.138	0.198
-64.378	164.083	0.134	-0.185
-63.363	486.830	0.031	0.069
-62.349	-103.363	-0.417	0.096
-61.334	11.480	-1.198	-0.901
-60.319	-77.001	0.558	0.191
-59.305	-200.000	0.067	-1.081
-58.290	168.263	0.853	1.192
-57.276	800.000	0.460	1.563
-56.261	-200.000	108.376	636.779
-55.246	477.609	1487.479	3301.550
-54.232	146.816	2668.350	3518.790
-53.217	111.241	2154.544	2546.814
-52.203	42.672	1610.163	1438.042
-51.188	34.467	1353.064	1158.783
-50.173	31.287	1312.302	1105.055
-49.159	58.290	1365.981	1313.555
-48.144	58.672	1381.777	1330.983
-47.130	34.599	1336.898	1145.548
-46.115	31.025	1319.775	1109.608
-45.100	30.774	1314.456	1103.605
-44.086	30.703	1312.390	1101.410
-43.071	30.751	1309.692	1099.381
-42.057	30.620	1307.847	1097.016
-41.042	30.800	1305.892	1096.395
-40.027	30.680	1304.802	1094.729
-39.013	30.786	1302.472	1093.354
-37.998	30.736	1300.813	1091.627
-36.984	30.754	1299.454	1090.547
-35.969	30.792	1297.515	1089.102
-34.954	30.925	1295.620	1088.244
-33.940	30.715	1294.616	1086.131
-32.925	30.863	1293.185	1085.750
-31.911	30.955	1291.718	1085.010
-30.896	30.975	1290.202	1083.808
-29.881	30.922	1289.093	1082.529
-28.867	31.014	1287.314	1081.523
-27.852	30.961	1286.002	1080.072
-26.838	30.886	1284.526	1078.356
-25.823	30.938	1283.238	1077.531
-24.809	30.812	1282.500	1076.140
-23.794	30.802	1281.134	1074.893
-22.779	30.797	1279.710	1073.630
-21.765	30.865	1278.236	1072.738
-20.750	30.900	1276.808	1071.703
-19.736	30.780	1276.091	1070.366
-18.721	30.702	1274.791	1068.785
-17.706	30.663	1273.941	1067.809
-16.692	30.607	1272.614	1066.332
-15.677	30.779	1271.094	1066.001
-14.663	30.841	1269.671	1065.120
-13.648	30.774	1268.974	1064.112
-12.633	30.787	1267.969	1063.296
-11.619	30.591	1267.330	1061.603
-10.604	30.722	1266.269	1061.416
-9.590	30.739	1265.229	1060.601
-8.575	30.766	1264.396	1060.011
-7.560	30.686	1264.005	1059.190
-6.546	30.698	1262.632	1058.066
-5.531	30.780	1261.897	1057.871
-4.517	30.835	1260.681	1057.125
-3.502	30.783	1259.980	1056.201
-2.487	30.762	1258.978	1055.197
-1.473	30.759	1254.754	1051.600
-0.458	28.253	1238.543	1023.975
0.556	22.690	1218.940	976.029
1.571	17.573	1222.872	950.606
2.586	16.306	1236.945	954.303
3.600	15.828	1225.791	942.939
4.615	11.914	1155.223	867.871
5.629	4.833	1081.589	777.242
6.644	1.036	1062.496	744.812
7.659	0.904	1060.163	742.465
8.673	0.865	1059.083	741.452
9.688	0.964	1057.817	740.985
10.702	1.133	1055.774	740.313
11.717	5.220	1060.864	763.837
12.731	12.650	1070.397	807.184
13.746	17.013	1075.148	832.141
14.761	17.681	1075.597	835.691
15.775	16.795	1074.304	830.274
16.790	15.759	1072.497	823.728
17.804	15.108	1070.677	819.075
18.819	14.783	1069.572	816.570
19.834	14.499	1068.539	814.324
20.848	14.268	1067.784	812.550
21.863	13.901	1067.384	810.379
22.877	13.851	1066.176	809.150
23.892	13.748	1065.680	808.200
24.907	13.941	1064.449	808.134
25.921	13.854	1064.148	807.410
26.936	13.903	1062.778	806.538
27.950	13.882	1061.793	805.617
28.965	13.899	1060.738	804.826
29.980	13.890	1059.851	804.040
30.994	13.980	1058.606	803.459
32.009	14.080	1057.406	802.959
33.023	14.118	1056.025	802.022
34.038	14.084	1055.362	801.287
35.053	13.938	1054.527	799.876
36.067	13.990	1053.792	799.497
37.082	13.867	1052.878	798.143
38.096	14.036	1051.787	798.058
39.111	13.968	1051.231	797.237
40.126	13.941	1050.147	796.216
41.140	13.934	1048.729	795.040
42.155	13.884	1048.146	794.287
43.169	13.717	1047.194	792.695
44.184	13.769	1045.707	791.750
45.199	13.871	1044.562	791.297
46.213	13.892	1043.631	790.622
47.228	13.894	1042.983	790.072
48.242	13.820	1042.076	788.962
49.257	13.955	1040.706	788.497
50.271	13.900	1039.676	787.387
51.286	13.828	1039.500	786.839
52.301	13.912	1038.433	786.361
53.315	13.912	1037.135	785.310
54.330	13.886	1035.811	784.113
55.344	13.910	1035.439	783.874
56.359	13.905	1034.594	783.143
57.374	13.826	1033.799	782.101
58.388	13.843	1032.670	781.256
59.403	13.812	1031.632	780.256
60.417	13.725	1031.127	779.397
61.432	13.685	1030.150	778.401
62.447	13.717	1029.496	777.991
63.461	13.703	1028.882	777.390
64.476	13.808	1027.592	776.839
65.490	13.748	1027.072	776.098
66.505	13.832	1026.003	775.612
67.520	13.836	1025.718	775.349
68.534	13.857	1024.875	774.739
69.549	13.835	1023.982	773.895
70.563	13.782	1023.328	773.084
71.578	13.671	1023.022	772.266
72.593	13.763	1021.747	771.667
73.607	13.634	1021.275	770.640
74.622	13.765	1020.359	770.490
75.636	13.733	1019.524	769.643
76.651	13.727	1018.975	769.130
77.666	13.736	1018.438	768.697
78.680	13.704	1017.715	767.939
79.695	13.703	1016.945	767.285
80.709	13.781	1016.564	767.288
81.724	13.817	1015.676	766.717
82.739	13.819	1015.110	766.233
83.753	13.870	1014.320	765.802
84.768	14.000	1012.953	765.299
85.782	14.005	1012.376	764.823
86.797	14.019	1011.336	764.032
87.812	14.039	1010.405	763.354
88.826	13.979	1009.249	762.136
89.841	13.943	1008.766	761.539
90.855	13.993	1007.803	760.974
91.870	13.899	1007.039	759.901
92.884	13.952	1006.342	759.548
93.899	14.065	1005.283	759.198
94.914	14.108	1004.572	758.790
95.928	13.985	1003.603	757.433
96.943	14.074	1002.704	757.090
97.957	13.985	1002.182	756.224
98.972	13.945	1001.639	755.567
99.987	14.029	1000.711	755.182
101.001	13.946	999.295	753.671
102.016	14.121	998.555	753.840
103.030	14.093	997.710	753.006
104.045	14.188	996.867	752.732
105.060	14.078	995.930	751.463
106.074	13.834	995.481	749.956
107.089	14.005	993.899	749.467
108.103	13.810	993.664	748.345
109.118	13.922	992.244	747.714
110.133	13.974	991.577	747.376
111.147	13.928	990.340	746.174
112.162	13.911	989.819	745.641
113.176	14.008	989.162	745.511
114.191	14.051	988.263	744.963
115.206	13.916	987.938	744.045
116.220	13.997	986.879	743.543
117.235	13.961	985.952	742.621
118.249	13.945	985.585	742.207
119.264	13.951	984.578	741.407
120.279	14.036	983.914	741.223
121.293	13.934	983.160	740.133
122.308	13.841	982.106	738.862
123.322	13.887	981.273	738.373
124.337	13.989	980.284	738.019
125.352	14.051	978.834	737.137
126.366	13.981	977.801	735.985
127.381	13.989	976.857	735.241
128.395	13.985	976.034	734.540
129.410	14.046	975.103	734.043
130.424	13.961	973.882	732.684
131.439	13.948	973.545	732.309
132.454	14.040	973.248	732.425
133.468	13.958	972.115	731.147
134.483	14.036	970.901	730.514
135.497	14.083	970.352	730.244
136.512	14.126	969.107	729.429
137.527	14.080	968.443	728.662
138.541	13.998	967.898	727.832
139.556	14.095	967.176	727.648
140.570	14.085	966.661	727.150
141.585	14.154	965.543	726.545
142.600	14.234	964.307	725.901
143.614	14.253	963.777	725.521
144.629	14.252	963.329	725.115
145.643	14.201	962.267	724.032
146.658	14.244	961.607	723.655
147.673	14.123	960.467	722.210
148.687	14.131	959.490	721.445
149.702	14.189	958.581	720.951
150.716	14.138	958.065	720.275
151.731	14.166	957.331	719.784
152.746	14.171	956.529	719.139
153.760	14.021	956.073	718.084
154.775	14.283	955.334	718.596
155.789	14.221	954.590	717.704
156.804	14.155	954.158	717.032
157.819	14.288	953.005	716.674
158.833	14.365	952.291	716.404
159.848	14.338	952.049	716.044
160.862	14.298	951.099	715.095
161.877	14.207	949.978	713.797
162.892	14.266	949.028	713.274
163.906	14.108	948.417	712.076
164.921	14.291	947.291	711.949
165.935	14.316	946.367	711.297
166.950	14.292	945.765	710.680
167.964	14.155	944.957	709.427
168.979	14.376	943.609	709.294
169.994	14.251	942.972	708.220
171.008	14.304	942.521	708.043
172.023	14.419	941.537	707.727
173.037	14.468	940.659	707.215
174.052	14.471	940.055	706.713
175.067	14.475	939.311	706.104
176.081	14.377	939.165	705.517
177.096	14.461	938.432	705.260
178.110	14.300	937.903	704.122
179.125	14.485	937.132	704.260
180.140	14.434	936.633	703.610
181.154	14.571	936.163	703.772
182.169	14.633	935.303	703.324
183.183	14.545	935.352	702.927
184.198	14.530	934.511	702.170
185.213	14.522	933.728	701.484
186.227	14.701	932.655	701.371
187.242	14.667	932.113	700.758
188.256	14.466	931.887	699.682
189.271	14.574	930.934	699.357
190.286	14.533	930.116	698.510
191.300	14.409	929.678	697.600
192.315	14.451	928.916	697.143
193.329	14.520	928.203	696.832
194.344	14.584	927.624	696.605
195.359	14.614	927.001	696.199
196.373	14.555	926.580	695.574
197.388	14.702	925.618	695.402
198.402	14.887	925.205	695.803
199.417	14.847	924.304	694.897
200.432	14.787	923.752	694.172
201.446	14.868	923.638	694.361
202.461	14.918	922.848	693.910
203.475	14.877	922.254	693.233
204.490	14.854	921.616	692.599
205.504	14.682	921.529	691.761
206.519	14.865	920.376	691.591
207.534	14.796	919.741	690.765
208.548	14.864	918.906	690.358
209.563	14.739	918.253	689.289
210.577	14.834	918.089	689.498
211.592	14.891	916.806	688.709
212.607	15.095	915.869	688.785
213.621	15.048	915.450	688.212
214.636	14.946	914.698	687.167
215.650	14.984	914.308	686.973
216.665	15.002	913.536	686.402
217.680	14.942	912.871	685.599
218.694	15.127	911.817	685.503
219.709	15.052	911.203	684.673
220.723	15.054	910.585	684.158
221.738	15.033	910.292	683.792
222.753	15.074	909.547	683.337
223.767	15.046	908.890	682.670
224.782	15.224	908.350	682.930
225.796	15.338	907.197	682.464
226.811	15.098	907.001	681.280
227.826	15.114	906.161	680.656
228.840	15.132	905.607	680.251
229.855	15.075	904.986	679.493
230.869	15.191	903.983	679.151
231.884	15.031	903.455	678.047
232.899	15.240	902.427	678.061
233.913	15.081	901.811	676.894
234.928	15.079	901.377	676.502
235.942	15.179	900.869	676.464
236.957	15.157	900.248	675.848
237.972	15.173	899.567	675.343
238.986	15.201	898.633	674.692
240.001	15.400	897.890	674.879
241.015	15.291	897.375	673.991
242.030	15.138	897.099	673.110
243.045	15.352	896.618	673.547
244.059	15.313	896.057	672.913
245.074	15.283	895.456	672.282
246.088	15.378	894.831	672.130
247.103	15.379	894.154	671.570
248.117	15.493	893.661	671.596
249.132	15.578	892.872	671.281
250.147	15.482	892.316	670.419
251.161	15.527	891.677	670.062
252.176	15.591	891.055	669.789
253.190	15.606	890.256	669.189
254.205	15.627	889.228	668.440
255.220	15.688	888.796	668.300
256.234	15.510	888.621	667.403
257.249	15.754	887.399	667.394
258.263	15.697	886.685	666.572
259.278	15.676	885.996	665.912
260.293	15.715	885.590	665.701
261.307	15.800	885.025	665.556
262.322	15.684	884.693	664.785
263.336	15.905	883.630	664.801
264.351	15.771	883.000	663.740
265.366	15.851	882.504	663.624
266.380	15.957	881.784	663.443
267.395	15.921	881.511	663.036
268.409	15.774	880.521	661.655
269.424	15.858	879.462	661.129
270.439	15.832	878.963	660.592
271.453	15.937	878.296	660.445
272.468	15.856	877.553	659.512
273.482	15.883	877.257	659.337
274.497	15.956	876.503	658.999
275.512	15.909	875.881	658.288
276.526	16.035	875.263	658.256
277.541	16.005	874.903	657.811
278.555	16.041	874.187	657.354
279.570	16.152	873.447	657.175
280.585	16.141	872.817	656.597
281.599	16.073	872.185	655.801
282.614	16.079	871.543	655.281
283.628	16.036	870.854	654.540
284.643	16.062	870.527	654.336
285.657	16.130	869.584	653.832
286.672	16.231	868.465	653.325
287.687	16.160	868.446	652.980
288.701	16.070	867.952	652.201
289.716	16.238	867.395	652.374
290.730	16.164	866.764	651.557
291.745	16.154	866.143	650.991
292.760	16.246	865.403	650.735
293.774	16.315	864.708	650.421
294.789	16.266	864.140	649.745
295.803	16.219	863.408	648.957
296.818	16.310	862.580	648.629
297.833	16.371	862.031	648.389
298.847	16.288	861.647	647.727
299.862	16.253	861.126	647.145
300.876	16.403	860.264	647.013
301.891	16.364	859.779	646.440
302.906	16.478	859.467	646.587
303.920	16.541	858.541	646.071
304.935	16.625	857.953	645.894
305.949	16.319	857.844	644.587
306.964	16.383	857.531	644.539
307.979	16.349	856.603	643.654
308.993	16.495	855.742	643.505
310.008	16.569	854.928	643.120
311.022	16.542	854.699	642.788
312.037	16.509	854.369	642.356
313.052	16.454	853.901	641.739
314.066	16.478	853.377	641.378
315.081	16.297	852.882	640.266
316.095	16.540	851.534	640.116
317.110	16.465	851.359	639.645
318.125	16.486	850.873	639.299
319.139	16.586	850.232	639.140
320.154	16.634	849.586	638.781
321.168	16.651	848.821	638.213
322.183	16.512	848.517	637.404
323.197	16.648	848.066	637.519
324.212	16.704	847.623	637.343
325.227	16.762	847.046	637.071
326.241	16.715	846.392	636.345
327.256	16.571	846.088	635.521
328.270	16.706	845.097	635.223
329.285	16.596	844.919	634.622
330.300	16.667	844.319	634.382
331.314	16.764	843.709	634.230
332.329	16.673	843.281	633.512
333.343	16.748	843.053	633.566
334.358	16.730	842.592	633.096
335.373	16.784	841.922	632.737
336.387	16.768	841.532	632.331
337.402	16.815	841.575	632.480
338.416	16.986	840.922	632.570
339.431	16.859	840.665	631.850
340.446	16.915	840.236	631.677
341.460	16.980	839.798	631.534
342.475	16.936	839.385	631.005
343.489	17.059	838.766	630.942
344.504	17.037	838.492	630.598
345.519	17.058	837.759	630.067
346.533	17.035	837.491	629.728
347.548	16.948	836.897	628.903
348.562	17.057	836.332	628.825
349.577	17.120	835.555	628.420
350.592	17.070	835.191	627.904
351.606	17.075	834.379	627.258
352.621	17.064	833.781	626.712
353.635	17.058	833.124	626.137
354.650	17.146	832.124	625.658
355.665	17.199	831.644	625.436
356.679	17.103	830.903	624.470
357.694	17.076	831.014	624.400
358.708	17.292	829.869	624.277
359.723	17.281	829.193	623.673
360.738	17.241	828.909	623.259
361.752	17.188	828.527	622.720
362.767	17.210	827.940	622.305
363.781	17.158	827.423	621.672
364.796	17.437	826.902	622.244
365.810	17.344	826.382	621.457
366.825	17.408	826.135	621.451
367.840	17.420	825.462	620.936
368.854	17.487	824.749	620.587
369.869	17.439	824.508	620.175
370.883	17.551	823.835	620.024
371.898	17.397	823.918	619.470
372.913	17.558	823.065	619.360
373.927	17.530	822.775	618.985
374.942	17.485	822.387	618.474
375.956	17.603	822.091	618.626
376.971	17.472	821.712	617.809
377.986	17.592	821.439	617.985
379.000	17.665	820.476	617.471
380.015	17.740	819.830	617.201
381.029	17.691	819.469	616.695
382.044	17.759	818.771	616.362
383.059	17.638	818.310	615.524
384.073	17.769	818.082	615.772
385.088	17.764	817.355	615.152
386.102	17.739	816.521	614.380
387.117	17.709	815.957	613.794
388.132	17.685	815.395	613.231
389.146	17.772	814.793	613.035
390.161	17.733	814.350	612.507
391.175	17.829	814.157	612.653
392.190	17.731	813.671	611.883
393.205	17.739	812.965	611.324
394.219	17.849	812.475	611.295
395.234	17.802	812.673	611.223
396.248	17.640	812.025	610.101
397.263	17.730	811.325	609.844
398.278	17.709	811.443	609.802
399.292	17.794	810.460	609.313
400.307	17.866	810.074	609.228
401.321	17.806	810.100	608.978
402.336	17.820	809.326	608.392
403.350	17.848	808.881	608.103
404.365	17.960	808.145	607.896
405.380	17.899	808.215	607.678
406.394	18.065	807.414	607.612
407.409	18.060	806.793	607.074
408.423	18.049	806.785	606.976
409.438	18.044	806.006	606.318
410.453	18.044	805.869	606.161
411.467	18.108	805.527	606.075
412.482	18.209	805.047	606.018
413.496	18.288	804.639	605.936
414.511	18.091	804.474	605.063
415.526	18.233	803.807	605.010
416.540	18.240	803.231	604.548
417.555	18.246	802.991	604.335
418.569	18.205	802.514	603.777
419.584	18.204	802.007	603.338
420.599	18.135	801.563	602.708
421.613	111.598	1293.296	1470.793
422.628	96.205	1364.926	1470.895
