DTS Sentinel unit serial number:	SN413079Multiplexer serial number:	ORYXHardware model number:	OX4-SRSoftware version number:	ORYX F/W v4.00 Oryx Data Collector v3.7.2.0data status	okinstallation	princeton_trtdifferential loss correction	single-endedforward channel	channel 1reverse channel	N/Adate	2019/09/12time	03:48:11forward acquisition time	60.00reverse acquisition time	0.00gamma	496.2192k internal	0.2322k external	0.2322temperature offset calibration	1.0079default loss term (dB/km)	0.3790temperature slope calibration	1.0000multiplexer offset coefficient	1.0000multiplexer slope coefficient	1.0000fibre end	0.00T internal ref (°C)	32.14T ext. ref 1 (°C)	2.14T ext. ref 2 (°C)	27.20length (m)	temperature (°C)	Stokes	anti-Stokes-747.200	-200.000	0.031	0.351
-746.185	592.431	0.102	0.254
-745.171	-200.000	-0.011	-0.195
-744.156	-135.931	-0.324	0.039
-743.142	652.758	-0.040	-0.103
-742.127	-152.886	-0.296	0.021
-741.112	-19.461	-0.285	0.179
-740.098	800.000	0.052	0.181
-739.083	-140.816	-0.253	-0.026
-738.069	35.249	-0.119	-0.106
-737.054	-9.395	-0.071	-0.048
-736.039	42.730	0.179	0.164
-735.025	93.588	0.318	0.364
-734.010	-49.316	-0.173	-0.083
-732.996	435.230	0.087	-0.191
-731.981	435.326	-0.112	-0.247
-730.966	542.806	0.016	0.038
-729.952	306.346	0.122	0.229
-728.937	430.266	-0.240	-0.524
-727.923	140.763	-0.126	-0.168
-726.908	-100.942	0.114	0.028
-725.894	-51.731	-0.491	0.231
-724.879	154.943	0.207	0.287
-723.864	246.255	-0.109	-0.185
-722.850	-111.429	-0.137	-0.028
-721.835	291.781	0.089	0.163
-720.821	98.658	-0.097	0.113
-719.806	116.219	-0.276	0.341
-718.791	206.189	0.118	0.186
-717.777	113.658	-0.203	0.248
-716.762	-40.033	-0.410	0.216
-715.748	133.797	0.061	-0.080
-714.733	24.272	-0.169	0.141
-713.718	698.089	-0.079	-0.209
-712.704	800.000	0.074	-0.256
-711.689	-5.127	-0.263	-0.182
-710.675	-200.000	0.053	0.447
-709.660	31.416	-0.089	0.077
-708.645	-200.000	-0.016	-0.171
-707.631	-8.142	0.191	0.130
-706.616	-83.804	0.140	-0.045
-705.602	3.338	-0.140	-0.103
-704.587	-23.297	-0.224	0.136
-703.572	307.425	-0.073	0.138
-702.558	-6.797	-0.305	-0.209
-701.543	370.766	0.032	-0.066
-700.529	800.000	-0.083	0.359
-699.514	-56.217	0.249	0.112
-698.499	-63.126	-0.265	-0.110
-697.485	800.000	-0.096	0.294
-696.470	800.000	-0.079	0.294
-695.456	341.885	-0.086	-0.169
-694.441	-97.832	0.042	-0.011
-693.426	800.000	0.114	-0.437
-692.412	234.686	-0.145	-0.242
-691.397	-101.862	0.207	0.050
-690.383	5.402	-0.209	-0.155
-689.368	20.611	0.228	0.186
-688.354	104.277	0.130	-0.154
-687.339	-200.000	0.012	0.066
-686.324	22.177	-0.071	-0.059
-685.310	-83.695	0.244	-0.079
-684.295	-78.741	0.147	0.051
-683.281	-200.000	0.014	-0.187
-682.266	94.798	0.041	-0.048
-681.251	2.426	-0.289	-0.211
-680.237	-35.650	-0.075	0.041
-679.222	21.142	0.079	-0.064
-678.208	-200.000	0.025	-0.147
-677.193	-111.886	-0.300	0.061
-676.178	-143.768	0.033	0.003
-675.164	-37.085	-0.084	-0.045
-674.149	257.497	0.055	0.095
-673.135	50.912	0.107	-0.102
-672.120	-85.390	-0.054	-0.017
-671.105	800.000	-0.004	-0.013
-670.091	-56.966	-0.094	0.042
-669.076	800.000	-0.103	-0.442
-668.062	229.637	-0.131	0.216
-667.047	226.736	-0.071	-0.115
-666.032	26.008	-0.065	0.055
-665.018	800.000	0.177	0.518
-664.003	-21.536	0.133	0.082
-662.989	130.866	0.139	0.180
-661.974	-200.000	-0.029	0.386
-660.959	104.687	-0.016	0.019
-659.945	-33.289	0.197	-0.110
-658.930	-141.126	-0.282	0.029
-657.916	12.315	0.402	-0.312
-656.901	800.000	-0.090	0.288
-655.886	-149.171	0.223	-0.018
-654.872	-79.859	-0.215	-0.073
-653.857	152.479	-0.101	0.139
-652.843	-54.387	-0.235	-0.107
-651.828	779.531	-0.089	-0.245
-650.814	-185.155	-0.214	0.003
-649.799	118.165	-0.297	0.369
-648.784	-39.493	0.286	-0.151
-647.770	-200.000	-0.009	0.048
-646.755	-107.684	-0.371	0.082
-645.741	-200.000	-0.024	0.187
-644.726	800.000	0.058	0.218
-643.711	-3.145	-0.183	-0.128
-642.697	-30.742	-0.141	0.080
-641.682	458.090	0.069	0.155
-640.668	41.279	0.245	-0.223
-639.653	-200.000	0.009	-0.080
-638.638	800.000	-0.015	-0.049
-637.624	800.000	0.060	0.183
-636.609	256.313	-0.196	0.338
-635.595	800.000	0.052	-0.167
-634.580	9.733	0.101	-0.077
-633.565	338.079	0.105	-0.206
-632.551	598.026	-0.004	-0.010
-631.536	-57.545	-0.362	-0.160
-630.522	-16.167	0.117	0.075
-629.507	491.579	0.049	-0.114
-628.492	-104.140	-0.189	-0.044
-627.478	-29.361	-0.122	-0.070
-626.463	-92.559	0.038	-0.011
-625.449	91.471	0.056	-0.063
-624.434	99.668	-0.136	0.158
-623.419	-150.982	0.264	0.020
-622.405	50.260	-0.082	0.078
-621.390	-148.074	-0.239	0.020
-620.376	34.785	-0.231	0.203
-619.361	-101.800	-0.338	-0.082
-618.346	-2.940	-0.212	0.149
-617.332	351.914	0.003	-0.007
-616.317	800.000	-0.064	0.232
-615.303	33.244	0.109	-0.095
-614.288	-121.714	0.069	0.012
-613.273	14.668	0.060	-0.047
-612.259	-127.095	0.338	-0.050
-611.244	325.453	-0.101	-0.195
-610.230	6.620	0.217	-0.162
-609.215	333.239	0.146	0.285
-608.201	-60.300	-0.175	0.075
-607.186	612.821	-0.090	0.226
-606.171	-110.805	0.290	-0.060
-605.157	-200.000	-0.051	0.386
-604.142	-200.000	-0.022	0.111
-603.128	-161.867	0.230	0.012
-602.113	81.610	-0.117	0.127
-601.098	-55.018	-0.147	0.067
-600.084	624.002	0.125	0.317
-599.069	121.790	-0.168	-0.210
-598.055	-173.614	-0.171	0.005
-597.040	-67.812	-0.168	-0.066
-596.025	-18.301	0.259	0.163
-595.011	-104.235	0.003	0.001
-593.996	159.085	-0.156	-0.217
-592.982	134.858	-0.083	-0.108
-591.967	3.380	-0.482	0.352
-590.952	543.171	0.068	0.162
-589.938	-200.000	0.028	-0.437
-588.923	-67.885	0.333	0.131
-587.909	-93.310	-0.252	0.070
-586.894	-134.208	-0.273	-0.034
-585.879	-189.499	-0.122	0.001
-584.865	666.942	-0.089	-0.231
-583.850	-200.000	-0.021	0.107
-582.836	424.567	0.041	-0.088
-581.821	383.134	0.115	-0.238
-580.806	-200.000	-0.012	-0.331
-579.792	-1.452	0.152	-0.108
-578.777	-76.097	-0.168	0.060
-577.763	800.000	-0.050	0.189
-576.748	76.475	0.141	0.150
-575.733	143.211	0.121	0.162
-574.719	-100.006	-0.100	0.025
-573.704	-145.566	0.082	-0.007
-572.690	-117.245	-0.178	-0.033
-571.675	45.543	-0.026	0.024
-570.661	59.438	-0.067	-0.066
-569.646	522.775	-0.065	0.152
-568.631	-102.818	0.189	-0.045
-567.617	379.433	-0.080	-0.165
-566.602	800.000	0.108	-0.354
-565.588	-15.803	0.095	-0.061
-564.573	-127.086	0.208	0.031
-563.558	-36.883	-0.174	-0.094
-562.544	441.516	-0.091	0.201
-561.529	-74.683	-0.220	0.079
-560.515	-200.000	-0.051	-0.378
-559.500	-200.000	-0.058	-0.382
-558.485	-200.000	-0.021	0.286
-557.471	-146.846	0.293	0.025
-556.456	-136.225	0.158	0.019
-555.442	-95.834	0.142	0.038
-554.427	-5.109	0.219	-0.151
-553.412	-200.000	0.050	0.253
-552.398	-37.118	0.070	0.038
-551.383	-200.000	0.041	0.213
-550.369	-92.196	-0.153	0.043
-549.354	30.659	0.375	0.322
-548.339	182.669	0.126	0.187
-547.325	-200.000	0.005	-0.232
-546.310	-179.043	0.218	0.005
-545.296	-155.884	-0.271	-0.017
-544.281	-67.382	0.222	0.087
-543.266	341.115	0.203	0.399
-542.252	664.804	-0.034	0.088
-541.237	52.882	-0.298	-0.286
-540.223	-44.852	0.282	-0.141
-539.208	-200.000	0.024	-0.144
-538.193	148.609	0.137	-0.185
-537.179	-72.350	-0.218	-0.081
-536.164	-23.965	0.137	0.082
-535.150	92.738	-0.099	0.112
-534.135	37.414	0.087	0.077
-533.121	-200.000	-0.010	0.162
-532.106	800.000	-0.034	0.099
-531.091	800.000	0.053	0.180
-530.077	-27.269	0.229	-0.134
-529.062	418.218	-0.063	0.135
-528.048	800.000	0.060	0.243
-527.033	800.000	-0.037	0.107
-526.018	360.850	0.038	0.077
-525.004	-166.778	0.267	-0.011
-523.989	230.601	-0.125	0.205
-522.975	-4.009	-0.109	0.076
-521.960	-98.209	0.080	0.021
-520.945	800.000	-0.056	-0.201
-519.931	25.848	0.094	-0.078
-518.916	-86.633	-0.386	0.118
-517.902	-153.198	-0.206	-0.014
-516.887	-69.321	-0.128	-0.049
-515.872	133.998	0.144	-0.187
-514.858	-74.305	0.258	-0.093
-513.843	-12.749	-0.359	0.234
-512.829	160.960	-0.067	0.094
-511.814	-200.000	-0.030	0.141
-510.799	800.000	0.122	-0.432
-509.785	-118.958	-0.297	-0.052
-508.770	-135.537	0.247	-0.029
-507.756	236.118	0.101	-0.167
-506.741	119.817	0.058	-0.072
-505.726	-121.666	-0.213	-0.035
-504.712	44.025	-0.099	-0.091
-503.697	448.554	0.078	0.172
-502.683	-41.335	-0.279	0.144
-501.668	-200.000	-0.021	-0.142
-500.653	-75.492	0.180	-0.064
-499.639	792.969	0.177	-0.488
-498.624	86.374	-0.087	-0.096
-497.610	-200.000	-0.021	-0.136
-496.595	494.450	-0.102	-0.234
-495.581	-72.882	-0.029	0.011
-494.566	-109.696	-0.095	0.020
-493.551	-53.878	-0.338	0.154
-492.537	69.972	0.072	-0.074
-491.522	-112.021	-0.022	-0.004
-490.508	-141.815	0.431	0.043
-489.493	-179.137	-0.060	0.001
-488.478	108.117	-0.125	0.149
-487.464	190.262	0.282	0.423
-486.449	-200.000	0.029	-0.227
-485.435	800.000	-0.054	-0.193
-484.420	-171.458	-0.306	0.010
-483.405	-112.112	-0.213	-0.043
-482.391	-69.373	-0.059	0.023
-481.376	-2.961	-0.158	0.110
-480.362	-200.000	0.001	-0.232
-479.347	-200.000	0.070	-0.327
-478.332	-84.997	-0.126	0.039
-477.318	-121.693	-0.229	0.038
-476.303	-89.511	0.246	-0.072
-475.289	-118.951	-0.202	0.035
-474.274	34.322	-0.177	-0.154
-473.259	48.014	0.154	-0.144
-472.245	193.580	-0.101	0.154
-471.230	200.768	0.019	-0.030
-470.216	721.163	-0.018	-0.047
-469.201	435.360	0.042	-0.090
-468.186	-200.000	-0.013	-0.322
-467.172	-97.824	-0.133	-0.034
-466.157	-44.469	-0.021	0.010
-465.143	626.649	0.095	0.241
-464.128	-97.634	-0.070	-0.018
-463.113	-200.000	0.023	-0.157
-462.099	-129.566	0.300	-0.042
-461.084	164.019	-0.166	-0.233
-460.070	577.578	0.030	-0.074
-459.055	800.000	0.052	0.174
-458.040	16.634	0.139	0.110
-457.026	-108.409	-0.192	0.041
-456.011	527.223	-0.090	0.211
-454.997	433.074	0.061	0.132
-453.982	-48.926	-0.290	0.139
-452.968	125.628	0.160	0.202
-451.953	-117.330	-0.159	-0.029
-450.938	-113.986	0.048	-0.009
-449.924	-200.000	-0.018	0.184
-448.909	726.566	-0.046	0.122
-447.895	-92.958	-0.184	-0.051
-446.880	800.000	0.086	-0.283
-445.865	-200.000	-0.028	0.332
-444.851	44.560	-0.130	-0.119
-443.836	-190.816	-0.033	-0.000
-442.822	800.000	0.016	0.052
-441.807	95.732	-0.042	-0.047
-440.792	-122.432	0.361	0.059
-439.778	151.700	0.038	-0.052
-438.763	-45.248	-0.321	-0.159
-437.749	137.840	-0.183	-0.239
-436.734	-117.264	0.260	0.047
-435.719	422.984	-0.088	0.188
-434.705	-156.625	-0.391	-0.024
-433.690	214.657	0.223	-0.353
-432.676	138.040	-0.027	-0.035
-431.661	-152.051	0.328	0.024
-430.646	183.459	-0.053	0.078
-429.632	790.903	-0.033	0.091
-428.617	-80.811	0.259	0.086
-427.603	-200.000	0.022	0.097
-426.588	439.792	0.084	0.183
-425.573	-167.476	0.132	-0.005
-424.559	387.989	-0.118	-0.244
-423.544	137.113	-0.055	0.072
-422.530	-200.000	-0.012	-0.229
-421.515	206.453	-0.097	-0.151
-420.500	-200.000	-0.016	0.142
-419.486	311.344	-0.118	-0.221
-418.471	188.763	-0.157	-0.234
-417.457	-200.000	-0.015	-0.212
-416.442	-200.000	-0.004	-0.201
-415.428	316.332	0.024	-0.046
-414.413	-50.561	0.060	0.028
-413.398	800.000	-0.108	-0.344
-412.384	180.280	0.129	-0.189
-411.369	800.000	0.039	-0.143
-410.355	-97.422	0.234	0.061
-409.340	-164.388	-0.226	-0.010
-408.325	800.000	0.092	0.253
-407.311	682.307	0.055	0.142
-406.296	319.493	-0.037	0.069
-405.282	153.015	0.145	-0.198
-404.267	289.029	0.053	-0.096
-403.252	103.396	0.103	0.121
-402.238	25.538	0.042	-0.035
-401.223	-186.955	-0.230	-0.003
-400.209	-29.802	-0.128	0.073
-399.194	800.000	-0.087	0.259
-398.179	58.382	-0.160	0.156
-397.165	175.732	0.154	0.223
-396.150	800.000	0.097	-0.304
-395.136	-200.000	0.001	0.132
-394.121	-200.000	-0.002	-0.173
-393.106	-200.000	0.034	-0.260
-392.092	116.347	-0.197	0.241
-391.077	-127.293	0.147	-0.021
-390.063	416.646	0.089	-0.189
-389.048	59.435	0.151	0.148
-388.033	-5.517	-0.239	0.163
-387.019	184.719	0.098	0.144
-386.004	-185.874	-0.191	-0.003
-384.990	800.000	0.035	-0.119
-383.975	147.550	-0.115	0.154
-382.960	160.017	0.139	-0.194
-381.946	28.059	0.282	-0.237
-380.931	-15.215	-0.383	0.244
-379.917	-118.831	0.186	0.033
-378.902	-151.351	0.161	-0.012
-377.888	-119.616	-0.150	-0.026
-376.873	-200.000	0.073	0.369
-375.858	-100.708	-0.075	0.018
-374.844	147.612	-0.157	0.211
-373.829	-85.532	0.226	-0.070
-372.815	-200.000	0.005	-0.063
-371.800	-127.478	0.206	0.030
-370.785	-22.806	0.171	-0.103
-369.771	100.823	-0.123	-0.142
-368.756	239.750	-0.059	0.098
-367.742	-119.510	-0.392	-0.068
-366.727	143.101	0.057	0.075
-365.712	47.950	-0.072	0.067
-364.698	168.219	0.136	0.192
-363.683	52.896	-0.158	0.151
-362.669	-114.762	0.373	-0.071
-361.654	372.793	-0.123	0.249
-360.639	-75.868	-0.166	0.059
-359.625	-78.282	-0.318	-0.109
-358.610	-200.000	-0.015	-0.098
-357.596	174.909	-0.218	0.314
-356.581	137.930	0.101	0.131
-355.566	-200.000	0.006	-0.373
-354.552	101.785	-0.054	0.063
-353.537	295.090	-0.067	-0.122
-352.523	-200.000	-0.004	-0.031
-351.508	-200.000	-0.071	-0.410
-350.493	-66.845	0.175	-0.069
-349.479	681.273	0.069	0.179
-348.464	80.534	0.084	0.091
-347.450	-66.320	0.185	-0.073
-346.435	608.098	0.045	0.111
-345.420	-71.585	-0.056	0.021
-344.406	-122.008	-0.140	-0.023
-343.391	-200.000	-0.072	-0.377
-342.377	441.905	-0.158	0.345
-341.362	487.426	-0.064	-0.145
-340.348	308.356	0.059	0.109
-339.333	-80.598	0.303	0.100
-338.318	-41.931	-0.167	-0.085
-337.304	-18.026	0.196	-0.122
-336.289	800.000	0.079	-0.281
-335.275	-75.781	0.431	-0.152
-334.260	800.000	0.046	0.146
-333.245	65.107	-0.096	0.097
-332.231	151.731	0.184	0.250
-331.216	792.488	0.153	0.418
-330.202	-200.000	-0.063	0.316
-329.187	129.965	-0.169	-0.215
-328.172	-200.000	-0.047	-0.288
-327.158	800.000	-0.043	0.142
-326.143	-200.000	0.007	0.287
-325.129	-117.967	-0.206	0.037
-324.114	-200.000	-0.029	-0.216
-323.099	63.529	-0.232	0.231
-322.085	-14.545	0.120	0.077
-321.070	257.936	-0.053	0.091
-320.056	194.984	0.290	0.437
-319.041	41.535	-0.258	-0.232
-318.026	-115.985	0.426	-0.079
-317.012	-53.779	-0.175	-0.079
-315.997	13.283	-0.213	-0.164
-314.983	21.284	-0.081	0.065
-313.968	-43.862	0.112	-0.056
-312.953	47.314	0.126	-0.116
-311.939	729.341	0.054	-0.142
-310.924	2.776	0.123	0.089
-309.910	78.935	-0.066	-0.070
-308.895	800.000	0.045	0.159
-307.880	300.945	-0.143	-0.262
-306.866	114.992	-0.061	-0.074
-305.851	430.942	0.016	-0.033
-304.837	38.368	-0.324	-0.287
-303.822	-164.693	0.254	0.011
-302.807	-200.000	-0.055	0.331
-301.793	-94.871	-0.361	-0.097
-300.778	750.949	0.052	-0.139
-299.764	456.870	-0.003	-0.006
-298.749	-200.000	0.017	0.242
-297.735	340.647	-0.094	0.182
-296.720	-126.464	0.372	-0.055
-295.705	-28.133	0.163	-0.094
-294.691	-27.666	0.235	-0.135
-293.676	-200.000	0.039	-0.233
-292.662	-172.189	0.051	-0.002
-291.647	-74.808	0.258	0.092
-290.632	800.000	0.014	0.043
-289.618	-78.285	-0.097	0.033
-288.603	-200.000	-0.042	0.207
-287.589	-12.676	0.243	-0.157
-286.574	800.000	0.071	-0.219
-285.559	-28.006	-0.410	-0.236
-284.545	-200.000	0.051	0.236
-283.530	-22.954	0.041	0.025
-282.516	-200.000	-0.034	0.305
-281.501	800.000	0.072	0.206
-280.486	-71.822	-0.581	0.215
-279.472	0.674	0.291	-0.207
-278.457	142.455	-0.194	0.256
-277.443	58.356	-0.209	-0.203
-276.428	-24.430	0.076	0.045
-275.413	-109.077	-0.208	-0.044
-274.399	27.897	0.133	0.111
-273.384	-200.000	0.006	0.140
-272.370	800.000	0.147	-0.491
-271.355	-128.119	-0.236	0.034
-270.340	-66.628	0.215	0.085
-269.326	204.117	-0.122	-0.188
-268.311	-200.000	0.017	0.268
-267.297	161.143	0.113	-0.157
-266.282	2.309	0.239	-0.171
-265.267	-32.774	0.376	0.207
-264.253	-174.988	-0.086	-0.002
-263.238	-115.685	0.230	0.043
-262.224	109.460	0.040	0.048
-261.209	17.193	-0.238	-0.187
-260.195	-110.436	-0.194	0.040
-259.180	-39.474	-0.201	0.104
-258.165	-133.441	0.376	-0.047
-257.151	-200.000	0.035	-0.305
-256.136	71.190	-0.096	0.098
-255.122	-26.372	-0.220	0.128
-254.107	188.811	-0.203	-0.301
-253.092	-2.020	0.097	0.067
-252.078	-23.138	0.159	-0.095
-251.063	-100.262	0.237	0.058
-250.049	547.253	0.027	-0.065
-249.034	-45.638	-0.158	-0.077
-248.019	172.708	-0.122	-0.173
-247.005	43.784	-0.144	0.130
-245.990	-200.000	-0.005	0.164
-244.976	-200.000	0.021	0.193
-243.961	-91.685	-0.077	0.022
-242.946	-142.228	-0.158	-0.016
-241.932	-57.662	0.332	-0.144
-240.917	-116.772	0.094	-0.017
-239.903	-53.850	-0.291	-0.131
-238.888	60.022	-0.145	0.142
-237.873	-200.000	0.011	0.150
-236.859	29.368	-0.014	0.012
-235.844	132.520	0.105	0.135
-234.830	24.246	-0.153	-0.126
-233.815	679.326	0.048	0.124
-232.800	265.023	0.162	0.280
-231.786	-73.808	0.213	0.077
-230.771	-200.000	-0.002	-0.284
-229.757	-50.226	-0.141	-0.066
-228.742	-100.916	0.118	0.029
-227.727	-200.000	-0.010	0.263
-226.713	800.000	-0.013	0.037
-225.698	180.484	-0.140	0.204
-224.684	17.280	-0.043	0.034
-223.669	49.706	0.197	0.184
-222.655	70.430	0.069	0.070
-221.640	-200.000	-0.012	0.293
-220.625	494.541	0.110	-0.251
-219.611	-114.515	-0.210	-0.040
-218.596	-87.511	-0.300	-0.090
-217.582	512.776	0.143	-0.329
-216.567	-200.000	0.036	-0.177
-215.552	-36.278	-0.213	-0.114
-214.538	745.666	-0.069	0.183
-213.523	-111.601	0.239	0.048
-212.509	800.000	0.068	0.245
-211.494	-187.078	0.197	-0.003
-210.479	-123.559	-0.077	0.012
-209.465	-46.155	0.331	-0.161
-208.450	328.817	-0.214	-0.407
-207.436	8.229	0.227	-0.169
-206.421	-110.021	-0.437	-0.090
-205.406	-35.099	-0.307	0.166
-204.392	41.057	-0.117	0.104
-203.377	201.499	0.080	-0.122
-202.363	-200.000	0.032	-0.196
-201.348	-200.000	-0.000	-0.073
-200.333	-200.000	-0.003	0.100
-199.319	-200.000	0.015	0.184
-198.304	39.064	0.174	0.154
-197.290	88.211	-0.091	0.100
-196.275	36.517	0.224	0.196
-195.260	-200.000	0.013	-0.143
-194.246	-65.938	0.257	-0.101
-193.231	124.344	-0.037	0.046
-192.217	245.940	-0.234	0.390
-191.202	-169.611	-0.190	-0.007
-190.187	-20.058	0.192	0.117
-189.173	38.834	0.156	-0.138
-188.158	-25.198	0.307	-0.180
-187.144	-200.000	0.015	-0.237
-186.129	115.117	0.058	-0.070
-185.114	-200.000	0.021	0.203
-184.100	-200.000	0.016	-0.253
-183.085	68.769	-0.031	0.032
-182.071	-72.300	0.168	-0.062
-181.056	-142.460	0.047	-0.005
-180.042	-146.421	0.082	0.007
-179.027	800.000	0.043	-0.129
-178.012	51.451	0.213	-0.200
-176.998	-200.000	0.032	0.149
-175.983	-29.686	-0.082	0.046
-174.969	8.615	0.178	-0.133
-173.954	-136.256	-0.163	0.019
-172.939	347.702	0.090	0.175
-171.925	800.000	-0.026	-0.095
-170.910	-200.000	-0.032	0.150
-169.896	333.379	-0.101	-0.193
-168.881	185.128	0.149	0.219
-167.866	-200.000	0.002	-0.108
-166.852	249.900	0.101	-0.170
-165.837	22.701	-0.054	0.044
-164.823	220.092	-0.253	0.400
-163.808	0.423	0.174	-0.123
-162.793	578.579	-0.059	-0.141
-161.779	84.248	0.169	-0.182
-160.764	-117.247	0.308	-0.055
-159.750	-40.630	0.397	-0.203
-158.735	-200.000	0.033	-0.190
-157.720	-200.000	-0.002	0.034
-156.706	503.848	0.052	0.118
-155.691	-200.000	-0.053	-0.236
-154.677	7.759	0.296	0.219
-153.662	-89.280	-0.287	-0.084
-152.647	128.329	0.094	-0.118
-151.633	343.261	0.104	0.200
-150.618	-200.000	-0.020	0.250
-149.604	310.049	-0.058	-0.108
-148.589	-200.000	-0.006	-0.076
-147.574	215.108	0.115	0.179
-146.560	-84.879	-0.136	0.042
-145.545	-91.841	0.171	-0.048
-144.531	158.957	-0.070	-0.097
-143.516	11.107	0.227	-0.172
-142.502	168.108	-0.102	0.143
-141.487	-61.850	-0.115	0.048
-140.472	-33.185	0.335	0.183
-139.458	-200.000	0.002	0.105
-138.443	70.193	-0.250	-0.255
-137.429	-94.407	0.269	-0.073
-136.414	-200.000	0.068	0.294
-135.399	-80.438	-0.405	0.133
-134.385	-119.016	0.284	0.049
-133.370	-200.000	0.026	-0.350
-132.356	-122.924	-0.102	-0.016
-131.341	178.904	-0.103	0.149
-130.326	-81.173	0.229	0.075
-129.312	-57.322	-0.168	0.073
-128.297	-100.738	0.296	0.072
-127.283	633.307	0.137	-0.342
-126.268	293.140	0.033	-0.060
-125.253	-106.941	0.467	0.102
-124.239	-47.955	0.192	0.092
-123.224	11.017	-0.028	-0.021
-122.210	314.443	0.046	-0.085
-121.195	-110.052	-0.152	-0.031
-120.180	-200.000	0.049	0.252
-119.166	102.622	0.104	-0.120
-118.151	193.125	0.323	-0.481
-117.137	800.000	-0.224	-0.761
-116.122	138.972	0.023	0.030
-115.107	-67.272	0.183	0.071
-114.093	-200.000	-0.015	-0.186
-113.078	103.867	0.165	0.191
-112.064	10.762	0.160	0.120
-111.049	154.989	0.119	-0.162
-110.034	-200.000	0.003	0.264
-109.020	12.541	0.294	0.224
-108.005	109.284	-0.060	-0.070
-106.991	-200.000	0.010	-0.156
-105.976	120.901	-0.307	-0.377
-104.962	137.259	0.112	0.144
-103.947	340.201	-0.186	0.358
-102.932	-71.259	-0.344	0.127
-101.918	760.263	0.146	-0.389
-100.903	132.646	-0.121	0.154
-99.889	-129.123	0.190	0.026
-98.874	251.981	-0.109	-0.183
-97.859	-7.836	0.263	-0.175
-96.845	103.196	0.083	0.096
-95.830	32.810	-0.139	-0.119
-94.816	-200.000	0.008	-0.213
-93.801	486.667	-0.142	-0.320
-92.786	63.490	-0.148	0.146
-91.772	-29.204	-0.204	0.115
-90.757	-114.381	-0.120	0.023
-89.743	66.377	-0.225	0.225
-88.728	166.973	0.041	0.057
-87.713	241.806	0.040	-0.066
-86.699	20.888	-0.138	0.110
-85.684	151.379	0.239	0.321
-84.670	800.000	-0.022	0.072
-83.655	-73.264	-0.106	-0.038
-82.640	-200.000	0.008	-0.184
-81.626	524.404	-0.113	0.263
-80.611	280.977	0.097	0.171
-79.597	-200.000	-0.048	0.400
-78.582	-62.579	0.234	0.096
-77.567	-86.114	-0.379	-0.115
-76.553	-44.130	0.089	-0.044
-75.538	-119.147	0.373	0.064
-74.524	-83.734	-0.176	0.055
-73.509	-200.000	0.002	-0.154
-72.494	800.000	-0.081	-0.262
-71.480	-182.783	0.359	-0.006
-70.465	-1.508	0.142	0.098
-69.451	-3.587	0.135	-0.092
-68.436	-80.968	0.190	0.062
-67.422	-179.234	-0.156	-0.003
-66.407	800.000	-0.044	-0.173
-65.392	-40.613	0.481	-0.245
-64.378	340.130	-0.083	0.159
-63.363	-3.758	0.380	-0.260
-62.349	-200.000	0.041	0.248
-61.334	441.732	-0.422	-0.908
-60.319	9.985	0.592	0.442
-59.305	369.632	-0.467	-0.931
-58.290	193.625	0.678	1.009
-57.276	429.322	0.749	1.593
-56.261	-200.000	95.930	597.077
-55.246	573.567	1363.846	3271.093
-54.232	162.867	2539.273	3506.548
-53.217	114.118	2135.495	2555.259
-52.203	44.026	1600.222	1442.532
-51.188	35.819	1337.973	1156.985
-50.173	32.365	1297.293	1101.579
-49.159	54.654	1344.009	1274.451
-48.144	57.118	1360.430	1304.624
-47.130	35.832	1319.392	1140.809
-46.115	32.336	1302.415	1105.579
-45.100	32.115	1297.432	1100.011
-44.086	31.993	1295.072	1097.253
-43.071	32.020	1292.468	1095.158
-42.057	32.087	1290.298	1093.669
-41.042	32.007	1288.801	1091.894
-40.027	32.109	1287.123	1091.022
-39.013	31.989	1285.682	1089.060
-37.998	32.163	1283.073	1087.813
-36.984	32.100	1281.876	1086.392
-35.969	32.046	1280.187	1084.605
-34.954	32.251	1278.108	1083.985
-33.940	32.208	1277.009	1082.761
-32.925	32.218	1275.918	1081.846
-31.911	32.249	1274.175	1080.506
-30.896	32.210	1272.452	1078.779
-29.881	32.290	1271.198	1078.133
-28.867	32.295	1270.042	1077.139
-27.852	32.332	1268.629	1076.109
-26.838	32.280	1266.662	1074.100
-25.823	32.283	1265.625	1073.193
-24.809	32.244	1264.987	1072.389
-23.794	32.224	1263.389	1070.877
-22.779	32.153	1262.516	1069.689
-21.765	32.265	1260.439	1068.524
-20.750	32.244	1259.212	1067.323
-19.736	32.186	1257.963	1065.893
-18.721	32.093	1256.929	1064.447
-17.706	32.059	1256.126	1063.534
-16.692	32.051	1254.701	1062.235
-15.677	32.090	1253.504	1061.401
-14.663	32.000	1252.845	1060.292
-13.648	31.976	1251.939	1059.349
-12.633	32.125	1249.880	1058.407
-11.619	32.063	1249.548	1057.734
-10.604	32.085	1248.491	1056.918
-9.590	32.085	1247.482	1056.024
-8.575	32.002	1246.621	1054.785
-7.560	32.042	1245.730	1054.217
-6.546	32.034	1244.976	1053.492
-5.531	32.077	1243.893	1052.772
-4.517	32.123	1242.845	1052.102
-3.502	32.115	1242.036	1051.331
-2.487	31.994	1241.540	1050.190
-1.473	32.156	1236.835	1047.076
-0.458	30.720	1222.412	1026.906
0.556	27.723	1205.782	990.250
1.571	24.373	1211.332	976.423
2.586	23.529	1227.109	984.370
3.600	23.074	1216.491	973.261
4.615	17.146	1143.486	884.008
5.629	6.954	1067.168	775.189
6.644	2.402	1046.316	738.056
7.659	2.193	1043.677	735.122
8.673	2.002	1042.503	733.315
9.688	1.955	1041.180	732.092
10.702	2.453	1039.814	733.456
11.717	9.053	1049.626	772.148
12.731	19.158	1063.662	831.443
13.746	24.129	1070.092	860.475
14.761	25.161	1071.315	866.373
15.775	25.431	1070.097	866.614
16.790	25.055	1069.669	864.375
17.804	25.155	1069.030	864.264
18.819	25.112	1068.715	863.725
19.834	25.359	1068.046	864.298
20.848	25.344	1068.037	864.144
21.863	25.431	1067.075	863.706
22.877	25.283	1066.864	862.748
23.892	25.186	1065.756	861.309
24.907	25.219	1065.199	860.941
25.921	25.310	1064.000	860.332
26.936	25.299	1062.645	859.110
27.950	25.222	1060.936	857.285
28.965	25.100	1059.609	855.552
29.980	25.237	1057.799	854.668
30.994	25.329	1056.987	854.376
32.009	25.417	1055.911	853.848
33.023	25.221	1054.390	851.613
34.038	25.182	1054.435	851.389
35.053	25.323	1053.551	851.265
36.067	25.323	1052.612	850.432
37.082	25.519	1051.857	850.677
38.096	25.589	1051.371	850.540
39.111	25.641	1050.612	850.093
40.126	25.353	1049.475	847.738
41.140	25.033	1047.456	844.527
42.155	24.937	1046.303	843.070
43.169	25.014	1045.118	842.401
44.184	24.912	1044.150	841.070
45.199	24.755	1043.542	839.768
46.213	24.948	1042.557	839.806
47.228	25.028	1041.860	839.544
48.242	25.239	1041.109	839.853
49.257	25.310	1040.438	839.567
50.271	25.472	1039.522	839.512
51.286	25.374	1038.784	838.386
52.301	25.285	1038.028	837.286
53.315	25.370	1036.523	836.392
54.330	25.176	1035.888	834.904
55.344	25.306	1035.036	834.749
56.359	25.201	1034.606	833.838
57.374	25.068	1033.614	832.350
58.388	25.069	1032.694	831.539
59.403	25.005	1031.921	830.545
60.417	24.814	1031.162	828.974
61.432	25.092	1030.192	829.411
62.447	25.028	1029.838	828.757
63.461	25.095	1029.070	828.372
64.476	24.912	1028.014	826.607
65.490	24.969	1027.066	826.032
66.505	24.994	1026.567	825.674
67.520	25.106	1025.502	825.257
68.534	24.894	1024.534	823.433
69.549	24.544	1023.644	821.037
70.563	24.550	1023.104	820.557
71.578	24.560	1022.171	819.783
72.593	24.474	1020.929	818.318
73.607	24.645	1020.478	818.670
74.622	24.877	1020.406	819.600
75.636	24.971	1019.502	819.231
76.651	24.781	1018.678	817.632
77.666	24.631	1018.347	816.608
78.680	24.688	1017.811	816.365
79.695	24.759	1017.351	816.249
80.709	24.855	1016.597	816.008
81.724	24.908	1015.579	815.359
82.739	24.959	1014.835	814.923
83.753	25.268	1014.482	815.974
84.768	25.608	1013.492	816.646
85.782	25.729	1012.555	816.368
86.797	25.616	1011.493	814.931
87.812	25.420	1010.589	813.239
88.826	25.547	1009.798	813.108
89.841	25.612	1008.875	812.587
90.855	25.610	1007.915	811.730
91.870	25.542	1007.220	810.793
92.884	25.460	1005.845	809.245
93.899	25.461	1005.068	808.555
94.914	25.526	1004.052	807.955
95.928	25.374	1003.199	806.517
96.943	25.127	1002.117	804.468
97.957	24.987	1000.947	802.831
98.972	24.849	999.564	801.030
99.987	25.099	999.417	801.960
101.001	25.371	998.257	802.175
102.016	25.202	997.807	800.987
103.030	25.115	996.968	799.855
104.045	24.990	996.362	798.739
105.060	24.974	994.628	797.207
106.074	24.973	994.782	797.256
107.089	25.322	993.614	797.803
108.103	25.286	992.815	796.929
109.118	25.142	991.246	794.962
110.133	24.938	990.483	793.376
111.147	24.684	989.580	791.458
112.162	24.697	988.520	790.598
113.176	24.890	988.239	791.154
114.191	24.877	987.155	790.161
115.206	24.620	985.918	787.968
116.220	24.610	985.553	787.562
117.235	24.779	984.241	787.186
118.249	24.679	983.538	786.115
119.264	24.673	982.620	785.285
120.279	24.619	982.203	784.648
121.293	24.583	981.321	783.714
122.308	24.718	980.445	783.539
123.322	24.752	979.174	782.601
124.337	24.538	978.174	780.797
125.352	23.972	977.084	777.384
126.366	24.018	975.804	776.497
127.381	24.878	975.205	779.701
128.395	25.250	975.163	781.219
129.410	25.327	974.192	780.709
130.424	25.353	972.797	779.634
131.439	25.241	972.356	778.725
132.454	25.257	971.715	778.213
133.468	25.108	970.848	776.804
134.483	25.401	969.527	776.944
135.497	25.494	969.221	777.032
136.512	25.508	968.062	776.094
137.527	25.485	967.895	775.792
138.541	25.601	966.212	774.876
139.556	25.513	965.883	774.166
140.570	25.635	965.398	774.231
141.585	25.582	964.247	773.015
142.600	25.621	963.300	772.353
143.614	25.734	962.684	772.276
144.629	25.846	961.641	771.850
145.643	25.807	960.033	770.326
146.658	25.613	959.047	768.636
147.673	25.462	957.992	767.080
148.687	25.304	957.024	765.559
149.702	25.316	956.445	765.081
150.716	25.284	955.106	763.806
151.731	25.379	954.586	763.725
152.746	25.666	954.011	764.420
153.760	25.701	953.645	764.206
154.775	25.754	952.894	763.761
155.789	25.626	952.189	762.588
156.804	25.498	951.402	761.345
157.819	25.600	950.375	760.889
158.833	25.837	950.033	761.549
159.848	25.799	949.006	760.501
160.862	25.613	947.846	758.717
161.877	25.627	946.862	757.923
162.892	25.719	945.864	757.442
163.906	25.589	944.847	756.015
164.921	25.678	944.047	755.682
165.935	25.688	943.234	755.005
166.950	25.626	942.127	753.792
167.964	25.646	941.463	753.279
168.979	25.486	940.193	751.527
169.994	25.466	939.162	750.552
171.008	25.648	938.550	750.757
172.023	25.677	937.911	750.300
173.037	25.350	936.990	748.136
174.052	25.377	935.951	747.354
175.067	25.341	935.341	746.650
176.081	25.391	934.970	746.494
177.096	25.351	934.313	745.739
178.110	25.123	933.114	743.771
179.125	25.022	932.183	742.545
180.140	25.127	931.927	742.709
181.154	25.243	932.031	743.207
182.169	25.513	931.638	743.946
183.183	25.760	931.555	744.835
184.198	25.597	930.438	743.203
185.213	25.563	929.787	742.476
186.227	25.674	929.235	742.429
187.242	25.803	928.382	742.212
188.256	25.846	927.667	741.752
189.271	25.796	927.249	741.147
190.286	25.399	925.918	738.386
191.300	24.715	924.744	734.575
192.315	24.010	922.948	730.192
193.329	23.981	922.528	729.677
194.344	24.901	923.075	733.816
195.359	25.513	922.590	735.873
196.373	25.584	922.796	736.262
197.388	25.540	921.195	734.740
198.402	25.469	921.123	734.326
199.417	25.541	920.159	733.787
200.432	25.374	919.184	732.266
201.446	25.331	918.420	731.414
202.461	25.257	918.034	730.741
203.475	24.340	915.979	725.316
204.490	23.547	914.906	721.180
205.504	24.566	915.317	725.581
206.519	25.115	915.381	727.795
207.534	25.266	914.698	727.799
208.548	25.627	914.963	729.410
209.563	25.339	913.902	727.334
210.577	25.360	913.126	726.737
211.592	25.826	912.566	728.114
212.607	25.724	911.641	726.897
213.621	25.709	911.651	726.782
214.636	25.656	910.718	725.760
215.650	25.642	910.140	725.178
216.665	25.720	909.754	725.121
217.680	25.766	908.771	724.459
218.694	25.239	907.649	721.381
219.709	25.121	907.077	720.388
220.723	25.428	906.544	721.132
221.738	25.537	906.034	721.102
222.753	25.448	905.290	720.090
223.767	25.746	905.022	721.005
224.782	25.889	904.660	721.227
225.796	25.754	903.930	720.040
226.811	25.193	902.541	716.628
227.826	24.449	901.378	712.674
228.840	24.547	901.203	712.863
229.855	24.765	900.152	712.840
230.869	24.461	899.176	710.789
231.884	24.812	899.341	712.255
232.899	25.586	899.194	715.156
233.913	25.546	898.528	714.404
234.928	25.451	897.745	713.339
235.942	25.388	897.216	712.608
236.957	24.961	896.295	710.122
237.972	25.032	895.943	710.059
238.986	25.204	895.291	710.163
240.001	25.332	894.437	709.926
241.015	25.358	894.362	709.906
242.030	25.339	894.105	709.566
243.045	25.581	893.219	709.756
244.059	25.596	892.791	709.413
245.074	25.537	891.940	708.439
246.088	25.066	891.349	706.052
247.103	25.429	890.858	707.031
248.117	25.960	891.015	709.182
249.132	26.196	890.428	709.581
250.147	26.211	890.214	709.404
251.161	26.428	889.610	709.712
252.176	26.384	889.065	709.041
253.190	26.447	888.356	708.663
254.205	26.569	888.052	708.835
255.220	26.604	886.998	708.064
256.234	26.468	886.314	706.924
257.249	26.347	885.866	706.035
258.263	26.323	885.236	705.376
259.278	26.456	884.303	705.086
260.293	26.405	883.951	704.544
261.307	26.361	883.420	703.889
262.322	26.271	881.973	702.323
263.336	25.524	880.621	698.284
264.351	24.450	878.740	692.568
265.366	24.589	878.749	693.051
266.380	25.604	878.981	697.110
267.395	26.141	878.865	699.034
268.409	25.830	878.348	697.360
269.424	26.276	877.649	698.469
270.439	26.372	876.983	698.246
271.453	26.327	876.473	697.603
272.468	26.404	876.464	697.834
273.482	26.593	875.446	697.689
274.497	26.105	874.611	695.082
275.512	25.696	873.872	692.860
276.526	26.077	873.549	694.008
277.541	26.269	873.224	694.426
278.555	26.081	872.350	692.947
279.570	26.133	871.258	692.220
280.585	26.155	870.863	691.926
281.599	26.078	870.245	691.081
282.614	25.456	869.127	687.752
283.628	25.496	868.536	687.376
284.643	25.862	868.474	688.668
285.657	25.396	867.287	685.885
286.672	25.147	866.360	684.143
287.687	25.878	865.970	686.558
288.701	25.659	866.010	685.697
289.716	25.372	865.447	684.098
290.730	25.461	864.218	683.404
291.745	25.300	863.228	681.947
292.760	25.545	863.321	682.892
293.774	26.576	864.178	687.428
294.789	26.785	863.943	687.973
295.803	26.708	863.159	686.995
296.818	26.911	861.766	686.593
297.833	26.516	860.476	684.011
298.847	26.198	860.122	682.469
299.862	26.517	860.305	683.760
300.876	26.956	859.781	684.940
301.891	26.737	859.054	683.474
302.906	26.379	858.102	681.307
303.920	26.320	858.013	680.954
304.935	26.830	857.343	682.282
305.949	26.710	856.732	681.284
306.964	26.283	856.621	679.529
307.979	26.508	856.451	680.182
308.993	27.017	855.681	681.418
310.008	26.954	855.056	680.625
311.022	26.692	854.041	678.774
312.037	26.474	853.490	677.460
313.052	26.106	852.719	675.412
314.066	25.473	851.006	671.630
315.081	25.043	850.357	669.452
316.095	26.000	850.810	673.325
317.110	26.404	850.572	674.585
318.125	25.524	849.192	670.151
319.139	24.484	847.791	665.114
320.154	24.616	847.152	665.046
321.168	25.544	847.957	669.074
322.183	26.241	847.799	671.484
323.197	26.288	847.723	671.537
324.212	26.525	847.289	672.014
325.227	26.679	846.324	671.761
326.241	26.395	846.364	670.680
327.256	26.414	844.985	669.599
328.270	26.374	844.373	668.907
329.285	26.045	843.943	667.290
330.300	25.923	842.752	665.837
331.314	26.008	843.071	666.343
332.329	26.563	842.519	667.899
333.343	26.732	842.306	668.295
334.358	26.716	841.593	667.609
335.373	26.593	841.783	667.248
336.387	26.874	841.488	667.991
337.402	27.101	841.475	668.757
338.416	27.099	840.913	668.244
339.431	27.120	840.656	668.056
340.446	27.323	840.297	668.459
341.460	27.146	839.741	667.305
342.475	26.964	839.445	666.344
343.489	27.114	838.764	666.294
344.504	27.325	838.493	666.793
345.519	27.392	838.499	666.986
346.533	27.584	838.009	667.240
347.548	27.503	837.415	666.412
348.562	27.427	836.905	665.669
349.577	27.415	836.284	665.072
350.592	27.383	835.682	664.416
351.606	27.411	834.908	663.848
352.621	27.301	833.929	662.607
353.635	27.073	833.301	661.219
354.650	26.498	831.906	657.964
355.665	25.518	830.166	652.971
356.679	26.032	829.685	654.403
357.694	26.430	829.929	655.979
358.708	26.302	829.469	655.095
359.723	26.724	829.155	656.318
360.738	27.222	828.490	657.536
361.752	27.025	828.508	656.777
362.767	27.467	828.000	657.913
363.781	27.766	827.469	658.512
364.796	27.935	827.204	658.856
365.810	27.901	827.018	658.526
366.825	27.891	826.697	658.175
367.840	27.481	825.510	655.698
368.854	27.013	824.958	653.517
369.869	27.225	824.193	653.614
370.883	27.106	824.183	653.121
371.898	27.062	823.593	652.438
372.913	27.317	822.789	652.658
373.927	27.410	822.232	652.492
374.942	27.536	822.127	652.801
375.956	27.562	821.971	652.713
376.971	27.586	821.642	652.481
377.986	27.999	820.728	653.171
379.000	27.844	820.412	652.309
380.015	27.660	819.797	651.106
381.029	27.716	819.426	650.954
382.044	27.728	819.130	650.705
383.059	27.811	818.432	650.387
384.073	27.675	818.356	649.784
385.088	27.693	817.421	649.050
386.102	27.585	816.442	647.830
387.117	27.637	815.499	647.209
388.132	27.216	814.556	644.911
389.146	26.704	813.614	642.294
390.161	26.908	814.141	643.377
391.175	27.496	813.671	645.032
392.190	27.111	812.797	642.920
393.205	25.793	810.211	636.163
394.219	24.208	808.564	629.223
395.234	24.182	808.543	629.060
396.248	25.954	809.835	636.269
397.263	27.290	810.784	641.675
398.278	27.277	810.631	641.449
399.292	26.994	809.762	639.711
400.307	27.072	809.134	639.432
401.321	27.176	808.826	639.498
402.336	27.669	808.513	640.924
403.350	28.002	808.620	642.122
404.365	28.311	808.464	643.028
405.380	28.503	808.491	643.668
406.394	28.735	807.328	643.497
407.409	28.520	807.175	642.563
408.423	28.477	806.698	641.977
409.438	28.494	806.375	641.725
410.453	28.469	806.108	641.367
411.467	28.436	805.405	640.637
412.482	28.587	804.993	640.780
413.496	28.458	805.005	640.282
414.511	28.523	804.465	640.022
415.526	28.464	804.113	639.480
416.540	28.398	803.120	638.402
417.555	28.047	802.613	636.720
418.569	28.228	802.171	636.943
419.584	28.363	801.223	636.605
420.599	28.107	800.663	635.212
421.613	111.761	1285.389	1458.599
422.628	96.471	1356.011	1458.698
