DTS Sentinel unit serial number:	SN413079Multiplexer serial number:	ORYXHardware model number:	OX4-SRSoftware version number:	ORYX F/W v4.00 Oryx Data Collector v3.7.2.0data status	okinstallation	princeton_trtdifferential loss correction	single-endedforward channel	channel 1reverse channel	N/Adate	2019/09/17time	14:30:35forward acquisition time	60.00reverse acquisition time	0.00gamma	496.2192k internal	0.2298k external	0.2298temperature offset calibration	0.9968default loss term (dB/km)	0.3790temperature slope calibration	1.0000multiplexer offset coefficient	1.0000multiplexer slope coefficient	1.0000fibre end	0.00T internal ref (°C)	36.44T ext. ref 1 (°C)	0.40T ext. ref 2 (°C)	33.55length (m)	temperature (°C)	Stokes	anti-Stokes-747.200	-98.120	-0.410	0.108
-746.185	-91.069	-0.113	0.033
-745.171	64.633	0.168	0.173
-744.156	15.975	-0.180	0.145
-743.142	800.000	0.035	-0.103
-742.127	-96.650	-0.164	0.044
-741.112	-113.068	0.199	0.040
-740.098	-100.646	-0.147	-0.037
-739.083	800.000	-0.070	0.238
-738.069	-12.959	0.144	0.096
-737.054	93.170	0.026	-0.030
-736.039	-48.457	-0.180	0.088
-735.025	800.000	-0.118	0.497
-734.010	-22.839	-0.046	-0.028
-732.996	27.660	0.200	0.171
-731.981	260.574	0.088	0.155
-730.966	-200.000	-0.001	0.296
-729.952	-153.992	-0.104	0.007
-728.937	-130.781	-0.195	0.027
-727.923	-200.000	-0.010	0.060
-726.908	36.844	0.245	-0.221
-725.894	800.000	-0.045	-0.176
-724.879	800.000	0.115	0.424
-723.864	0.068	-0.146	0.106
-722.850	143.005	0.151	-0.205
-721.835	-200.000	-0.030	-0.225
-720.821	360.766	0.096	0.197
-719.806	89.740	0.047	-0.053
-718.791	83.216	-0.094	0.104
-717.777	-149.852	0.253	0.020
-716.762	92.792	-0.297	0.342
-715.748	-108.060	0.488	0.108
-714.733	-200.000	-0.005	0.372
-713.718	343.862	-0.038	-0.075
-712.704	-150.309	0.165	0.013
-711.689	-27.868	-0.175	0.103
-710.675	-158.852	0.438	-0.025
-709.660	418.428	0.141	-0.308
-708.645	-108.655	0.086	-0.019
-707.631	15.987	-0.207	-0.166
-706.616	-200.000	0.022	0.195
-705.602	216.589	0.200	-0.324
-704.587	-5.612	0.048	-0.033
-703.572	147.537	-0.080	0.109
-702.558	-165.991	-0.147	0.006
-701.543	-18.251	-0.280	0.178
-700.529	-29.574	-0.095	0.055
-699.514	-200.000	-0.011	-0.251
-698.499	-83.224	-0.279	0.091
-697.485	800.000	-0.124	-0.541
-696.470	-93.339	-0.463	-0.131
-695.456	800.000	-0.195	-0.669
-694.441	-67.131	-0.057	-0.023
-693.426	93.573	-0.196	0.226
-692.412	2.033	0.118	-0.087
-691.397	-2.708	-0.169	-0.120
-690.383	-142.082	-0.086	-0.009
-689.368	800.000	0.043	-0.176
-688.354	248.589	-0.073	-0.126
-687.339	-60.692	-0.223	-0.096
-686.324	-18.152	-0.134	-0.085
-685.310	73.028	0.163	-0.173
-684.295	-200.000	0.007	-0.094
-683.281	321.534	-0.105	-0.204
-682.266	-103.924	0.248	0.059
-681.251	341.717	-0.138	-0.275
-680.237	-78.768	0.251	-0.087
-679.222	-32.342	-0.142	0.081
-678.208	-26.507	-0.095	-0.057
-677.193	-200.000	-0.024	0.174
-676.178	-200.000	-0.061	-0.427
-675.164	-161.717	-0.077	0.004
-674.149	27.455	0.439	0.376
-673.135	-2.805	0.109	-0.078
-672.120	-103.171	0.215	-0.052
-671.105	26.668	0.159	-0.136
-670.091	179.996	0.108	0.162
-669.076	-140.580	-0.101	-0.011
-668.062	96.349	-0.102	0.118
-667.047	800.000	0.005	0.018
-666.032	284.486	0.043	-0.078
-665.018	-51.282	0.234	-0.111
-664.003	-118.120	0.197	-0.036
-662.989	-200.000	0.045	-0.292
-661.974	105.841	-0.112	-0.134
-660.959	-175.342	0.164	0.005
-659.945	126.757	-0.139	-0.179
-658.930	800.000	0.063	-0.245
-657.916	-200.000	0.008	0.047
-656.901	61.830	-0.213	-0.216
-655.886	58.412	0.146	-0.146
-654.872	-71.716	-0.392	-0.149
-653.857	-88.918	0.417	0.126
-652.843	-200.000	-0.047	-0.215
-651.828	770.253	-0.069	0.190
-650.814	-200.000	0.002	0.084
-649.799	-39.187	0.303	0.162
-648.784	-200.000	-0.046	0.219
-647.770	-19.843	-0.301	-0.189
-646.755	19.793	-0.294	-0.241
-645.741	683.939	-0.183	-0.485
-644.726	-200.000	-0.029	-0.515
-643.711	-54.866	-0.060	0.027
-642.697	-12.699	-0.225	0.149
-641.682	140.825	-0.192	0.257
-640.668	-200.000	0.042	-0.199
-639.653	-130.946	-0.302	0.041
-638.638	-60.882	0.115	-0.049
-637.624	538.159	-0.077	0.187
-636.609	24.320	0.224	0.189
-635.595	141.180	0.074	0.099
-634.580	-118.377	-0.085	0.015
-633.565	85.001	0.185	0.206
-632.551	56.746	0.178	-0.176
-631.536	800.000	0.032	0.095
-630.522	-12.562	0.186	-0.124
-629.507	-200.000	0.172	-0.000
-628.492	-200.000	0.023	-0.121
-627.478	181.107	0.171	0.255
-626.463	-200.000	-0.076	-0.388
-625.449	-132.621	-0.429	-0.056
-624.434	-200.000	-0.029	-0.133
-623.419	-77.974	0.177	-0.062
-622.405	800.000	0.126	0.509
-621.390	-200.000	-0.045	0.237
-620.376	-126.731	0.287	0.043
-619.361	-119.090	-0.050	-0.009
-618.346	-93.672	-0.237	0.066
-617.332	-35.101	0.043	0.024
-616.317	800.000	0.049	-0.155
-615.303	239.931	-0.087	-0.148
-614.288	-200.000	-0.011	-0.134
-613.273	9.158	-0.425	0.326
-612.259	-127.061	-0.308	0.046
-611.244	-74.541	-0.173	-0.063
-610.230	-55.979	0.401	-0.182
-609.215	-140.977	0.231	0.024
-608.201	188.599	-0.158	-0.241
-607.186	-200.000	0.082	0.406
-606.171	39.861	0.182	0.166
-605.157	140.996	-0.073	-0.097
-604.142	115.107	0.291	-0.361
-603.128	-110.941	0.137	0.029
-602.113	305.477	0.202	-0.382
-601.098	419.417	0.116	-0.253
-600.084	3.649	-0.126	-0.094
-599.069	-103.670	0.179	0.043
-598.055	-163.015	-0.241	0.012
-597.040	-142.555	0.119	-0.012
-596.025	-42.936	0.279	0.144
-595.011	-65.413	-0.324	0.132
-593.996	94.900	-0.104	-0.120
-592.982	-200.000	-0.009	-0.192
-591.967	-149.974	0.128	-0.010
-590.952	800.000	0.031	0.117
-589.938	-40.105	-0.070	0.037
-588.923	436.578	0.224	0.495
-587.909	-11.216	0.014	-0.009
-586.894	-93.118	-0.146	-0.041
-585.879	-38.283	-0.153	-0.082
-584.865	201.592	0.098	0.154
-583.850	216.673	-0.247	0.399
-582.836	-82.414	-0.200	0.066
-581.821	-16.592	-0.377	0.243
-580.806	-80.100	0.066	0.023
-579.792	52.176	0.335	-0.324
-578.777	28.775	-0.132	0.113
-577.763	-87.811	0.165	0.050
-576.748	-11.776	0.210	-0.140
-575.733	-84.181	0.064	-0.021
-574.719	-133.923	-0.188	-0.024
-573.704	27.095	-0.095	0.080
-572.690	58.467	0.104	0.103
-571.675	211.706	-0.072	-0.115
-570.661	36.815	-0.264	-0.237
-569.646	-83.663	-0.127	-0.041
-568.631	325.942	0.143	0.277
-567.617	-49.312	0.187	-0.091
-566.602	800.000	0.091	-0.287
-565.588	800.000	-0.026	0.093
-564.573	142.773	0.127	-0.171
-563.558	-200.000	-0.004	-0.043
-562.544	-51.382	0.101	0.048
-561.529	-166.222	-0.554	0.024
-560.515	-200.000	-0.030	-0.150
-559.500	136.546	-0.006	-0.008
-558.485	-100.862	0.227	-0.057
-557.471	2.997	-0.309	-0.228
-556.456	-99.406	0.113	0.029
-555.442	37.379	-0.102	0.092
-554.427	-200.000	0.013	-0.104
-553.412	-80.965	0.119	-0.040
-552.398	52.031	-0.200	-0.193
-551.383	335.454	-0.047	-0.092
-550.369	218.261	-0.079	0.128
-549.354	8.935	0.085	0.065
-548.339	-13.310	-0.041	-0.027
-547.325	125.004	0.129	0.165
-546.310	67.678	0.159	0.164
-545.296	376.596	-0.045	0.093
-544.281	113.988	0.087	0.107
-543.266	-200.000	0.054	-0.267
-542.252	800.000	0.007	0.025
-541.237	44.526	0.442	-0.412
-540.223	-44.685	-0.193	0.098
-539.208	199.168	-0.129	0.201
-538.193	-10.875	0.373	0.249
-537.179	-98.280	-0.101	-0.026
-536.164	-161.348	-0.328	-0.017
-535.150	257.788	0.251	0.437
-534.135	8.049	0.110	0.083
-533.121	-155.188	-0.092	0.006
-532.106	-200.000	0.036	-0.160
-531.091	281.589	-0.116	0.210
-530.077	-200.000	-0.006	0.238
-529.062	256.134	-0.210	-0.364
-528.048	-128.318	-0.435	-0.063
-527.033	56.098	0.108	0.106
-526.018	-200.000	-0.010	-0.047
-525.004	-77.634	-0.166	-0.058
-523.989	-200.000	0.024	0.368
-522.975	-139.676	0.343	-0.037
-521.960	10.668	-0.133	-0.103
-520.945	-58.453	0.157	0.069
-519.931	170.233	-0.073	-0.105
-518.916	-20.693	0.243	-0.151
-517.902	800.000	0.073	-0.221
-516.887	800.000	-0.107	-0.344
-515.872	-99.249	0.428	-0.109
-514.858	-148.192	-0.289	0.024
-513.843	236.322	0.106	0.177
-512.829	159.356	-0.164	-0.231
-511.814	-181.710	-0.017	0.000
-510.799	59.015	-0.117	0.116
-509.785	204.827	-0.129	-0.203
-508.770	-137.231	0.468	0.054
-507.756	112.219	-0.141	0.172
-506.741	-70.456	-0.152	0.058
-505.726	-174.081	0.485	-0.014
-504.712	-200.000	-0.016	-0.163
-503.697	-200.000	-0.003	0.164
-502.683	-34.652	-0.164	0.091
-501.668	124.508	0.152	0.194
-500.653	-110.698	-0.236	0.049
-499.639	-200.000	0.001	0.046
-498.624	-1.431	0.244	-0.174
-497.610	-111.085	-0.220	-0.046
-496.595	-200.000	-0.008	-0.174
-495.581	206.226	0.069	0.109
-494.566	800.000	0.030	-0.115
-493.551	-46.456	0.081	-0.040
-492.537	800.000	-0.060	-0.216
-491.522	117.678	0.107	0.133
-490.508	-200.000	-0.018	-0.090
-489.493	-51.680	-0.349	-0.164
-488.478	-174.322	-0.183	-0.005
-487.464	-106.602	-0.098	0.022
-486.449	242.523	0.219	0.370
-485.435	-200.000	-0.000	0.322
-484.420	-66.799	-0.149	-0.060
-483.405	800.000	0.072	-0.205
-482.391	-17.483	-0.039	0.025
-481.376	102.713	0.232	-0.274
-480.362	50.302	-0.118	0.112
-479.347	-200.000	0.005	-0.263
-478.332	800.000	-0.095	-0.278
-477.318	-200.000	0.005	-0.299
-476.303	12.919	0.120	0.094
-475.289	-200.000	-0.006	-0.089
-474.274	-18.359	-0.209	-0.132
-473.259	194.404	-0.130	-0.199
-472.245	497.758	-0.043	0.099
-471.230	-32.415	-0.094	0.053
-470.216	-200.000	0.008	-0.340
-469.201	284.582	0.008	0.015
-468.186	-59.513	-0.087	0.038
-467.172	-200.000	0.019	-0.102
-466.157	-48.219	0.201	-0.098
-465.143	161.459	0.116	-0.164
-464.128	-66.304	0.028	0.011
-463.113	-143.273	-0.105	-0.010
-462.099	-136.311	-0.524	0.062
-461.084	626.844	0.008	0.021
-460.070	-148.460	-0.255	0.021
-459.055	800.000	-0.008	0.029
-458.040	153.533	-0.136	-0.188
-457.026	-54.203	0.097	-0.045
-456.011	-200.000	-0.057	0.310
-454.997	-200.000	-0.015	-0.080
-453.982	159.098	-0.184	-0.258
-452.968	741.047	-0.080	0.218
-451.953	-81.390	0.133	-0.044
-450.938	72.596	-0.147	-0.155
-449.924	-106.557	-0.283	0.064
-448.909	211.050	-0.044	0.071
-447.895	-114.722	-0.445	-0.086
-446.880	499.530	0.100	-0.233
-445.865	-110.630	0.055	0.011
-444.851	133.762	-0.153	-0.200
-443.836	-139.940	0.408	0.043
-442.822	-144.499	-0.071	-0.007
-441.807	33.682	0.205	-0.180
-440.792	800.000	0.078	-0.217
-439.778	120.812	-0.060	0.076
-438.763	-200.000	0.062	-0.525
-437.749	-5.649	-0.082	0.057
-436.734	337.893	-0.111	-0.217
-435.719	70.717	0.160	0.167
-434.705	-80.237	0.095	0.032
-433.690	-200.000	-0.002	0.180
-432.676	72.799	0.048	-0.051
-431.661	-131.113	0.298	0.040
-430.646	-200.000	-0.017	-0.108
-429.632	-173.475	0.118	-0.004
-428.617	10.085	-0.171	0.131
-427.603	-59.997	-0.108	0.047
-426.588	-200.000	-0.004	-0.345
-425.573	-97.572	-0.012	0.003
-424.559	7.881	-0.114	-0.086
-423.544	20.940	0.169	0.138
-422.530	9.113	0.269	0.205
-421.515	-70.881	0.067	0.026
-420.500	-101.057	0.251	-0.062
-419.486	200.346	-0.218	0.338
-418.471	131.557	0.090	-0.117
-417.457	-71.933	-0.238	-0.089
-416.442	-134.350	-0.245	0.030
-415.428	-20.378	-0.105	-0.065
-414.413	-176.444	-0.115	0.003
-413.398	-200.000	0.002	0.088
-412.384	-51.401	-0.103	0.049
-411.369	-133.990	-0.326	0.041
-410.355	-44.668	0.340	-0.171
-409.340	-200.000	0.020	-0.114
-408.325	-68.872	-0.235	0.092
-407.311	234.235	-0.123	0.204
-406.296	370.346	-0.090	0.183
-405.282	-24.545	-0.089	-0.053
-404.267	91.620	-0.154	0.175
-403.252	-78.475	-0.283	0.098
-402.238	-185.229	0.031	0.000
-401.223	-2.239	0.157	0.111
-400.209	-200.000	0.023	0.139
-399.194	339.505	0.125	-0.246
-398.179	3.635	0.149	0.110
-397.165	-73.208	0.159	0.059
-396.150	-200.000	0.036	0.261
-395.136	110.094	0.251	0.304
-394.121	-49.162	-0.221	0.106
-393.106	-42.788	0.167	-0.086
-392.092	-91.500	-0.223	0.064
-391.077	-51.630	0.298	0.140
-390.063	-200.000	-0.005	-0.365
-389.048	69.878	0.052	0.054
-388.033	545.914	-0.073	0.177
-387.019	-26.937	0.024	-0.014
-386.004	314.099	0.161	0.305
-384.990	39.913	0.211	-0.191
-383.975	514.897	-0.028	-0.065
-382.960	160.873	0.117	-0.164
-381.946	-110.770	0.304	-0.063
-380.931	-115.814	-0.112	0.021
-379.917	-15.590	0.172	0.110
-378.902	-101.245	0.118	-0.029
-377.888	25.807	0.087	-0.073
-376.873	14.221	0.271	-0.213
-375.858	-92.817	-0.195	0.055
-374.844	-200.000	-0.000	0.177
-373.829	317.134	0.093	-0.178
-372.815	-132.444	-0.086	0.011
-371.800	40.856	0.287	-0.260
-370.785	800.000	-0.016	0.068
-369.771	-21.424	0.136	0.083
-368.756	-200.000	-0.014	0.378
-367.742	-14.018	-0.236	-0.153
-366.727	-194.037	-0.287	-0.002
-365.712	-200.000	-0.008	0.163
-364.698	249.921	0.035	0.060
-363.683	-96.998	-0.105	0.028
-362.669	-72.739	0.168	0.062
-361.654	-47.359	0.156	0.076
-360.639	-117.585	-0.226	0.041
-359.625	290.299	-0.041	-0.075
-358.610	-3.334	0.102	-0.071
-357.596	-200.000	0.026	-0.129
-356.581	239.462	0.160	0.267
-355.566	217.590	-0.154	0.247
-354.552	203.597	0.028	-0.044
-353.537	-200.000	-0.007	0.217
-352.523	81.649	0.058	0.063
-351.508	-200.000	-0.013	0.078
-350.493	-111.023	0.334	-0.069
-349.479	193.305	-0.026	0.039
-348.464	-0.948	-0.206	0.147
-347.450	-125.686	-0.179	0.027
-346.435	61.780	-0.195	-0.195
-345.420	174.921	0.078	0.114
-344.406	-200.000	-0.028	0.354
-343.391	83.414	0.133	-0.146
-342.377	-103.700	-0.200	0.047
-341.362	-200.000	-0.005	0.165
-340.348	-200.000	0.012	0.244
-339.333	-119.613	-0.070	-0.012
-338.318	-161.732	0.171	0.009
-337.304	-64.392	0.105	0.043
-336.289	289.391	-0.070	0.127
-335.275	53.851	0.396	0.382
-334.260	-53.527	-0.231	-0.106
-333.245	12.299	-0.244	0.189
-332.231	-1.335	0.208	0.147
-331.216	26.869	0.062	-0.052
-330.202	-55.958	-0.225	-0.101
-329.187	19.600	0.170	0.138
-328.172	-200.000	-0.007	-0.446
-327.158	-73.638	0.314	0.115
-326.143	139.775	0.188	0.248
-325.129	250.381	0.160	0.274
-324.114	-19.131	0.143	-0.089
-323.099	-72.765	-0.149	-0.055
-322.085	-9.709	0.219	-0.146
-321.070	202.314	-0.283	-0.438
-320.056	-200.000	0.099	0.445
-319.041	-146.905	0.317	0.027
-318.026	-200.000	0.004	-0.331
-317.012	-74.188	-0.206	-0.075
-315.997	-200.000	-0.026	-0.327
-314.983	183.370	-0.108	0.161
-313.968	398.625	0.045	0.096
-312.953	45.006	-0.220	-0.203
-311.939	472.344	0.042	0.095
-310.924	82.958	0.146	-0.159
-309.910	-61.820	0.112	0.047
-308.895	-175.747	0.172	0.005
-307.880	-200.000	-0.022	0.107
-306.866	-200.000	0.012	-0.215
-305.851	409.525	-0.118	-0.250
-304.837	458.139	0.153	-0.342
-303.822	240.227	0.070	-0.117
-302.807	-53.725	-0.156	0.072
-301.793	800.000	0.040	0.123
-300.778	56.012	0.087	0.084
-299.764	-20.883	-0.128	-0.079
-298.749	346.663	-0.157	-0.309
-297.735	-200.000	0.042	0.330
-296.720	800.000	0.029	-0.124
-295.705	-87.988	-0.210	-0.063
-294.691	-185.169	-0.240	0.004
-293.676	250.366	-0.168	0.286
-292.662	-138.623	-0.294	-0.032
-291.647	-83.732	-0.287	0.092
-290.632	152.552	0.077	0.106
-289.618	199.290	-0.127	0.195
-288.603	-155.531	-0.142	-0.009
-287.589	800.000	0.030	-0.112
-286.574	160.982	-0.369	-0.518
-285.559	10.316	-0.077	-0.059
-284.545	64.906	-0.104	0.106
-283.530	219.692	0.053	-0.085
-282.516	66.982	0.170	0.174
-281.501	-114.613	0.325	-0.063
-280.486	-7.095	0.074	0.050
-279.472	37.778	-0.105	0.094
-278.457	9.415	0.069	0.052
-277.443	-200.000	0.059	-0.449
-276.428	-200.000	-0.012	-0.174
-275.413	-200.000	0.038	-0.438
-274.399	800.000	-0.021	0.090
-273.384	-200.000	-0.009	-0.044
-272.370	1.248	-0.249	-0.180
-271.355	-200.000	-0.002	-0.159
-270.340	180.454	0.193	-0.284
-269.326	451.990	0.124	0.274
-268.311	70.977	-0.080	0.083
-267.297	-200.000	-0.044	-0.235
-266.282	137.120	0.142	0.185
-265.267	675.291	-0.074	0.192
-264.253	57.067	0.086	0.084
-263.238	-200.000	-0.002	0.017
-262.224	-200.000	-0.010	-0.176
-261.209	-52.286	-0.130	0.061
-260.195	177.345	-0.081	0.119
-259.180	-180.348	-0.134	0.003
-258.165	-47.495	-0.164	0.080
-257.151	-200.000	0.043	-0.209
-256.136	-200.000	0.004	-0.024
-255.122	-101.958	0.604	-0.146
-254.107	252.884	0.135	0.231
-253.092	702.003	-0.135	0.357
-252.078	701.353	0.107	-0.282
-251.063	-154.636	0.258	0.017
-250.049	20.308	0.148	-0.120
-249.034	163.154	0.175	-0.246
-248.019	30.828	-0.126	0.108
-247.005	145.006	0.202	0.271
-245.990	-200.000	-0.055	0.243
-244.976	-200.000	-0.017	0.159
-243.961	-200.000	-0.050	-0.318
-242.946	139.928	0.115	0.152
-241.932	22.534	0.096	0.079
-240.917	800.000	-0.149	0.423
-239.903	-200.000	0.005	0.067
-238.888	-6.658	0.123	-0.084
-237.873	21.371	-0.062	0.051
-236.859	800.000	0.054	-0.179
-235.844	295.544	0.040	0.073
-234.830	-200.000	0.061	0.460
-233.815	800.000	-0.094	0.382
-232.800	800.000	0.106	-0.346
-231.786	800.000	0.068	0.201
-230.771	800.000	-0.004	0.015
-229.757	-117.141	0.053	-0.010
-228.742	-113.435	-0.110	0.022
-227.727	800.000	-0.091	-0.361
-226.713	-166.141	-0.084	0.004
-225.698	586.609	-0.154	-0.378
-224.684	-200.000	0.015	-0.342
-223.669	-200.000	-0.027	-0.135
-222.655	47.725	0.173	0.162
-221.640	-37.097	-0.129	0.069
-220.625	-200.000	0.038	0.347
-219.611	68.319	0.135	0.139
-218.596	129.420	-0.147	0.187
-217.582	-73.645	0.231	-0.084
-216.567	-200.000	-0.171	-0.001
-215.552	435.681	-0.028	0.061
-214.538	123.852	0.343	-0.430
-213.523	-200.000	0.018	-0.186
-212.509	-58.208	0.503	0.219
-211.494	175.565	0.058	0.084
-210.479	-32.954	0.154	0.085
-209.465	-73.678	-0.204	-0.074
-208.450	-200.000	-0.025	-0.141
-207.436	13.090	-0.433	0.335
-206.421	-99.595	-0.130	-0.033
-205.406	-19.003	-0.268	-0.167
-204.392	216.615	-0.079	0.125
-203.377	14.384	0.249	0.194
-202.363	743.111	-0.043	0.116
-201.348	259.715	0.036	0.062
-200.333	-33.086	0.286	-0.158
-199.319	94.575	0.099	0.112
-198.304	146.721	-0.166	0.223
-197.290	-139.643	0.357	-0.038
-196.275	-73.213	-0.219	-0.080
-195.260	-200.000	0.045	-0.240
-194.246	252.861	0.184	-0.314
-193.231	-102.680	0.360	-0.086
-192.217	62.434	0.035	0.035
-191.202	-200.000	0.008	-0.240
-190.187	-149.396	-0.096	-0.008
-189.173	-127.024	0.121	0.018
-188.158	-151.583	0.187	0.014
-187.144	-200.000	0.065	-0.421
-186.129	625.774	-0.090	0.226
-185.114	11.452	-0.198	-0.152
-184.100	-200.000	0.042	-0.215
-183.085	70.559	-0.060	-0.062
-182.071	201.547	-0.154	-0.237
-181.056	8.044	-0.134	-0.101
-180.042	-72.424	-0.184	0.068
-179.027	800.000	0.103	0.450
-178.012	-52.894	-0.111	0.051
-176.998	800.000	0.031	0.110
-175.983	23.995	-0.161	0.133
-174.969	22.075	0.261	0.212
-173.954	514.395	0.131	0.304
-172.939	-86.926	-0.325	0.099
-171.925	19.475	-0.204	0.164
-170.910	56.471	0.134	0.130
-169.896	-66.587	-0.299	0.118
-168.881	35.069	0.133	0.116
-167.866	-200.000	0.037	-0.236
-166.852	185.414	-0.070	0.104
-165.837	800.000	-0.088	0.278
-164.823	42.702	-0.058	-0.053
-163.808	704.358	0.071	0.187
-162.793	362.651	-0.014	0.027
-161.779	160.347	-0.089	0.125
-160.764	-200.000	0.032	-0.173
-159.750	-79.005	-0.193	-0.065
-158.735	-85.480	0.160	-0.050
-157.720	313.045	0.088	0.165
-156.706	-200.000	0.010	0.067
-155.691	47.564	-0.023	0.021
-154.677	-200.000	0.019	0.109
-153.662	-34.080	0.374	0.205
-152.647	73.279	-0.069	-0.072
-151.633	122.226	-0.073	-0.091
-150.618	800.000	0.100	0.384
-149.604	112.464	-0.278	0.335
-148.589	120.698	0.098	-0.121
-147.574	-50.234	-0.041	-0.019
-146.560	-200.000	0.010	0.180
-145.545	-10.055	0.172	-0.114
-144.531	800.000	0.063	0.216
-143.516	20.904	0.249	0.201
-142.502	800.000	-0.052	-0.198
-141.487	-127.325	0.123	0.018
-140.472	-20.599	0.217	0.133
-139.458	362.658	0.087	0.175
-138.443	226.822	-0.178	0.289
-137.429	800.000	0.093	0.308
-136.414	-32.059	0.199	0.111
-135.399	-134.841	0.154	-0.019
-134.385	800.000	0.093	0.263
-133.370	-3.249	0.113	0.078
-132.356	-92.479	-0.294	0.082
-131.341	800.000	-0.020	-0.069
-130.326	0.931	0.091	-0.065
-129.312	800.000	0.079	-0.290
-128.297	269.352	0.157	0.275
-127.283	31.844	0.406	0.348
-126.268	-25.081	0.396	0.234
-125.253	-145.150	-0.057	0.005
-124.239	36.807	-0.145	-0.128
-123.224	99.259	-0.081	-0.093
-122.210	-59.666	-0.215	-0.092
-121.195	-93.784	-0.233	-0.064
-120.180	-4.697	0.181	0.125
-119.166	6.158	0.375	-0.277
-118.151	800.000	-0.078	0.286
-117.137	-200.000	-0.037	0.176
-116.122	-161.919	-0.336	0.017
-115.107	-200.000	-0.008	0.336
-114.093	-171.684	0.155	0.005
-113.078	390.560	0.119	-0.246
-112.064	-18.621	0.279	-0.173
-111.049	709.387	-0.077	0.204
-110.034	-119.329	0.251	0.044
-109.020	800.000	0.065	-0.246
-108.005	800.000	-0.096	-0.387
-106.991	69.654	0.128	0.131
-105.976	-55.086	0.329	-0.147
-104.962	-45.773	-0.102	0.050
-103.947	525.544	0.090	0.211
-102.932	-200.000	0.002	-0.059
-101.918	-200.000	0.000	-0.177
-100.903	-13.850	-0.146	-0.094
-99.889	-31.626	-0.333	0.186
-98.874	-99.167	-0.264	-0.066
-97.859	92.641	0.065	0.072
-96.845	-109.972	0.183	0.038
-95.830	616.636	0.089	-0.221
-94.816	-200.000	-0.034	0.619
-93.801	-136.219	-0.124	0.014
-92.786	6.743	-0.181	0.134
-91.772	150.325	-0.060	-0.081
-90.757	-110.916	0.232	0.047
-89.743	131.460	0.080	0.102
-88.728	166.415	-0.073	-0.103
-87.713	-51.518	0.175	0.081
-86.699	-95.231	-0.041	0.011
-85.684	236.115	-0.175	0.288
-84.670	303.814	0.115	-0.213
-83.655	254.919	0.068	-0.115
-82.640	-175.355	0.315	0.009
-81.626	47.363	0.138	-0.128
-80.611	-200.000	0.025	0.174
-79.597	-140.430	-0.351	0.036
-78.582	-200.000	-0.005	0.066
-77.567	-62.878	0.118	0.048
-76.553	800.000	-0.028	-0.102
-75.538	66.324	-0.097	0.098
-74.524	-158.012	-0.157	-0.009
-73.509	-132.420	-0.224	-0.029
-72.494	-120.272	0.151	-0.026
-71.480	-113.561	0.315	0.061
-70.465	-100.338	0.144	0.036
-69.451	327.605	-0.162	0.308
-68.436	-18.607	-0.060	-0.037
-67.422	138.822	0.157	0.205
-66.407	100.753	-0.239	0.276
-65.392	800.000	0.139	0.393
-64.378	-200.000	-0.048	0.452
-63.363	-118.799	0.248	-0.043
-62.349	-37.224	0.284	0.151
-61.334	123.668	-0.746	-0.931
-60.319	420.535	0.198	0.421
-59.305	-200.000	0.112	-0.606
-58.290	118.796	0.570	0.700
-57.276	493.128	0.608	1.387
-56.261	-200.000	90.012	509.248
-55.246	432.503	1430.109	3082.789
-54.232	142.029	2635.961	3473.996
-53.217	109.557	2240.295	2667.696
-52.203	47.334	1674.535	1550.164
-51.188	39.661	1403.412	1250.713
-50.173	36.519	1360.196	1192.795
-49.159	56.207	1404.482	1355.390
-48.144	60.226	1423.305	1398.676
-47.130	40.361	1380.424	1234.399
-46.115	36.536	1362.585	1194.805
-45.100	36.406	1357.705	1189.683
-44.086	36.321	1355.186	1186.905
-43.071	36.303	1353.146	1184.959
-42.057	36.282	1350.340	1182.325
-41.042	36.208	1349.162	1180.796
-40.027	36.353	1347.082	1179.817
-39.013	36.278	1345.466	1177.896
-37.998	36.356	1343.082	1176.237
-36.984	36.440	1341.215	1175.066
-35.969	36.461	1339.554	1173.691
-34.954	36.478	1337.827	1172.236
-33.940	36.486	1336.368	1170.957
-32.925	36.509	1335.316	1170.126
-31.911	36.592	1333.471	1168.969
-30.896	36.552	1331.796	1167.208
-29.881	36.549	1330.967	1166.423
-28.867	36.530	1329.069	1164.595
-27.852	36.590	1327.242	1163.308
-26.838	36.396	1326.801	1161.709
-25.823	36.479	1324.726	1160.347
-24.809	36.574	1323.135	1159.475
-23.794	36.587	1321.584	1158.146
-22.779	36.605	1319.974	1156.797
-21.765	36.570	1318.889	1155.594
-20.750	36.434	1318.073	1154.021
-19.736	36.432	1316.491	1152.576
-18.721	36.327	1315.214	1150.787
-17.706	36.365	1313.942	1149.859
-16.692	36.363	1312.667	1148.680
-15.677	36.426	1311.823	1148.272
-14.663	36.344	1310.537	1146.614
-13.648	36.425	1309.181	1145.865
-12.633	36.345	1308.536	1144.781
-11.619	36.389	1307.290	1143.903
-10.604	36.385	1306.547	1143.187
-9.590	36.322	1305.938	1142.232
-8.575	36.488	1304.015	1141.490
-7.560	36.365	1303.717	1140.456
-6.546	36.323	1302.938	1139.481
-5.531	36.339	1302.035	1138.742
-4.517	36.315	1300.898	1137.561
-3.502	36.319	1300.484	1137.176
-2.487	36.520	1298.426	1136.510
-1.473	36.375	1295.226	1132.816
-0.458	35.480	1280.593	1114.780
0.556	30.644	1261.689	1075.586
1.571	26.213	1265.731	1053.168
2.586	24.565	1279.231	1054.586
3.600	23.200	1267.915	1037.172
4.615	16.923	1191.004	939.503
5.629	6.188	1107.880	818.254
6.644	0.785	1084.757	773.521
7.659	0.340	1082.253	769.398
8.673	0.288	1080.659	767.934
9.688	0.168	1079.356	766.329
10.702	0.427	1077.957	766.583
11.717	6.107	1086.656	801.741
12.731	15.324	1098.204	857.517
13.746	18.315	1100.948	874.891
14.761	17.239	1098.869	867.671
15.775	16.199	1096.493	860.419
16.790	15.098	1094.647	853.285
17.804	14.449	1092.884	848.531
18.819	14.232	1091.676	846.418
19.834	13.774	1090.641	843.209
20.848	13.490	1089.835	841.074
21.863	13.351	1088.978	839.632
22.877	13.139	1088.438	838.064
23.892	13.020	1087.804	836.901
24.907	12.983	1087.077	836.080
25.921	13.190	1086.252	836.416
26.936	13.313	1084.866	835.898
27.950	13.236	1084.000	834.770
28.965	13.188	1083.302	833.914
29.980	13.371	1081.479	833.358
30.994	13.477	1080.493	833.056
32.009	13.346	1079.974	831.928
33.023	13.372	1078.746	831.037
34.038	13.368	1077.631	830.084
35.053	13.236	1076.900	828.786
36.067	13.253	1075.933	828.052
37.082	13.323	1075.280	827.827
38.096	13.305	1074.718	827.232
39.111	13.276	1074.051	826.498
40.126	13.346	1072.457	825.550
41.140	13.292	1071.379	824.378
42.155	13.207	1070.072	822.875
43.169	13.171	1069.185	821.941
44.184	13.046	1068.343	820.603
45.199	13.117	1066.876	819.756
46.213	13.178	1065.687	819.072
47.228	13.087	1065.148	818.133
48.242	13.373	1063.412	818.144
49.257	13.176	1062.686	816.535
50.271	13.279	1061.994	816.444
51.286	13.306	1061.268	815.943
52.301	13.246	1060.247	814.793
53.315	13.328	1058.825	814.031
54.330	13.286	1058.283	813.335
55.344	13.042	1057.650	811.577
56.359	13.118	1056.798	811.223
57.374	13.149	1055.556	810.353
58.388	13.109	1054.468	809.250
59.403	13.055	1054.067	808.605
60.417	13.057	1053.007	807.728
61.432	13.031	1052.397	807.063
62.447	13.076	1051.322	806.385
63.461	13.093	1050.264	805.586
64.476	13.118	1049.480	805.037
65.490	13.016	1048.515	803.729
66.505	13.073	1047.845	803.420
67.520	13.094	1047.503	803.188
68.534	13.175	1046.103	802.439
69.549	13.124	1045.277	801.486
70.563	13.179	1044.833	801.341
71.578	13.084	1044.265	800.377
72.593	12.965	1043.814	799.382
73.607	13.001	1042.768	798.683
74.622	12.908	1042.402	797.884
75.636	13.002	1041.153	797.313
76.651	12.993	1040.333	796.569
77.666	13.082	1039.677	796.425
78.680	13.038	1039.198	795.777
79.695	13.044	1038.498	795.197
80.709	13.109	1038.034	795.087
81.724	13.072	1037.084	794.110
82.739	13.169	1036.290	793.898
83.753	13.264	1035.083	793.360
84.768	13.221	1034.732	792.812
85.782	13.353	1033.157	792.167
86.797	13.367	1032.729	791.836
87.812	13.231	1032.111	790.645
88.826	13.260	1030.702	789.632
89.841	13.269	1029.951	789.033
90.855	13.266	1028.934	788.166
91.870	13.345	1028.338	788.017
92.884	13.198	1027.531	786.630
93.899	13.392	1026.280	786.525
94.914	13.485	1025.480	786.286
95.928	13.369	1024.708	785.073
96.943	13.430	1024.023	784.767
97.957	13.271	1023.110	783.245
98.972	13.377	1022.321	783.073
99.987	13.449	1021.124	782.429
101.001	13.322	1020.346	781.162
102.016	13.302	1019.510	780.358
103.030	13.317	1018.791	779.809
104.045	13.361	1017.865	779.240
105.060	13.260	1016.862	777.925
106.074	13.226	1016.246	777.226
107.089	13.173	1014.846	775.839
108.103	13.192	1013.893	775.130
109.118	13.236	1012.722	774.373
110.133	13.145	1012.232	773.504
111.147	13.278	1011.521	773.514
112.162	13.235	1010.530	772.486
113.176	13.298	1009.644	772.035
114.191	13.232	1008.935	771.116
115.206	13.193	1008.445	770.491
116.220	13.322	1006.861	769.814
117.235	13.258	1006.608	769.257
118.249	13.255	1005.642	768.435
119.264	13.176	1005.092	767.579
120.279	13.307	1003.682	767.042
121.293	13.254	1003.210	766.366
122.308	13.194	1002.513	765.491
123.322	13.273	1001.210	764.793
124.337	13.235	999.817	763.484
125.352	13.190	999.002	762.586
126.366	13.162	998.302	761.859
127.381	13.243	997.012	761.180
128.395	13.212	996.337	760.455
129.410	13.272	994.786	759.479
130.424	13.366	994.275	759.451
131.439	13.261	994.012	758.700
132.454	13.313	993.370	758.381
133.468	13.199	992.249	756.937
134.483	13.378	991.003	756.740
135.497	13.383	990.031	755.951
136.512	13.237	989.544	754.848
137.527	13.388	988.292	754.516
138.541	13.398	987.710	754.048
139.556	13.415	987.090	753.586
140.570	13.373	986.560	752.925
141.585	13.394	985.865	752.422
142.600	13.510	984.794	752.065
143.614	13.470	983.762	751.031
144.629	13.459	983.082	750.392
145.643	13.473	982.361	749.842
146.658	13.523	980.830	748.829
147.673	13.469	979.961	747.857
148.687	13.383	979.117	746.758
149.702	13.351	977.951	745.660
150.716	13.385	977.334	745.276
151.731	13.389	976.963	744.947
152.746	13.410	976.512	744.631
153.760	13.387	975.393	743.608
154.775	13.485	974.808	743.534
155.789	13.510	974.042	742.999
156.804	13.560	973.492	742.738
157.819	13.533	972.836	742.049
158.833	13.623	971.736	741.546
159.848	13.624	971.105	741.006
160.862	13.604	970.239	740.191
161.877	13.496	969.415	739.015
162.892	13.487	968.383	738.119
163.906	13.537	967.575	737.665
164.921	13.522	966.831	736.962
165.935	13.460	965.672	735.738
166.950	13.474	965.356	735.497
167.964	13.574	964.224	735.014
168.979	13.565	963.226	734.147
169.994	13.511	962.510	733.296
171.008	13.618	961.512	732.944
172.023	13.587	961.006	732.358
173.037	13.737	960.317	732.430
174.052	13.705	959.251	731.411
175.067	13.720	958.268	730.662
176.081	13.566	957.864	729.610
177.096	13.573	957.626	729.395
178.110	13.715	956.823	729.347
179.125	13.680	956.252	728.693
180.140	13.493	956.229	727.787
181.154	13.761	955.358	728.236
182.169	13.799	954.923	728.008
183.183	13.877	953.843	727.463
184.198	13.617	953.640	726.103
185.213	13.742	952.554	725.757
186.227	13.878	951.625	725.580
187.242	13.877	951.214	725.201
188.256	13.824	950.651	724.473
189.271	13.902	949.755	724.067
190.286	13.614	949.023	722.191
191.300	13.693	948.133	721.793
192.315	13.687	947.382	721.135
193.329	13.676	947.230	720.903
194.344	13.829	946.112	720.653
195.359	13.874	945.177	720.072
196.373	13.760	945.296	719.608
197.388	13.914	944.624	719.698
198.402	13.968	943.870	719.295
199.417	14.054	943.214	719.103
200.432	13.921	943.128	718.401
201.446	14.065	942.358	718.369
202.461	14.171	941.546	718.147
203.475	14.032	940.835	716.942
204.490	14.047	940.292	716.529
205.504	14.082	939.618	716.101
206.519	14.070	938.627	715.231
207.534	14.118	937.948	714.858
208.548	14.066	937.474	714.209
209.563	14.082	936.917	713.791
210.577	14.075	936.161	713.119
211.592	14.005	935.568	712.307
212.607	14.286	934.277	712.464
213.621	14.210	933.658	711.604
214.636	14.227	932.757	710.927
215.650	14.273	932.106	710.563
216.665	14.367	931.217	710.225
217.680	14.204	931.269	709.504
218.694	14.223	930.485	708.927
219.709	14.336	929.632	708.696
220.723	14.294	928.993	707.967
221.738	14.287	928.387	707.413
222.753	14.289	927.556	706.723
223.767	14.332	926.937	706.373
224.782	14.428	926.569	706.435
225.796	14.293	926.014	705.379
226.811	14.360	925.264	705.029
227.826	14.387	924.895	704.801
228.840	14.495	923.413	704.062
229.855	14.463	922.648	703.283
230.869	14.458	921.791	702.549
231.884	14.322	921.631	701.788
232.899	14.367	920.874	701.339
233.913	14.292	920.383	700.589
234.928	14.376	919.592	700.279
235.942	14.373	919.172	699.881
236.957	14.312	918.516	699.068
237.972	14.359	917.851	698.697
238.986	14.316	917.245	697.994
240.001	14.591	916.436	698.465
241.015	14.425	915.651	697.114
242.030	14.407	915.103	696.559
243.045	14.475	914.610	696.405
244.059	14.513	913.894	695.955
245.074	14.631	913.190	695.851
246.088	14.603	912.346	695.029
247.103	14.438	912.082	694.081
248.117	14.547	911.468	694.003
249.132	14.673	911.165	694.238
250.147	14.721	910.206	693.642
251.161	14.667	909.927	693.143
252.176	14.895	908.623	693.038
253.190	14.807	908.328	692.386
254.205	14.857	907.481	691.885
255.220	14.865	906.674	691.242
256.234	14.946	905.926	690.945
257.249	15.013	905.314	690.694
258.263	14.907	904.630	689.672
259.278	14.959	903.967	689.322
260.293	14.955	903.453	688.850
261.307	15.056	902.873	688.763
262.322	15.023	902.324	688.148
263.336	15.236	901.187	688.097
264.351	15.086	900.566	686.944
265.366	15.073	900.044	686.431
266.380	14.873	899.582	685.200
267.395	15.160	898.721	685.659
268.409	15.070	898.021	684.694
269.424	15.025	896.903	683.597
270.439	14.981	896.553	683.094
271.453	15.031	895.752	682.626
272.468	14.997	895.286	682.072
273.482	15.042	894.736	681.776
274.497	15.098	894.206	681.540
275.512	15.202	893.407	681.292
276.526	15.208	893.002	680.947
277.541	15.011	892.882	679.996
278.555	15.216	891.985	680.085
279.570	15.304	891.310	679.865
280.585	15.256	890.424	678.936
281.599	15.278	889.515	678.273
282.614	15.313	888.796	677.805
283.628	15.288	888.670	677.549
284.643	15.237	887.919	676.708
285.657	15.249	887.117	676.087
286.672	15.318	886.610	675.917
287.687	15.362	885.636	675.294
288.701	15.289	885.072	674.512
289.716	15.390	884.844	674.683
290.730	15.324	884.183	673.853
291.745	15.406	883.682	673.741
292.760	15.481	882.897	673.386
293.774	15.482	882.372	672.926
294.789	15.502	881.590	672.354
295.803	15.433	880.930	671.511
296.818	15.423	880.389	671.002
297.833	15.513	879.560	670.668
298.847	15.504	878.758	669.961
299.862	15.557	878.286	669.756
300.876	15.505	877.915	669.208
301.891	15.664	877.146	669.196
302.906	15.543	877.014	668.554
303.920	15.608	876.001	667.977
304.935	15.693	875.814	668.116
305.949	15.669	875.061	667.387
306.964	15.636	874.437	666.720
307.979	15.660	873.701	666.194
308.993	15.716	872.882	665.736
310.008	15.754	872.401	665.459
311.022	15.650	871.969	664.658
312.037	15.555	871.576	663.925
313.052	15.693	870.527	663.613
314.066	15.689	870.349	663.400
315.081	15.585	869.816	662.528
316.095	15.632	869.273	662.239
317.110	15.788	867.893	661.742
318.125	15.735	867.796	661.402
319.139	15.713	867.542	661.064
320.154	15.709	867.085	660.643
321.168	15.732	866.388	660.141
322.183	15.773	866.023	659.967
323.197	15.769	865.227	659.284
324.212	15.925	864.891	659.581
325.227	15.795	864.005	658.338
326.241	15.858	863.667	658.270
327.256	15.780	863.111	657.482
328.270	15.772	862.345	656.811
329.285	15.897	861.850	656.864
330.300	15.790	861.148	655.853
331.314	15.888	860.777	655.894
332.329	16.013	859.873	655.632
333.343	16.111	859.416	655.609
334.358	15.978	859.517	655.108
335.373	15.942	858.848	654.400
336.387	15.946	858.462	654.067
337.402	16.077	858.180	654.303
338.416	16.169	857.860	654.358
339.431	16.049	857.799	653.787
340.446	16.124	856.906	653.337
341.460	16.215	856.477	653.305
342.475	16.166	856.281	652.908
343.489	16.101	855.718	652.173
344.504	16.276	855.330	652.495
345.519	16.355	854.687	652.251
346.533	16.253	854.396	651.576
347.548	16.156	853.858	650.736
348.562	16.176	853.379	650.390
349.577	16.154	852.811	649.815
350.592	16.229	852.042	649.458
351.606	16.242	851.204	648.814
352.621	16.250	850.680	648.387
353.635	16.399	850.001	648.384
354.650	16.336	849.497	647.699
355.665	16.415	848.599	647.261
356.679	16.384	848.153	646.747
357.694	16.343	847.639	646.138
358.708	16.507	846.552	645.881
359.723	16.323	846.113	644.785
360.738	16.413	845.271	644.429
361.752	16.444	844.860	644.176
362.767	16.497	844.470	644.024
363.781	16.599	843.741	643.800
364.796	16.588	843.412	643.449
365.810	16.557	843.118	643.052
366.825	16.612	842.598	642.805
367.840	16.705	842.128	642.747
368.854	16.656	841.522	642.039
369.869	16.675	841.031	641.681
370.883	16.528	840.686	640.804
371.898	16.609	840.655	641.028
372.913	16.622	840.170	640.652
373.927	16.722	839.271	640.287
374.942	16.774	838.701	639.993
375.956	16.879	838.389	640.096
376.971	16.923	838.096	639.981
377.986	16.959	837.495	639.601
379.000	16.811	837.326	638.855
380.015	16.796	836.912	638.428
381.029	16.995	835.983	638.413
382.044	16.812	835.861	637.574
383.059	16.940	835.003	637.343
384.073	16.858	834.274	636.423
385.088	16.937	833.318	635.935
386.102	16.891	833.227	635.634
387.117	16.884	832.737	635.178
388.132	16.966	831.912	634.802
389.146	16.871	831.562	634.121
390.161	16.982	830.967	634.028
391.175	16.931	830.594	633.495
392.190	16.969	829.719	632.915
393.205	16.880	829.727	632.533
394.219	16.909	829.272	632.236
395.234	16.871	828.756	631.646
396.248	16.934	828.147	631.363
397.263	16.858	827.950	630.873
398.278	17.054	827.085	630.886
399.292	17.008	826.906	630.521
400.307	17.101	826.298	630.350
401.321	17.146	826.039	630.261
402.336	17.082	825.221	629.345
403.350	17.036	825.131	629.050
404.365	17.146	824.403	628.847
405.380	17.277	824.253	629.162
406.394	17.143	823.742	628.220
407.409	17.303	823.112	628.274
408.423	17.301	823.234	628.306
409.438	17.229	822.603	627.503
410.453	17.360	822.010	627.476
411.467	17.214	821.483	626.481
412.482	17.288	821.168	626.458
413.496	17.388	820.597	626.338
414.511	17.451	820.374	626.343
415.526	17.323	820.294	625.757
416.540	17.365	819.302	625.096
417.555	17.433	818.687	624.822
418.569	17.517	818.394	624.853
419.584	17.438	817.951	624.167
420.599	17.485	817.388	623.855
421.613	100.002	1280.946	1426.000
422.628	86.160	1348.490	1426.096
