DTS Sentinel unit serial number:	SN413079Multiplexer serial number:	ORYXHardware model number:	OX4-SRSoftware version number:	ORYX F/W v4.00 Oryx Data Collector v3.7.2.0data status	okinstallation	princeton_trtdifferential loss correction	single-endedforward channel	channel 1reverse channel	N/Adate	2019/09/10time	23:56:11forward acquisition time	60.00reverse acquisition time	0.00gamma	496.2192k internal	0.2331k external	0.2331temperature offset calibration	0.9936default loss term (dB/km)	0.3790temperature slope calibration	1.0000multiplexer offset coefficient	1.0000multiplexer slope coefficient	1.0000fibre end	0.00T internal ref (°C)	29.47T ext. ref 1 (°C)	-0.32T ext. ref 2 (°C)	23.06length (m)	temperature (°C)	Stokes	anti-Stokes-747.200	-75.288	0.306	-0.110
-746.185	-200.000	-0.014	0.099
-745.171	-123.402	0.327	0.052
-744.156	-7.654	-0.279	0.190
-743.142	4.429	0.134	0.099
-742.127	-73.890	0.239	-0.087
-741.112	800.000	-0.070	0.283
-740.098	475.357	-0.065	0.147
-739.083	72.010	0.050	-0.052
-738.069	-7.467	0.035	0.024
-737.054	-94.013	-0.250	0.069
-736.039	-142.504	-0.424	-0.042
-735.025	-55.026	0.233	0.105
-734.010	2.996	-0.121	-0.089
-732.996	-179.041	-0.321	-0.007
-731.981	103.760	0.065	-0.077
-730.966	35.855	0.126	-0.112
-729.952	-115.540	-0.134	0.025
-728.937	23.775	0.367	-0.304
-727.923	-200.000	0.046	-0.286
-726.908	-200.000	0.001	-0.095
-725.894	-200.000	-0.033	-0.181
-724.879	0.179	-0.319	0.229
-723.864	-12.879	0.140	0.092
-722.850	-164.853	0.220	-0.010
-721.835	215.972	0.204	-0.326
-720.821	36.580	-0.120	-0.107
-719.806	-200.000	-0.024	-0.195
-718.791	800.000	-0.026	0.110
-717.777	-31.517	-0.044	-0.025
-716.762	-4.122	0.230	0.160
-715.748	58.490	-0.112	0.111
-714.733	-200.000	0.047	-0.325
-713.718	800.000	-0.069	-0.302
-712.704	-80.296	-0.118	0.040
-711.689	-200.000	-0.010	-0.109
-710.675	-106.780	-0.308	0.069
-709.660	30.948	0.164	0.142
-708.645	-57.499	0.133	-0.059
-707.631	-70.203	0.160	0.061
-706.616	785.228	0.041	-0.113
-705.602	-17.087	-0.089	0.056
-704.587	-51.778	-0.323	-0.151
-703.572	-200.000	-0.046	-0.207
-702.558	659.023	-0.196	0.506
-701.543	-94.166	0.373	-0.103
-700.529	302.602	0.139	-0.258
-699.514	249.750	-0.189	0.321
-698.499	800.000	-0.064	0.255
-697.485	-108.811	0.251	0.054
-696.470	450.639	0.049	0.109
-695.456	731.247	-0.057	0.153
-694.441	390.688	-0.143	-0.298
-693.426	-167.057	-0.048	0.002
-692.412	88.688	-0.213	-0.237
-691.397	125.175	-0.094	-0.119
-690.383	30.143	-0.373	-0.319
-689.368	411.198	0.006	-0.013
-688.354	-92.967	-0.347	-0.097
-687.339	3.669	0.245	-0.180
-686.324	-200.000	-0.001	-0.098
-685.310	648.570	-0.037	-0.095
-684.295	9.438	-0.171	-0.130
-683.281	-123.687	-0.341	-0.054
-682.266	16.690	0.108	-0.086
-681.251	-200.000	0.000	-0.125
-680.237	-13.675	-0.215	-0.139
-679.222	-146.034	-0.102	-0.009
-678.208	-115.829	0.192	0.036
-677.193	-16.756	-0.191	0.121
-676.178	8.485	-0.127	-0.096
-675.164	190.216	-0.076	0.114
-674.149	-154.893	-0.271	-0.018
-673.135	-26.897	0.432	-0.253
-672.120	-200.000	-0.006	-0.246
-671.105	-200.000	0.030	-0.291
-670.091	-200.000	0.008	-0.401
-669.076	27.679	0.156	-0.132
-668.062	381.132	-0.155	-0.320
-667.047	57.128	-0.163	-0.159
-666.032	-27.674	0.074	-0.043
-665.018	-200.000	0.027	0.235
-664.003	83.504	0.126	0.137
-662.989	-200.000	0.004	0.221
-661.974	139.257	0.184	0.242
-660.959	-200.000	-0.058	-0.316
-659.945	34.976	0.044	-0.039
-658.930	110.528	0.060	0.073
-657.916	-151.792	0.573	0.042
-656.901	-120.485	-0.182	-0.031
-655.886	105.820	-0.173	-0.205
-654.872	800.000	0.041	-0.158
-653.857	-24.106	0.193	0.116
-652.843	-7.475	0.256	-0.174
-651.828	-66.587	-0.185	-0.074
-650.814	-200.000	-0.002	0.151
-649.799	-0.993	-0.157	-0.111
-648.784	-160.317	-0.211	-0.011
-647.770	800.000	-0.034	-0.135
-646.755	-41.015	0.169	-0.088
-645.741	-200.000	0.063	-0.570
-644.726	128.625	0.059	0.075
-643.711	800.000	0.070	0.285
-642.697	-95.068	0.347	0.094
-641.682	152.935	-0.181	0.248
-640.668	-195.088	0.178	0.001
-639.653	-54.083	-0.357	-0.163
-638.638	-35.615	0.199	-0.108
-637.624	81.339	0.112	-0.122
-636.609	-200.000	0.184	-0.000
-635.595	-95.302	-0.233	-0.063
-634.580	-200.000	-0.057	-0.288
-633.565	-63.325	0.027	-0.011
-632.551	-58.763	-0.227	0.098
-631.536	-200.000	-0.008	0.153
-630.522	-143.435	0.172	0.017
-629.507	208.477	0.095	0.148
-628.492	800.000	0.011	0.031
-627.478	120.134	0.052	0.065
-626.463	-146.010	0.075	-0.007
-625.449	-47.720	0.262	-0.127
-624.434	-67.844	-0.050	-0.019
-623.419	106.831	-0.277	-0.329
-622.405	-171.977	0.278	-0.009
-621.390	-200.000	0.012	-0.330
-620.376	467.360	-0.083	-0.187
-619.361	-95.528	-0.336	0.090
-618.346	260.190	-0.267	-0.463
-617.332	111.786	-0.037	0.045
-616.317	298.441	0.045	-0.084
-615.303	-7.555	0.498	0.337
-614.288	558.908	0.093	0.226
-613.273	-81.177	-0.183	-0.060
-612.259	158.329	-0.116	-0.161
-611.244	-58.861	0.100	0.043
-610.230	-200.000	0.020	-0.130
-609.215	49.654	0.154	-0.145
-608.201	800.000	-0.025	0.089
-607.186	800.000	-0.096	-0.344
-606.171	-19.889	-0.482	-0.298
-605.157	-46.021	-0.171	-0.084
-604.142	-127.974	-0.334	-0.048
-603.128	-28.347	0.081	-0.047
-602.113	51.168	0.170	-0.161
-601.098	-132.163	-0.257	-0.033
-600.084	-105.838	0.214	-0.048
-599.069	800.000	0.127	-0.379
-598.055	101.812	-0.052	0.061
-597.040	144.292	-0.154	0.206
-596.025	-0.418	-0.059	0.042
-595.011	-200.000	-0.003	0.098
-593.996	800.000	0.027	-0.096
-592.982	-200.000	0.012	0.166
-591.967	69.029	-0.215	-0.221
-590.952	-71.475	-0.125	-0.047
-589.938	259.333	-0.121	-0.209
-588.923	53.504	0.107	-0.103
-587.909	-85.244	-0.176	0.055
-586.894	-90.276	-0.313	0.091
-585.879	150.459	0.163	0.221
-584.865	-187.815	-0.297	0.004
-583.850	-147.298	0.196	-0.017
-582.836	162.582	-0.051	0.071
-581.821	10.737	-0.099	0.075
-580.806	329.655	-0.323	-0.621
-579.792	84.803	-0.172	-0.189
-578.777	-121.976	0.054	-0.009
-577.763	-66.258	0.090	-0.036
-576.748	175.462	-0.122	-0.176
-575.733	-171.124	-0.202	0.007
-574.719	-110.174	-0.158	-0.033
-573.704	-50.557	-0.141	-0.067
-572.690	28.323	0.269	0.228
-571.675	-86.816	-0.292	-0.089
-570.661	-53.030	-0.205	-0.094
-569.646	-153.983	0.166	-0.011
-568.631	-80.038	-0.118	-0.039
-567.617	119.623	0.212	-0.263
-566.602	565.605	0.051	-0.124
-565.588	-110.643	0.151	-0.031
-564.573	60.969	-0.107	-0.106
-563.558	186.779	-0.177	-0.263
-562.544	-200.000	0.052	-0.293
-561.529	387.294	-0.044	0.091
-560.515	168.046	-0.115	-0.163
-559.500	288.967	-0.051	0.092
-558.485	-103.380	0.343	0.081
-557.471	-145.115	-0.121	0.011
-556.456	53.165	-0.023	0.022
-555.442	140.595	0.203	-0.268
-554.427	-27.463	0.156	0.090
-553.412	686.991	0.083	-0.217
-552.398	202.951	-0.095	0.146
-551.383	293.324	0.110	-0.200
-550.369	-99.017	0.224	0.057
-549.354	-200.000	0.022	0.411
-548.339	-2.120	0.179	-0.126
-547.325	4.765	0.316	0.232
-546.310	62.863	0.186	0.186
-545.296	800.000	0.054	-0.166
-544.281	48.124	-0.085	-0.080
-543.266	-71.544	-0.325	0.121
-542.252	-145.227	-0.015	0.001
-541.237	168.007	-0.096	-0.136
-540.223	331.810	0.053	-0.102
-539.208	-182.509	-0.193	-0.004
-538.193	-22.058	-0.108	-0.066
-537.179	-200.000	-0.005	-0.116
-536.164	-80.481	-0.153	-0.051
-535.150	-50.800	-0.189	-0.089
-534.135	-48.404	0.345	-0.166
-533.121	649.215	-0.122	-0.311
-532.106	-200.000	-0.009	0.049
-531.091	-89.994	-0.091	-0.027
-530.077	18.609	-0.149	0.119
-529.062	-34.150	-0.104	0.057
-528.048	-16.473	-0.290	0.183
-527.033	800.000	0.073	-0.222
-526.018	800.000	-0.087	-0.292
-525.004	-109.221	0.395	-0.084
-523.989	105.470	-0.130	-0.153
-522.975	-200.000	-0.008	0.178
-521.960	-200.000	-0.041	0.199
-520.945	-87.725	-0.151	-0.045
-519.931	546.934	0.072	0.172
-518.916	4.198	0.120	-0.088
-517.902	-131.718	0.028	-0.004
-516.887	211.310	-0.098	0.153
-515.872	-57.757	-0.135	-0.059
-514.858	-200.000	-0.008	-0.224
-513.843	800.000	0.082	-0.270
-512.829	-27.313	-0.302	-0.175
-511.814	800.000	0.067	0.227
-510.799	730.230	-0.061	0.163
-509.785	-43.348	-0.235	0.118
-508.770	67.479	0.111	0.113
-507.756	9.047	0.069	-0.052
-506.741	-200.000	0.016	0.176
-505.726	-80.638	-0.173	-0.057
-504.712	-84.360	-0.283	-0.089
-503.697	-200.000	0.049	-0.222
-502.683	181.038	0.147	0.216
-501.668	-70.736	0.107	-0.040
-500.653	77.270	-0.096	-0.101
-499.639	-2.612	0.108	-0.075
-498.624	-200.000	-0.007	-0.153
-497.610	-56.339	-0.292	-0.129
-496.595	39.293	-0.107	-0.095
-495.581	-118.656	0.093	0.016
-494.566	204.368	0.158	0.244
-493.551	-95.638	-0.054	-0.015
-492.537	96.694	0.161	0.184
-491.522	-56.654	-0.240	0.106
-490.508	-200.000	0.041	0.183
-489.493	0.818	-0.200	-0.143
-488.478	64.427	-0.146	0.147
-487.464	180.737	-0.088	-0.129
-486.449	-135.328	-0.323	0.038
-485.435	-175.369	0.201	-0.005
-484.420	-47.271	-0.223	-0.108
-483.405	-122.801	0.376	0.060
-482.391	-116.470	0.339	-0.062
-481.376	141.250	0.038	0.051
-480.362	2.884	-0.111	0.080
-479.347	-37.537	0.373	-0.198
-478.332	185.875	0.096	-0.142
-477.318	131.388	-0.227	0.290
-476.303	-200.000	0.003	0.119
-475.289	800.000	-0.025	-0.074
-474.274	800.000	0.055	0.225
-473.259	-79.198	0.037	0.012
-472.245	-42.553	-0.220	-0.111
-471.230	198.051	-0.147	0.224
-470.216	115.769	0.173	0.211
-469.201	-200.000	0.053	0.286
-468.186	-200.000	-0.001	-0.223
-467.172	-70.258	0.121	-0.046
-466.157	-200.000	0.013	-0.265
-465.143	721.015	-0.047	0.125
-464.128	-121.931	-0.174	0.029
-463.113	76.643	0.062	0.065
-462.099	800.000	-0.048	-0.133
-461.084	800.000	0.105	0.302
-460.070	-153.572	-0.361	0.025
-459.055	-200.000	0.007	0.529
-458.040	-200.000	0.002	0.024
-457.026	-81.507	0.146	0.048
-456.011	-200.000	-0.004	0.144
-454.997	448.006	-0.187	-0.411
-453.982	32.752	-0.402	0.346
-452.968	677.097	-0.022	0.057
-451.953	587.141	0.050	-0.122
-450.938	168.166	0.244	0.346
-449.924	-164.461	-0.456	0.021
-448.909	800.000	0.037	0.129
-447.895	-90.560	0.335	-0.096
-446.880	228.116	0.083	0.135
-445.865	-86.786	0.330	0.100
-444.851	383.833	0.053	0.108
-443.836	438.982	-0.084	-0.181
-442.822	-176.107	-0.159	0.004
-441.807	-119.067	-0.186	0.032
-440.792	-200.000	-0.085	0.486
-439.778	339.355	0.228	0.443
-438.763	-200.000	0.009	-0.113
-437.749	-200.000	-0.037	0.246
-436.734	26.516	-0.150	-0.125
-435.719	-54.602	0.178	0.080
-434.705	-200.000	0.052	-0.283
-433.690	241.977	0.058	0.097
-432.676	61.808	0.185	-0.183
-431.661	234.210	-0.076	-0.125
-430.646	800.000	-0.051	0.173
-429.632	-200.000	-0.035	0.182
-428.617	473.803	0.139	-0.311
-427.603	-200.000	0.057	-0.329
-426.588	-200.000	-0.020	0.106
-425.573	-29.805	0.305	-0.173
-424.559	469.568	0.135	-0.300
-423.544	-95.230	0.276	-0.074
-422.530	552.446	-0.004	-0.009
-421.515	-89.061	0.012	0.003
-420.500	-200.000	-0.024	-0.442
-419.486	-141.640	0.196	0.020
-418.471	-153.028	0.193	-0.013
-417.457	122.237	0.157	0.195
-416.442	-128.117	0.332	0.047
-415.428	-52.841	-0.215	0.098
-414.413	-151.780	-0.091	-0.007
-413.398	800.000	0.051	0.173
-412.384	14.220	-0.531	-0.411
-411.369	451.861	0.161	0.354
-410.355	-104.871	-0.263	0.060
-409.340	563.782	-0.141	-0.340
-408.325	-34.521	-0.120	0.066
-407.311	800.000	0.047	0.175
-406.296	134.185	0.233	-0.300
-405.282	633.009	-0.069	0.175
-404.267	40.311	-0.098	-0.087
-403.252	-200.000	0.039	-0.370
-402.238	800.000	0.018	-0.069
-401.223	-6.490	0.267	0.180
-400.209	-93.459	-0.248	0.068
-399.194	186.956	0.226	-0.335
-398.179	21.831	-0.211	-0.170
-397.165	800.000	0.076	-0.250
-396.150	-200.000	0.001	-0.173
-395.136	83.121	-0.159	0.171
-394.121	177.119	-0.282	0.408
-393.106	800.000	-0.096	-0.394
-392.092	-200.000	-0.019	-0.190
-391.077	-200.000	0.015	0.448
-390.063	-200.000	-0.031	0.341
-389.048	800.000	0.091	0.383
-388.033	-30.353	0.153	0.086
-387.019	-200.000	0.022	-0.138
-386.004	-36.029	-0.355	-0.190
-384.990	-80.575	-0.119	-0.039
-383.975	-163.947	0.068	0.003
-382.960	-200.000	0.099	-0.446
-381.946	-2.481	-0.087	-0.060
-380.931	138.610	-0.230	0.299
-379.917	0.431	-0.147	-0.104
-378.902	-120.287	-0.166	-0.028
-377.888	800.000	0.020	0.069
-376.873	251.954	0.031	-0.053
-375.858	-24.169	0.185	0.110
-374.844	800.000	-0.105	0.318
-373.829	-200.000	-0.060	-0.270
-372.815	167.739	-0.137	-0.193
-371.800	-125.918	-0.263	0.039
-370.785	-53.216	-0.127	-0.058
-369.771	118.413	0.153	0.188
-368.756	-200.000	-0.014	-0.105
-367.742	18.676	-0.213	0.169
-366.727	228.188	0.157	-0.254
-365.712	800.000	0.057	0.156
-364.698	-200.000	-0.020	-0.194
-363.683	274.686	-0.128	0.225
-362.669	293.439	-0.104	-0.189
-361.654	62.234	-0.056	-0.056
-360.639	-190.978	-0.228	-0.002
-359.625	152.273	-0.214	-0.290
-358.610	-128.622	-0.161	-0.023
-357.596	-200.000	0.004	0.279
-356.581	255.054	0.159	0.270
-355.566	-95.970	-0.263	0.069
-354.552	-178.315	0.302	0.007
-353.537	38.902	0.340	0.301
-352.523	-121.092	0.206	-0.034
-351.508	34.905	-0.049	0.042
-350.493	800.000	-0.079	-0.275
-349.479	-200.000	0.052	-0.445
-348.464	479.344	0.185	-0.415
-347.450	372.537	0.087	-0.175
-346.435	-200.000	-0.029	-0.157
-345.420	233.332	-0.282	0.459
-344.406	-200.000	-0.040	-0.261
-343.391	375.465	-0.075	-0.151
-342.377	800.000	0.027	-0.108
-341.362	87.030	0.160	-0.175
-340.348	269.922	0.032	-0.055
-339.333	-145.419	0.271	-0.024
-338.318	-109.573	0.056	0.012
-337.304	34.142	-0.218	-0.189
-336.289	-154.455	0.121	0.008
-335.275	-96.553	0.334	-0.087
-334.260	-140.443	0.024	-0.003
-333.245	270.748	0.264	0.460
-332.231	299.874	0.026	0.047
-331.216	178.146	0.163	-0.235
-330.202	77.702	0.379	0.400
-329.187	-112.734	-0.307	-0.060
-328.172	216.286	0.038	0.060
-327.158	126.445	0.274	-0.344
-326.143	-124.666	0.077	0.012
-325.129	-59.793	0.123	0.052
-324.114	10.156	0.264	-0.199
-323.099	323.028	0.063	-0.120
-322.085	30.809	0.177	0.150
-321.070	-69.578	-0.152	-0.057
-320.056	-200.000	-0.024	-0.178
-319.041	-51.449	0.192	0.089
-318.026	11.003	-0.201	-0.152
-317.012	-15.347	0.163	0.103
-315.997	800.000	-0.065	0.210
-314.983	-141.125	0.176	0.018
-313.968	-23.031	-0.293	0.175
-312.953	800.000	0.093	0.362
-311.939	-200.000	-0.017	0.318
-310.924	-200.000	0.002	-0.110
-309.910	296.481	0.087	0.158
-308.895	-200.000	-0.013	0.213
-307.880	97.140	0.222	0.252
-306.866	135.068	0.128	0.165
-305.851	800.000	0.036	0.125
-304.837	-200.000	-0.033	-0.165
-303.822	268.355	0.065	-0.113
-302.807	-200.000	0.036	0.179
-301.793	268.924	-0.127	-0.220
-300.778	101.321	-0.023	0.026
-299.764	661.694	0.160	0.408
-298.749	-105.934	0.206	0.046
-297.735	631.992	-0.058	0.146
-296.720	-7.022	-0.140	0.094
-295.705	-40.855	0.118	0.060
-294.691	116.169	0.272	0.329
-293.676	800.000	0.052	0.226
-292.662	58.246	-0.015	-0.014
-291.647	-200.000	0.001	-0.010
-290.632	-184.909	0.189	-0.003
-289.618	-200.000	0.030	0.144
-288.603	569.220	-0.059	0.141
-287.589	175.055	-0.066	0.094
-286.574	188.043	0.173	0.256
-285.559	69.865	-0.050	-0.051
-284.545	-60.618	-0.124	-0.052
-283.530	215.077	0.136	0.213
-282.516	-94.913	0.115	0.031
-281.501	438.189	0.132	0.284
-280.486	80.444	0.148	-0.157
-279.472	-110.265	0.030	-0.006
-278.457	-200.000	0.090	0.550
-277.443	-200.000	0.047	0.215
-276.428	-138.806	0.195	0.021
-275.413	51.584	-0.240	0.226
-274.399	-79.822	0.311	0.103
-273.384	-197.898	-0.204	0.001
-272.370	-23.745	-0.053	-0.031
-271.355	-15.549	-0.196	0.123
-270.340	-160.280	0.150	-0.008
-269.326	-200.000	0.020	-0.237
-268.311	64.967	-0.124	-0.124
-267.297	-147.317	-0.278	-0.023
-266.282	-19.267	-0.291	0.178
-265.267	800.000	0.030	-0.102
-264.253	145.775	0.124	0.164
-263.238	-79.653	-0.114	-0.038
-262.224	541.371	0.101	-0.237
-261.209	800.000	0.102	0.338
-260.195	179.756	0.147	-0.212
-259.180	215.614	-0.033	0.052
-258.165	-68.338	0.208	0.080
-257.151	-71.942	-0.213	-0.078
-256.136	600.655	0.102	-0.251
-255.122	-110.808	0.101	0.021
-254.107	256.686	-0.084	-0.142
-253.092	63.455	0.148	0.146
-252.078	800.000	-0.010	-0.036
-251.063	-174.489	-0.295	0.008
-250.049	-124.264	0.077	0.012
-249.034	-200.000	-0.002	-0.156
-248.019	-30.363	-0.065	-0.037
-247.005	800.000	0.021	-0.075
-245.990	-200.000	0.012	-0.316
-244.976	-10.282	-0.112	-0.074
-243.961	124.837	-0.078	0.097
-242.946	-47.906	0.083	-0.039
-241.932	191.952	0.199	0.295
-240.917	800.000	0.171	-0.523
-239.903	-39.075	-0.234	-0.121
-238.888	-200.000	-0.013	0.114
-237.873	292.995	-0.083	0.150
-236.859	-109.604	-0.290	-0.060
-235.844	-16.323	0.296	-0.185
-234.830	262.265	-0.085	0.145
-233.815	109.126	0.176	-0.208
-232.800	-123.541	0.236	-0.037
-231.786	754.493	-0.044	0.118
-230.771	-200.000	-0.009	-0.105
-229.757	-112.016	-0.312	-0.062
-228.742	-5.584	-0.183	-0.124
-227.727	-200.000	-0.027	0.248
-226.713	-167.703	0.190	-0.007
-225.698	-40.093	0.262	0.135
-224.684	653.755	0.073	0.184
-223.669	-116.142	-0.123	-0.023
-222.655	194.275	-0.111	-0.165
-221.640	-99.653	-0.106	-0.026
-220.625	-5.029	0.098	0.067
-219.611	-2.064	0.170	0.118
-218.596	-158.787	-0.137	-0.008
-217.582	94.974	-0.123	-0.138
-216.567	800.000	0.060	-0.218
-215.552	-33.921	-0.183	0.099
-214.538	111.775	0.116	0.138
-213.523	222.326	0.055	-0.088
-212.509	747.840	-0.074	0.196
-211.494	800.000	0.088	0.281
-210.479	800.000	-0.104	0.321
-209.465	269.697	-0.157	0.271
-208.450	-132.600	-0.071	0.009
-207.436	322.715	-0.052	0.097
-206.421	168.046	0.125	0.175
-205.406	328.585	0.191	0.362
-204.392	432.931	-0.096	-0.205
-203.377	464.689	0.063	-0.138
-202.363	-79.755	-0.159	0.053
-201.348	-34.328	0.245	-0.132
-200.333	20.772	0.296	0.236
-199.319	-169.938	0.211	0.007
-198.304	184.795	0.233	0.340
-197.290	-63.939	-0.377	-0.152
-196.275	-107.224	-0.108	0.023
-195.260	49.879	-0.152	-0.142
-194.246	800.000	-0.047	0.135
-193.231	-200.000	-0.031	0.163
-192.217	445.008	0.110	-0.239
-191.202	800.000	-0.048	0.138
-190.187	-68.664	-0.027	-0.010
-189.173	251.923	-0.273	0.457
-188.158	-10.994	-0.205	-0.133
-187.144	-200.000	-0.016	0.208
-186.129	43.086	0.237	0.213
-185.114	112.524	-0.024	0.029
-184.100	-131.121	0.328	0.043
-183.085	13.415	-0.065	0.050
-182.071	283.777	-0.269	-0.476
-181.056	-129.144	0.080	0.011
-180.042	233.264	0.132	-0.213
-179.027	800.000	-0.109	-0.349
-178.012	99.568	0.165	-0.188
-176.998	-200.000	-0.002	0.070
-175.983	5.583	-0.226	0.164
-174.969	-71.927	0.079	0.029
-173.954	-118.978	0.135	0.023
-172.939	-55.579	0.108	0.047
-171.925	-56.861	-0.310	-0.135
-170.910	43.135	0.127	-0.114
-169.896	-200.000	-0.010	-0.118
-168.881	149.694	0.050	0.067
-167.866	-160.818	0.360	0.019
-166.852	-134.941	0.224	0.027
-165.837	242.770	0.176	0.290
-164.823	-135.540	0.113	-0.013
-163.808	21.295	-0.201	0.160
-162.793	180.837	0.090	0.130
-161.779	4.540	0.089	0.064
-160.764	-200.000	-0.020	-0.244
-159.750	5.173	0.118	-0.086
-158.735	-119.772	0.103	-0.018
-157.720	-200.000	-0.065	0.296
-156.706	218.892	-0.136	-0.214
-155.691	41.424	-0.124	0.111
-154.677	-124.186	0.081	0.012
-153.662	-200.000	0.063	0.300
-152.647	800.000	-0.037	0.143
-151.633	-19.390	0.073	0.044
-150.618	-149.385	0.179	0.014
-149.604	-82.455	-0.373	-0.119
-148.589	-122.068	-0.284	-0.046
-147.574	-13.379	0.221	0.141
-146.560	-76.732	0.266	-0.092
-145.545	-64.650	0.151	0.060
-144.531	101.842	-0.221	0.253
-143.516	-70.707	0.168	0.062
-142.502	28.055	0.201	-0.167
-141.487	-200.000	0.005	-0.215
-140.472	-4.573	0.099	0.067
-139.458	800.000	-0.090	0.312
-138.443	0.602	-0.298	-0.209
-137.429	6.000	0.096	-0.070
-136.414	-200.000	0.013	0.148
-135.399	-200.000	-0.058	-0.340
-134.385	157.169	0.166	0.225
-133.370	-103.826	0.050	0.011
-132.356	-86.519	0.189	0.057
-131.341	-200.000	0.001	-0.303
-130.326	-200.000	-0.015	-0.243
-129.312	-200.000	0.008	0.108
-128.297	-98.057	-0.218	0.055
-127.283	726.562	-0.134	0.350
-126.268	239.017	-0.179	0.293
-125.253	72.518	0.058	0.059
-124.239	-78.705	0.152	0.051
-123.224	800.000	0.033	0.108
-122.210	-25.566	0.037	-0.021
-121.195	127.986	0.139	-0.174
-120.180	-156.804	0.329	-0.020
-119.166	-36.987	0.284	0.149
-118.151	211.112	-0.108	0.167
-117.137	51.216	-0.107	0.100
-116.122	390.583	0.152	0.309
-115.107	-154.897	0.199	-0.013
-114.093	244.480	0.326	0.538
-113.078	-200.000	0.056	-0.420
-112.064	-200.000	-0.054	0.322
-111.049	88.518	0.112	0.122
-110.034	59.203	-0.138	-0.133
-109.020	760.146	-0.090	0.240
-108.005	-79.595	0.417	-0.138
-106.991	-190.642	-0.055	-0.001
-105.976	-10.175	-0.068	0.044
-104.962	-200.000	-0.012	0.098
-103.947	-34.961	0.131	-0.070
-102.932	-133.544	0.218	0.027
-101.918	-65.123	-0.125	-0.049
-100.903	-159.070	-0.043	0.002
-99.889	-200.000	-0.082	0.439
-98.874	-200.000	0.020	0.298
-97.859	370.070	-0.169	-0.337
-96.845	-49.760	0.152	-0.071
-95.830	-128.770	-0.129	-0.018
-94.816	95.088	0.080	-0.090
-93.801	209.168	0.063	0.097
-92.786	-126.868	-0.170	-0.025
-91.772	-49.766	0.057	0.026
-90.757	37.675	0.043	0.038
-89.743	-64.866	0.173	0.069
-88.728	177.702	-0.049	-0.070
-87.713	800.000	0.109	-0.299
-86.699	-60.809	0.146	-0.061
-85.684	62.066	0.015	-0.015
-84.670	800.000	-0.063	0.242
-83.655	-200.000	-0.059	0.315
-82.640	-84.633	0.206	0.064
-81.626	-200.000	0.043	0.486
-80.611	-200.000	0.003	0.032
-79.597	-59.583	0.103	-0.044
-78.582	-43.184	0.116	0.058
-77.567	308.062	0.077	-0.140
-76.553	69.450	0.183	0.185
-75.538	494.916	-0.143	0.322
-74.524	279.672	0.059	0.103
-73.509	-200.000	-0.007	-0.109
-72.494	800.000	0.037	-0.101
-71.480	206.242	0.185	-0.282
-70.465	273.231	0.144	0.249
-69.451	800.000	-0.056	0.198
-68.436	-174.878	0.076	0.002
-67.422	244.006	0.126	0.207
-66.407	107.797	-0.269	0.314
-65.392	-6.465	0.159	0.106
-64.378	165.169	0.234	0.324
-63.363	-200.000	-0.019	0.142
-62.349	-12.722	-0.149	0.095
-61.334	83.542	-1.056	-1.128
-60.319	-33.797	0.495	0.267
-59.305	404.051	-0.626	-1.292
-58.290	416.082	0.544	1.136
-57.276	223.687	0.934	1.477
-56.261	-200.000	105.949	623.480
-55.246	526.136	1501.723	3464.565
-54.232	177.806	2692.001	3844.627
-53.217	112.205	2156.275	2553.360
-52.203	41.384	1595.890	1414.083
-51.188	33.006	1332.279	1130.580
-50.173	29.871	1290.999	1077.286
-49.159	54.641	1345.018	1270.160
-48.144	54.631	1360.887	1285.033
-47.130	33.133	1315.204	1116.662
-46.115	29.600	1298.101	1081.457
-45.100	29.426	1293.112	1076.239
-44.086	29.322	1290.380	1073.317
-43.071	29.322	1287.576	1070.947
-42.057	29.248	1286.119	1069.263
-41.042	29.314	1284.520	1068.269
-40.027	29.373	1282.957	1067.272
-39.013	29.433	1280.707	1065.705
-37.998	29.455	1279.022	1064.388
-36.984	29.369	1277.547	1062.622
-35.969	29.506	1275.380	1061.564
-34.954	29.434	1274.035	1059.986
-33.940	29.466	1272.532	1058.878
-32.925	29.471	1271.594	1058.087
-31.911	29.533	1269.964	1057.041
-30.896	29.550	1268.550	1055.919
-29.881	29.612	1267.273	1055.168
-28.867	29.646	1265.430	1053.790
-27.852	29.565	1263.790	1051.921
-26.838	29.531	1262.770	1050.837
-25.823	29.587	1261.378	1049.952
-24.809	29.598	1260.029	1048.852
-23.794	29.567	1258.814	1047.623
-22.779	29.551	1257.857	1046.693
-21.765	29.543	1256.155	1045.193
-20.750	29.599	1254.719	1044.272
-19.736	29.450	1253.722	1042.560
-18.721	29.402	1252.448	1041.185
-17.706	29.418	1251.248	1040.236
-16.692	29.392	1250.320	1039.278
-15.677	29.450	1249.364	1038.770
-14.663	29.487	1247.984	1037.788
-13.648	29.431	1246.942	1036.563
-12.633	29.403	1246.169	1035.726
-11.619	29.393	1245.662	1035.207
-10.604	29.451	1244.276	1034.337
-9.590	29.475	1243.197	1033.532
-8.575	29.302	1242.799	1032.196
-7.560	29.317	1242.090	1031.648
-6.546	29.474	1240.657	1031.293
-5.531	29.302	1240.258	1029.961
-4.517	29.334	1239.300	1029.304
-3.502	29.422	1238.581	1029.153
-2.487	29.445	1237.546	1028.384
-1.473	29.433	1233.272	1024.725
-0.458	27.789	1218.450	1003.342
0.556	22.079	1201.255	965.795
1.571	18.554	1206.848	950.695
2.586	17.751	1221.418	957.580
3.600	17.511	1210.643	947.717
4.615	12.841	1139.775	867.632
5.629	4.133	1066.230	768.537
6.644	-0.096	1046.591	733.693
7.659	-0.293	1043.872	730.761
8.673	-0.411	1042.674	729.286
9.688	-0.479	1041.574	728.119
10.702	0.005	1039.228	728.764
11.717	5.507	1047.249	761.141
12.731	14.615	1059.831	814.876
13.746	19.056	1065.493	840.906
14.761	19.914	1066.223	845.602
15.775	19.787	1066.132	844.833
16.790	19.604	1064.959	842.937
17.804	19.557	1064.796	842.503
18.819	19.631	1064.451	842.516
19.834	19.725	1063.963	842.515
20.848	19.809	1063.175	842.226
21.863	19.620	1063.021	841.110
22.877	19.620	1062.136	840.333
23.892	19.572	1061.503	839.524
24.907	19.687	1060.517	839.229
25.921	19.826	1059.064	838.680
26.936	19.774	1057.581	837.179
27.950	19.643	1056.340	835.488
28.965	19.476	1054.427	833.096
29.980	19.686	1052.707	832.677
30.994	19.731	1052.005	832.264
32.009	19.725	1050.955	831.331
33.023	19.562	1048.984	828.916
34.038	19.715	1048.318	829.052
35.053	19.761	1048.351	829.224
36.067	19.838	1047.332	828.713
37.082	19.877	1046.737	828.354
38.096	20.017	1045.686	828.119
39.111	20.016	1045.111	827.585
40.126	19.895	1043.543	825.694
41.140	19.555	1041.717	822.558
42.155	19.507	1040.484	821.281
43.169	19.536	1039.329	820.434
44.184	19.426	1038.553	819.229
45.199	19.352	1037.664	818.105
46.213	19.450	1036.073	817.239
47.228	19.508	1035.693	817.143
48.242	19.578	1034.911	816.784
49.257	19.750	1033.515	816.422
50.271	19.818	1033.059	816.311
51.286	19.786	1031.993	815.246
52.301	19.861	1031.423	815.078
53.315	19.870	1029.664	813.659
54.330	19.781	1029.091	812.713
55.344	19.744	1028.748	812.200
56.359	19.674	1027.315	810.668
57.374	19.512	1026.394	809.108
58.388	19.626	1025.815	809.114
59.403	19.443	1024.923	807.485
60.417	19.291	1024.436	806.316
61.432	19.379	1023.527	805.941
62.447	19.566	1022.838	806.198
63.461	19.691	1022.056	806.098
64.476	19.529	1021.061	804.484
65.490	19.579	1019.686	803.563
66.505	19.534	1019.865	803.423
67.520	19.691	1018.558	803.053
68.534	19.495	1017.326	801.100
69.549	19.081	1016.848	798.732
70.563	19.180	1015.732	798.244
71.578	19.242	1014.576	797.553
72.593	19.026	1013.994	796.026
73.607	19.216	1013.306	796.294
74.622	19.467	1013.138	797.249
75.636	19.424	1012.441	796.430
76.651	19.331	1011.479	795.178
77.666	19.173	1010.885	793.912
78.680	19.457	1010.204	794.616
79.695	19.490	1008.923	793.687
80.709	19.369	1008.628	792.829
81.724	19.316	1007.551	791.668
82.739	19.577	1006.350	791.852
83.753	19.791	1006.156	792.609
84.768	19.932	1005.172	792.413
85.782	20.102	1004.071	792.247
86.797	19.966	1003.299	790.949
87.812	19.879	1002.156	789.580
88.826	19.869	1001.716	789.120
89.841	20.073	1000.373	788.921
90.855	19.966	999.547	787.713
91.870	19.856	998.627	786.416
92.884	19.842	997.468	785.372
93.899	19.780	996.401	784.180
94.914	19.982	995.841	784.585
95.928	19.935	994.454	783.211
96.943	19.654	993.246	780.921
97.957	19.413	992.061	778.833
98.972	19.234	991.051	777.165
99.987	19.485	990.616	777.883
101.001	19.612	989.686	777.655
102.016	19.755	988.796	777.534
103.030	19.601	987.425	775.693
104.045	19.270	986.949	773.766
105.060	19.287	985.447	772.594
106.074	19.565	984.987	773.414
107.089	19.943	984.161	774.387
108.103	19.751	983.351	772.821
109.118	19.597	981.883	770.912
110.133	19.690	980.610	770.260
111.147	19.403	979.694	768.195
112.162	19.349	978.997	767.340
113.176	19.412	978.382	767.071
114.191	19.355	976.996	765.661
115.206	19.117	976.243	763.950
116.220	19.039	975.682	763.095
117.235	19.318	974.402	763.261
118.249	19.330	973.696	762.693
119.264	19.277	972.601	761.536
120.279	19.330	972.292	761.461
121.293	19.427	971.480	761.184
122.308	19.383	970.305	760.001
123.322	19.319	969.323	758.886
124.337	19.257	967.497	757.117
125.352	18.672	966.347	753.582
126.366	18.802	964.741	752.832
127.381	19.386	964.956	755.494
128.395	19.723	964.601	756.623
129.410	19.715	963.597	755.735
130.424	19.755	962.477	754.961
131.439	19.806	961.034	753.988
132.454	19.740	960.364	753.108
133.468	19.755	959.405	752.355
134.483	19.907	958.676	752.377
135.497	20.092	957.674	752.327
136.512	19.962	957.609	751.642
137.527	20.050	956.183	750.840
138.541	19.968	955.584	749.949
139.556	20.059	954.873	749.720
140.570	19.967	954.261	748.771
141.585	20.080	953.007	748.208
142.600	19.996	951.877	746.893
143.614	20.204	951.153	747.159
144.629	20.254	950.165	746.528
145.643	20.095	949.101	744.945
146.658	19.989	947.853	743.444
147.673	19.855	946.698	741.896
148.687	19.802	946.337	741.322
149.702	19.754	944.850	739.885
150.716	19.789	944.151	739.422
151.731	19.892	943.462	739.256
152.746	20.205	942.663	739.902
153.760	20.207	942.081	739.387
154.775	20.207	941.284	738.699
155.789	20.137	940.320	737.579
156.804	20.114	939.212	736.545
157.819	20.169	938.665	736.286
158.833	20.228	938.123	736.046
159.848	20.120	937.064	734.693
160.862	19.962	935.996	733.122
161.877	20.100	934.960	732.825
162.892	20.280	934.307	733.010
163.906	20.233	932.913	731.654
164.921	19.898	932.869	730.144
165.935	20.054	931.790	729.888
166.950	20.095	930.345	728.865
167.964	20.184	929.121	728.216
168.979	19.979	928.109	726.500
169.994	19.972	927.218	725.706
171.008	20.250	926.935	726.587
172.023	20.193	925.914	725.484
173.037	20.054	924.385	723.641
174.052	19.992	923.727	722.803
175.067	19.988	923.198	722.308
176.081	20.157	922.967	722.769
177.096	19.923	922.042	721.006
178.110	19.627	921.371	719.185
179.125	19.491	920.810	718.119
180.140	19.702	919.801	718.143
181.154	19.713	919.552	717.933
182.169	19.964	919.838	719.132
183.183	20.160	919.051	719.270
184.198	20.016	918.002	717.789
185.213	20.127	916.925	717.339
186.227	20.153	916.483	717.040
187.242	20.102	916.059	716.435
188.256	20.218	915.102	716.099
189.271	20.228	914.437	715.559
190.286	19.903	913.402	713.346
191.300	19.320	912.109	709.872
192.315	18.658	910.614	705.925
193.329	18.801	910.001	705.975
194.344	19.407	911.054	709.223
195.359	20.079	910.399	711.410
196.373	20.100	909.726	710.906
197.388	19.862	909.139	709.406
198.402	19.889	908.173	708.703
199.417	19.930	907.275	708.107
200.432	19.613	906.454	706.108
201.446	19.497	906.137	705.324
202.461	19.523	905.268	704.690
203.475	18.788	903.168	700.000
204.490	18.170	901.924	696.459
205.504	19.021	902.796	700.538
206.519	19.624	902.478	702.684
207.534	19.714	901.886	702.525
208.548	20.157	901.541	703.991
209.563	19.847	900.699	702.013
210.577	19.847	900.101	701.486
211.592	20.235	899.898	702.838
212.607	20.071	899.055	701.453
213.621	20.181	898.226	701.192
214.636	20.253	897.416	700.786
215.650	20.186	896.861	700.022
216.665	20.300	896.192	699.897
217.680	20.103	895.424	698.440
218.694	19.881	893.880	696.284
219.709	19.557	893.331	694.490
220.723	19.813	893.393	695.505
221.738	19.958	892.685	695.476
222.753	20.152	891.464	695.240
223.767	20.150	891.408	695.129
224.782	20.372	890.698	695.404
225.796	20.231	890.278	694.447
226.811	19.628	888.905	690.906
227.826	19.110	887.359	687.573
228.840	19.332	887.187	688.266
229.855	19.348	886.439	687.687
230.869	18.930	885.457	685.199
231.884	19.351	885.168	686.594
232.899	20.039	884.852	689.024
233.913	19.982	884.122	688.168
234.928	19.932	883.948	687.774
235.942	20.073	883.272	687.745
236.957	19.746	882.046	685.433
237.972	19.744	881.701	685.097
238.986	19.908	880.956	685.108
240.001	19.837	880.405	684.339
241.015	19.905	879.518	683.857
242.030	20.031	879.202	684.049
243.045	20.149	878.806	684.146
244.059	20.286	878.542	684.419
245.074	20.024	877.395	682.432
246.088	19.643	876.250	679.982
247.103	19.937	876.192	681.033
248.117	20.377	876.248	682.749
249.132	20.587	875.692	683.081
250.147	20.779	874.728	683.021
251.161	20.948	873.931	683.001
252.176	20.723	873.813	681.966
253.190	20.854	873.320	682.032
254.205	21.030	872.858	682.303
255.220	20.898	872.116	681.145
256.234	20.721	871.433	679.861
257.249	20.992	870.017	679.751
258.263	20.866	869.614	678.885
259.278	20.935	869.144	678.728
260.293	20.924	868.591	678.191
261.307	20.790	867.646	676.874
262.322	20.607	866.571	675.264
263.336	19.597	865.182	670.206
264.351	18.734	862.879	665.019
265.366	19.028	862.570	665.862
266.380	20.078	863.512	670.594
267.395	20.477	863.285	671.905
268.409	20.466	862.293	671.030
269.424	20.752	861.682	671.597
270.439	20.833	861.139	671.427
271.453	20.828	861.117	671.333
272.468	21.139	860.463	671.961
273.482	20.917	859.950	670.645
274.497	20.502	859.035	668.280
275.512	20.219	857.962	666.296
276.526	20.759	857.838	668.214
277.541	20.877	857.545	668.381
278.555	20.436	857.016	666.216
279.570	20.274	855.859	664.641
280.585	20.563	855.089	665.089
281.599	20.647	854.307	664.743
282.614	20.023	852.989	661.276
283.628	20.087	852.867	661.366
284.643	20.436	852.374	662.259
285.657	19.838	851.443	659.199
286.672	19.801	850.230	658.061
287.687	20.216	850.438	659.742
288.701	20.408	849.799	659.918
289.716	19.962	848.714	657.323
290.730	20.039	848.082	657.067
291.745	19.718	847.246	655.143
292.760	20.109	847.009	656.384
293.774	20.979	847.397	659.922
294.789	21.251	847.266	660.792
295.803	21.303	846.621	660.428
296.818	21.300	845.665	659.612
297.833	20.972	844.670	657.540
298.847	20.918	843.915	656.690
299.862	21.116	844.263	657.651
300.876	21.207	844.021	657.744
301.891	21.000	842.881	656.019
302.906	20.737	841.708	654.062
303.920	20.856	841.365	654.182
304.935	21.219	841.317	655.449
305.949	21.218	840.099	654.441
306.964	20.943	839.788	653.110
307.979	21.057	839.457	653.220
308.993	21.369	839.294	654.204
310.008	21.393	838.485	653.606
311.022	21.093	837.596	651.735
312.037	20.960	837.173	650.851
313.052	20.662	836.435	649.109
314.066	19.863	834.967	644.935
315.081	19.636	834.435	643.621
316.095	20.441	834.888	646.912
317.110	20.967	834.453	648.474
318.125	20.220	832.667	644.256
319.139	19.332	831.599	640.076
320.154	19.293	831.132	639.518
321.168	20.147	831.220	642.696
322.183	20.713	831.751	645.148
323.197	20.883	831.326	645.390
324.212	21.114	830.446	645.507
325.227	21.291	829.658	645.490
326.241	20.960	829.465	644.059
327.256	20.813	829.071	643.153
328.270	20.863	828.497	642.835
329.285	20.562	827.437	640.849
330.300	20.590	826.554	640.212
331.314	20.822	826.082	640.643
332.329	21.028	825.862	641.172
333.343	21.072	825.559	641.042
334.358	21.138	825.232	640.972
335.373	21.353	824.902	641.450
336.387	21.422	825.168	641.853
337.402	21.567	824.538	641.836
338.416	21.356	824.501	640.978
339.431	21.511	823.744	640.903
340.446	21.750	823.443	641.483
341.460	21.630	822.651	640.371
342.475	21.395	822.121	639.042
343.489	21.489	822.144	639.348
344.504	21.614	821.671	639.379
345.519	21.872	820.967	639.716
346.533	21.913	821.164	639.962
347.548	21.979	820.369	639.529
348.562	21.978	819.590	638.862
349.577	21.934	819.030	638.207
350.592	22.076	818.483	638.240
351.606	21.865	817.855	636.929
352.621	21.818	816.809	635.886
353.635	21.722	816.184	634.996
354.650	21.124	814.718	631.638
355.665	20.168	812.944	626.749
356.679	20.533	813.251	628.253
357.694	20.882	812.963	629.236
358.708	20.928	811.896	628.519
359.723	21.339	812.036	630.054
360.738	21.485	811.934	630.445
361.752	21.739	810.915	630.512
362.767	22.054	810.582	631.328
363.781	22.225	810.489	631.816
364.796	22.331	809.642	631.482
365.810	22.291	809.586	631.236
366.825	22.106	809.274	630.274
367.840	21.832	808.481	628.620
368.854	21.621	807.636	627.152
369.869	21.602	807.627	627.020
370.883	21.657	806.963	626.645
371.898	21.587	805.948	625.551
372.913	21.646	806.257	625.947
373.927	21.881	805.250	625.949
374.942	21.877	805.286	625.906
375.956	21.860	804.835	625.442
376.971	22.125	804.411	625.998
377.986	22.288	804.033	626.232
379.000	22.078	803.436	624.965
380.015	22.003	802.625	624.009
381.029	22.208	802.047	624.235
382.044	22.319	801.516	624.159
383.059	22.229	801.121	623.478
384.073	22.183	801.006	623.169
385.088	22.157	800.542	622.661
386.102	21.919	799.678	621.091
387.117	21.994	798.853	620.662
388.132	21.764	797.769	618.954
389.146	21.196	797.073	616.353
390.161	21.585	796.656	617.348
391.175	21.890	796.804	618.483
392.190	21.618	795.403	616.385
393.205	20.395	793.416	610.495
394.219	19.115	792.172	604.986
395.234	19.044	791.941	604.507
396.248	20.718	793.084	611.209
397.263	22.044	793.909	616.450
398.278	21.865	793.621	615.544
399.292	21.615	793.259	614.333
400.307	21.709	792.418	613.954
401.321	21.857	791.812	613.950
402.336	22.037	792.031	614.695
403.350	22.445	791.884	615.953
404.365	22.668	791.510	616.388
405.380	22.834	791.263	616.722
406.394	22.970	790.669	616.677
407.409	22.837	790.147	615.752
408.423	22.828	789.648	615.279
409.438	22.778	789.470	614.911
410.453	22.982	789.242	615.390
411.467	22.834	788.264	614.059
412.482	22.730	788.092	613.508
413.496	22.970	787.591	613.897
414.511	22.813	787.320	613.086
415.526	22.952	786.837	613.139
416.540	22.631	786.170	611.452
417.555	22.499	785.308	610.269
418.569	22.470	785.405	610.192
419.584	22.457	784.881	609.683
420.599	22.445	784.146	609.016
421.613	158.749	1363.399	1798.464
422.628	137.345	1447.777	1798.559
