DTS Sentinel unit serial number:	SN413079Multiplexer serial number:	ORYXHardware model number:	OX4-SRSoftware version number:	ORYX F/W v4.00 Oryx Data Collector v3.7.2.0data status	okinstallation	princeton_trtdifferential loss correction	single-endedforward channel	channel 1reverse channel	N/Adate	2019/09/12time	13:28:11forward acquisition time	60.00reverse acquisition time	0.00gamma	496.2192k internal	0.2292k external	0.2292temperature offset calibration	1.0049default loss term (dB/km)	0.3790temperature slope calibration	1.0000multiplexer offset coefficient	1.0000multiplexer slope coefficient	1.0000fibre end	0.00T internal ref (°C)	41.11T ext. ref 1 (°C)	2.15T ext. ref 2 (°C)	36.72length (m)	temperature (°C)	Stokes	anti-Stokes-747.200	-200.000	0.025	-0.223
-746.185	-200.000	-0.019	0.234
-745.171	219.316	0.045	0.074
-744.156	800.000	-0.064	0.275
-743.142	-108.141	0.229	-0.051
-742.127	269.456	0.090	-0.162
-741.112	205.190	-0.091	-0.144
-740.098	-75.699	0.260	0.094
-739.083	15.402	0.189	0.152
-738.069	173.126	-0.091	0.135
-737.054	42.511	0.246	0.229
-736.039	168.531	0.056	-0.082
-735.025	62.671	0.192	-0.197
-734.010	-120.967	-0.379	-0.065
-732.996	-40.727	-0.250	-0.133
-731.981	800.000	0.097	0.387
-730.966	245.298	0.157	0.270
-729.952	-101.158	-0.249	0.062
-728.937	112.467	-0.248	-0.307
-727.923	29.294	-0.415	0.361
-726.908	115.883	0.064	-0.080
-725.894	-200.000	-0.053	-0.389
-724.879	-200.000	0.008	-0.045
-723.864	424.350	-0.112	-0.246
-722.850	233.290	-0.114	-0.192
-721.835	800.000	-0.075	-0.320
-720.821	-82.129	-0.213	0.071
-719.806	-131.441	0.288	0.039
-718.791	-122.190	0.070	0.012
-717.777	345.942	-0.040	0.080
-716.762	-143.475	-0.072	-0.007
-715.748	138.779	-0.140	-0.188
-714.733	-200.000	-0.000	-0.304
-713.718	-70.220	0.447	0.173
-712.704	280.686	0.090	-0.165
-711.689	800.000	0.084	0.337
-710.675	-200.000	-0.012	-0.242
-709.660	-200.000	-0.037	0.189
-708.645	177.963	0.167	-0.249
-707.631	144.984	0.091	-0.124
-706.616	-19.303	-0.278	-0.176
-705.602	-200.000	0.026	-0.370
-704.587	-190.569	0.177	-0.002
-703.572	312.544	0.174	0.334
-702.558	800.000	-0.045	0.141
-701.543	133.661	0.156	-0.207
-700.529	-114.754	-0.346	-0.068
-699.514	-48.355	-0.083	-0.041
-698.499	125.969	-0.135	-0.174
-697.485	-53.983	-0.308	0.144
-696.470	-167.687	-0.055	0.002
-695.456	-62.179	0.073	-0.031
-694.441	72.095	0.149	0.158
-693.426	-38.141	-0.165	0.090
-692.412	461.162	-0.105	-0.240
-691.397	-154.198	-0.228	0.016
-690.383	-62.901	0.255	-0.108
-689.368	-200.000	-0.006	-0.168
-688.354	425.960	-0.181	-0.398
-687.339	-88.245	0.154	-0.047
-686.324	329.332	-0.243	0.477
-685.310	800.000	-0.042	0.153
-684.295	800.000	0.072	-0.263
-683.281	193.351	0.149	-0.229
-682.266	-146.830	-0.060	0.005
-681.251	-94.312	0.157	-0.044
-680.237	-157.287	0.219	-0.014
-679.222	33.018	-0.129	0.114
-678.208	12.249	0.051	-0.040
-677.193	170.376	-0.093	-0.136
-676.178	-200.000	-0.005	0.046
-675.164	-75.237	0.172	-0.063
-674.149	3.494	-0.134	-0.099
-673.135	9.090	0.165	0.127
-672.120	38.550	0.185	-0.169
-671.105	158.882	-0.061	0.087
-670.091	230.369	-0.116	-0.193
-669.076	-75.163	0.196	0.071
-668.062	-12.089	0.022	-0.015
-667.047	-135.379	-0.201	0.024
-666.032	132.044	-0.065	-0.085
-665.018	329.998	0.200	-0.392
-664.003	-200.000	0.031	0.179
-662.989	95.608	0.213	0.248
-661.974	502.278	-0.088	0.207
-660.959	147.128	0.165	-0.227
-659.945	676.040	-0.145	-0.384
-658.930	0.866	0.345	0.252
-657.916	-49.240	0.433	-0.211
-656.901	-97.103	0.311	-0.083
-655.886	118.112	-0.152	0.191
-654.872	-41.579	-0.321	-0.168
-653.857	-56.080	-0.115	-0.052
-652.843	68.536	-0.237	-0.248
-651.828	203.621	-0.111	0.174
-650.814	489.044	0.111	0.258
-649.799	194.864	-0.121	0.187
-648.784	4.282	-0.297	-0.222
-647.770	-200.000	-0.010	-0.632
-646.755	800.000	-0.064	-0.269
-645.741	-41.366	0.165	-0.086
-644.726	-113.105	0.217	0.044
-643.711	-200.000	-0.035	-0.205
-642.697	-200.000	0.053	0.261
-641.682	-200.000	0.012	0.126
-640.668	61.812	-0.216	0.219
-639.653	-200.000	-0.021	0.293
-638.638	-200.000	-0.008	0.134
-637.624	473.092	0.057	-0.130
-636.609	-120.507	-0.185	-0.032
-635.595	-77.426	-0.387	0.137
-634.580	-45.686	-0.097	0.049
-633.565	77.635	0.285	-0.309
-632.551	-39.154	-0.250	-0.134
-631.536	290.452	0.133	-0.246
-630.522	-70.981	0.290	-0.111
-629.507	382.872	-0.153	0.320
-628.492	-3.564	0.145	0.103
-627.478	388.419	-0.058	-0.123
-626.463	800.000	-0.038	-0.136
-625.449	-98.791	-0.196	0.051
-624.434	351.239	0.093	-0.188
-623.419	-200.000	-0.034	-0.178
-622.405	800.000	0.116	-0.347
-621.390	800.000	0.095	-0.322
-620.376	-200.000	-0.015	-0.127
-619.361	71.825	-0.036	-0.038
-618.346	-112.570	-0.172	-0.035
-617.332	-50.293	0.353	-0.170
-616.317	64.222	0.069	-0.070
-615.303	-152.424	0.223	-0.016
-614.288	-80.041	-0.140	-0.048
-613.273	116.018	-0.045	0.056
-612.259	369.369	0.190	-0.392
-611.244	563.342	0.121	0.298
-610.230	530.964	-0.061	0.146
-609.215	587.868	0.066	0.167
-608.201	16.788	-0.108	-0.087
-607.186	-113.275	0.036	-0.007
-606.171	-154.472	-0.376	0.026
-605.157	-72.975	-0.420	0.157
-604.142	295.593	-0.057	0.106
-603.128	-200.000	-0.002	-0.028
-602.113	29.194	-0.110	0.095
-601.098	39.792	-0.143	-0.131
-600.084	10.188	0.014	-0.011
-599.069	-64.333	0.289	0.120
-598.055	-12.644	-0.155	-0.103
-597.040	-45.511	0.124	-0.062
-596.025	79.016	-0.247	0.269
-595.011	800.000	-0.086	0.284
-593.996	229.921	-0.116	0.192
-592.982	180.743	-0.055	0.082
-591.967	472.349	0.081	-0.185
-590.952	-45.237	0.243	0.123
-589.938	800.000	0.024	-0.081
-588.923	-90.970	0.180	-0.053
-587.909	-19.407	0.208	-0.131
-586.894	-58.436	-0.258	0.114
-585.879	800.000	-0.113	0.396
-584.865	-200.000	-0.005	0.386
-583.850	295.855	0.129	-0.240
-582.836	-132.157	-0.110	0.015
-581.821	-173.021	0.222	0.007
-580.806	800.000	0.090	0.254
-579.792	-200.000	0.011	0.187
-578.777	-58.695	0.352	-0.155
-577.763	141.016	-0.134	0.180
-576.748	228.617	-0.269	0.446
-575.733	-189.243	0.050	-0.001
-574.719	129.729	0.098	-0.127
-573.704	-192.175	-0.122	0.001
-572.690	-66.943	-0.212	-0.085
-571.675	305.655	0.148	-0.280
-570.661	37.770	0.116	-0.105
-569.646	800.000	0.057	-0.249
-568.631	-128.340	0.180	0.026
-567.617	565.931	0.107	-0.264
-566.602	65.206	0.080	-0.082
-565.588	-194.835	-0.264	-0.002
-564.573	189.754	0.251	-0.383
-563.558	-51.007	0.017	-0.008
-562.544	760.114	0.048	-0.131
-561.529	-10.345	-0.203	-0.137
-560.515	-200.000	0.005	-0.286
-559.500	-77.796	-0.390	0.137
-558.485	-49.371	0.020	-0.010
-557.471	71.996	0.118	-0.125
-556.456	-86.671	0.171	-0.053
-555.442	15.716	0.264	0.211
-554.427	122.411	0.164	0.208
-553.412	800.000	0.076	0.316
-552.398	-69.924	-0.114	0.044
-551.383	-200.000	0.052	0.616
-550.369	121.729	0.245	-0.310
-549.354	-200.000	-0.033	0.310
-548.339	400.197	0.143	0.304
-547.325	-182.383	-0.150	-0.003
-546.310	550.218	0.049	-0.119
-545.296	-0.316	0.032	-0.023
-544.281	-155.396	-0.286	-0.019
-543.266	661.837	-0.111	0.291
-542.252	663.800	-0.063	0.164
-541.237	-33.728	-0.246	0.138
-540.223	-93.039	0.274	0.078
-539.208	-4.648	-0.084	-0.059
-538.193	-200.000	-0.016	0.150
-537.179	-127.297	0.464	-0.069
-536.164	-103.331	0.305	-0.073
-535.150	376.845	0.134	-0.278
-534.135	179.934	0.065	-0.096
-533.121	-139.272	0.338	-0.037
-532.106	-51.660	-0.274	-0.130
-531.091	13.445	0.285	-0.224
-530.077	312.303	-0.123	-0.234
-529.062	123.666	-0.064	0.082
-528.048	-157.047	-0.251	0.016
-527.033	260.270	-0.158	0.277
-526.018	109.079	0.143	0.174
-525.004	800.000	-0.030	0.114
-523.989	370.281	-0.128	-0.264
-522.975	390.249	0.129	0.272
-521.960	-200.000	-0.003	0.330
-520.945	-40.772	0.333	0.175
-519.931	-110.816	0.040	-0.008
-518.916	800.000	-0.125	0.512
-517.902	87.601	-0.207	0.232
-516.887	-187.922	0.192	-0.003
-515.872	-119.425	-0.166	-0.029
-514.858	20.335	-0.241	-0.198
-513.843	-112.809	0.330	0.066
-512.829	-200.000	-0.025	0.158
-511.814	800.000	-0.112	-0.348
-510.799	-200.000	-0.027	-0.242
-509.785	800.000	-0.073	-0.211
-508.770	-46.458	0.286	-0.142
-507.756	3.734	-0.075	0.055
-506.741	800.000	-0.024	-0.101
-505.726	15.721	-0.208	0.166
-504.712	663.372	0.117	-0.306
-503.697	374.895	-0.058	-0.119
-502.683	158.133	0.136	0.192
-501.668	-200.000	-0.066	0.347
-500.653	213.969	-0.135	-0.216
-499.639	-43.136	-0.100	-0.052
-498.624	-57.724	-0.110	-0.049
-497.610	-93.407	0.278	-0.078
-496.595	-166.061	-0.134	0.006
-495.581	-122.246	0.318	0.053
-494.566	78.066	-0.068	-0.074
-493.551	-15.487	-0.146	-0.094
-492.537	212.679	0.214	0.342
-491.522	-200.000	0.012	0.181
-490.508	-167.919	0.164	-0.007
-489.493	142.903	0.029	-0.039
-488.478	-70.937	-0.168	-0.064
-487.464	77.132	0.067	0.072
-486.449	-200.000	0.030	0.247
-485.435	800.000	-0.042	-0.121
-484.420	283.842	-0.089	-0.162
-483.405	623.191	-0.091	-0.231
-482.391	-157.475	-0.412	0.025
-481.376	-81.094	-0.278	0.093
-480.362	-124.055	-0.146	-0.023
-479.347	-38.674	-0.236	-0.126
-478.332	184.427	0.104	0.156
-477.318	-68.684	-0.132	-0.052
-476.303	-133.691	0.158	0.020
-475.289	800.000	-0.076	-0.238
-474.274	800.000	-0.080	-0.305
-473.259	73.596	-0.084	-0.089
-472.245	-140.895	0.189	-0.020
-471.230	73.173	-0.200	-0.212
-470.216	700.679	0.142	0.380
-469.201	-200.000	-0.002	-0.074
-468.186	-69.952	0.111	0.043
-467.172	97.643	-0.202	-0.235
-466.157	509.520	-0.053	0.125
-465.143	-23.640	0.222	0.135
-464.128	-72.978	-0.270	-0.100
-463.113	421.792	0.127	0.276
-462.099	-21.773	-0.229	-0.141
-461.084	25.985	0.198	-0.167
-460.070	141.859	-0.128	-0.172
-459.055	39.175	-0.114	0.103
-458.040	189.941	-0.064	-0.097
-457.026	-200.000	-0.045	-0.558
-456.011	281.732	0.102	-0.185
-454.997	-17.481	0.117	0.074
-453.982	-124.677	0.223	-0.035
-452.968	-25.099	-0.236	-0.141
-451.953	333.627	-0.191	0.374
-450.938	-200.000	0.032	-0.159
-449.924	244.903	0.075	-0.127
-448.909	4.202	-0.225	-0.167
-447.895	89.328	-0.262	-0.295
-446.880	649.190	-0.074	0.191
-445.865	-200.000	0.026	0.309
-444.851	78.074	-0.060	0.065
-443.836	-11.571	-0.176	-0.117
-442.822	-200.000	-0.023	-0.331
-441.807	-76.150	-0.284	0.102
-440.792	-11.002	-0.101	-0.067
-439.778	800.000	-0.039	-0.111
-438.763	511.985	0.095	0.224
-437.749	689.720	-0.073	0.192
-436.734	220.796	0.047	-0.077
-435.719	-70.834	-0.103	-0.039
-434.705	-200.000	-0.058	0.268
-433.690	800.000	-0.004	0.016
-432.676	-64.647	-0.274	0.112
-431.661	38.697	-0.162	-0.146
-430.646	-200.000	-0.199	0.000
-429.632	88.406	0.135	-0.151
-428.617	-200.000	-0.011	-0.167
-427.603	56.497	0.276	-0.271
-426.588	-48.959	-0.108	0.052
-425.573	-154.085	-0.045	-0.003
-424.559	-86.940	0.334	-0.103
-423.544	442.947	-0.034	0.074
-422.530	188.077	-0.150	0.227
-421.515	-168.591	0.312	0.012
-420.500	150.692	-0.171	-0.235
-419.486	509.010	0.153	-0.359
-418.471	-200.000	-0.025	0.292
-417.457	52.238	-0.145	0.140
-416.442	-200.000	0.038	0.268
-415.428	-80.076	-0.121	-0.041
-414.413	54.068	0.137	-0.133
-413.398	-78.834	0.119	-0.041
-412.384	-59.836	-0.163	0.071
-411.369	-94.914	-0.076	-0.021
-410.355	-198.991	-0.402	0.002
-409.340	92.944	0.165	0.189
-408.325	51.738	-0.098	0.094
-407.311	-200.000	0.000	-0.063
-406.296	8.810	0.204	-0.155
-405.282	4.936	0.477	0.355
-404.267	-200.000	0.070	0.385
-403.252	-120.347	-0.256	-0.044
-402.238	-70.936	0.062	-0.024
-401.223	-200.000	0.013	0.086
-400.209	-105.179	0.101	0.023
-399.194	42.566	0.240	0.221
-398.179	42.422	0.055	-0.050
-397.165	-13.659	0.231	0.151
-396.150	-133.514	0.075	-0.010
-395.136	-200.000	0.016	0.173
-394.121	-54.359	-0.359	-0.164
-393.106	551.415	0.084	0.204
-392.092	39.659	0.153	0.138
-391.077	800.000	0.035	-0.108
-390.063	-200.000	-0.021	-0.153
-389.048	-200.000	0.019	0.158
-388.033	210.486	-0.057	-0.090
-387.019	-200.000	0.006	-0.212
-386.004	-143.376	0.155	0.015
-384.990	372.021	-0.080	-0.165
-383.975	-39.275	0.200	0.106
-382.960	-111.063	0.289	0.060
-381.946	-168.795	0.164	-0.006
-380.931	233.684	-0.046	0.076
-379.917	140.767	-0.079	0.105
-378.902	-200.000	-0.027	-0.125
-377.888	290.486	0.051	-0.094
-376.873	800.000	-0.008	-0.024
-375.858	141.682	0.094	-0.126
-374.844	-200.000	-0.053	0.262
-373.829	800.000	-0.050	0.209
-372.815	162.652	0.031	0.044
-371.800	190.209	0.080	0.122
-370.785	69.996	0.213	-0.222
-369.771	-200.000	0.063	-0.368
-368.756	738.397	-0.068	-0.184
-367.742	-37.511	0.342	0.184
-366.727	49.985	-0.112	-0.106
-365.712	-200.000	0.045	-0.269
-364.698	-47.756	0.129	0.063
-363.683	-46.258	-0.072	0.036
-362.669	-10.137	0.197	0.132
-361.654	776.974	0.010	-0.028
-360.639	-40.929	0.140	0.073
-359.625	-200.000	-0.007	-0.350
-358.610	60.734	0.103	0.103
-357.596	-20.204	0.141	0.088
-356.581	32.627	0.126	-0.110
-355.566	-99.160	-0.280	-0.071
-354.552	800.000	0.050	-0.175
-353.537	-19.897	0.280	0.174
-352.523	52.458	-0.089	0.085
-351.508	-200.000	-0.050	0.355
-350.493	-127.304	0.255	0.038
-349.479	-26.442	0.203	0.120
-348.464	-44.884	-0.174	0.087
-347.450	-139.445	-0.295	-0.032
-346.435	-84.647	-0.240	0.076
-345.420	111.134	-0.142	0.172
-344.406	102.592	0.183	0.216
-343.391	-181.971	0.069	0.001
-342.377	86.507	-0.179	-0.199
-341.362	-116.875	0.415	0.077
-340.348	60.888	0.098	0.098
-339.333	106.163	0.067	-0.079
-338.318	-200.000	0.006	0.068
-337.304	-144.365	-0.323	-0.030
-336.289	25.746	-0.093	0.078
-335.275	220.948	-0.097	-0.157
-334.260	-128.022	0.244	-0.035
-333.245	800.000	-0.032	-0.090
-332.231	144.557	0.101	0.135
-331.216	245.594	-0.223	0.378
-330.202	122.272	0.327	-0.411
-329.187	-200.000	-0.049	0.250
-328.172	376.685	0.217	0.447
-327.158	234.228	-0.032	0.054
-326.143	-79.461	0.047	-0.016
-325.129	-25.541	0.275	-0.163
-324.114	-2.688	0.115	-0.081
-323.099	-69.938	-0.234	0.090
-322.085	173.016	-0.157	-0.228
-321.070	-29.014	0.132	0.076
-320.056	-200.000	-0.040	-0.301
-319.041	800.000	-0.065	0.232
-318.026	185.398	-0.096	0.144
-317.012	-115.110	0.094	-0.018
-315.997	-200.000	-0.036	-0.226
-314.983	-188.520	-0.342	0.004
-313.968	-200.000	-0.044	-0.450
-312.953	-68.737	-0.334	-0.130
-311.939	-107.169	-0.338	-0.075
-310.924	-94.123	-0.199	0.055
-309.910	277.648	0.050	-0.090
-308.895	150.643	-0.176	-0.240
-307.880	-144.195	0.126	-0.012
-306.866	213.478	-0.134	-0.213
-305.851	-160.812	0.231	0.012
-304.837	24.352	-0.153	-0.127
-303.822	434.298	-0.128	-0.280
-302.807	-112.495	-0.099	0.020
-301.793	-97.346	0.236	-0.062
-300.778	800.000	0.037	0.114
-299.764	-200.000	-0.027	0.155
-298.749	-200.000	0.027	-0.277
-297.735	-130.181	-0.348	0.048
-296.720	-200.000	0.029	-0.214
-295.705	423.760	0.116	0.251
-294.691	-200.000	-0.021	-0.110
-293.676	800.000	0.063	-0.178
-292.662	-13.688	0.235	-0.153
-291.647	275.264	-0.159	-0.284
-290.632	-143.613	0.115	-0.011
-289.618	-184.062	0.442	-0.007
-288.603	-200.000	-0.023	-0.276
-287.589	-32.431	-0.222	-0.124
-286.574	-200.000	-0.010	-0.169
-285.559	28.790	-0.048	-0.040
-284.545	-68.207	0.064	0.025
-283.530	9.089	0.069	-0.052
-282.516	-66.651	0.257	0.102
-281.501	273.712	0.130	0.231
-280.486	-200.000	0.035	0.197
-279.472	5.657	-0.342	0.254
-278.457	800.000	0.053	-0.169
-277.443	-200.000	0.067	0.405
-276.428	-200.000	0.016	-0.072
-275.413	-200.000	0.006	-0.171
-274.399	-2.528	0.051	0.036
-273.384	-71.508	0.281	0.106
-272.370	406.245	-0.033	-0.069
-271.355	-131.708	0.295	-0.039
-270.340	27.786	-0.221	0.187
-269.326	242.518	0.154	0.259
-268.311	230.654	-0.159	0.261
-267.297	-93.040	0.417	0.117
-266.282	800.000	0.077	0.232
-265.267	-200.000	-0.076	-0.402
-264.253	-69.521	0.327	0.126
-263.238	-53.335	-0.128	-0.059
-262.224	93.825	0.043	0.050
-261.209	-200.000	0.017	-0.171
-260.195	-138.310	0.310	0.034
-259.180	-20.915	0.135	0.083
-258.165	-27.142	0.410	0.240
-257.151	3.021	0.153	-0.112
-256.136	70.603	-0.203	0.211
-255.122	800.000	0.076	-0.312
-254.107	-197.393	-0.233	0.001
-253.092	84.053	0.177	0.194
-252.078	-200.000	-0.010	0.276
-251.063	602.939	0.113	0.283
-250.049	-171.371	0.164	-0.006
-249.034	14.436	-0.165	0.130
-248.019	25.384	-0.413	0.345
-247.005	-200.000	-0.042	-0.265
-245.990	-158.286	0.436	-0.026
-244.976	333.187	0.156	0.302
-243.961	239.115	-0.240	0.400
-242.946	-59.999	-0.386	0.165
-241.932	-200.000	-0.034	0.292
-240.917	-63.943	-0.040	-0.016
-239.903	-200.000	-0.000	0.114
-238.888	95.269	-0.190	-0.217
-237.873	-200.000	0.024	0.238
-236.859	-200.000	-0.026	0.230
-235.844	-41.359	-0.167	0.087
-234.830	-146.924	0.153	0.013
-233.815	800.000	-0.043	-0.160
-232.800	-174.448	0.350	0.010
-231.786	-104.967	0.092	-0.021
-230.771	-200.000	0.007	-0.184
-229.757	630.728	0.130	-0.331
-228.742	143.131	-0.107	0.143
-227.727	2.741	-0.028	-0.020
-226.713	-105.016	0.356	0.082
-225.698	-93.200	-0.090	0.025
-224.684	142.296	0.008	-0.011
-223.669	-200.000	-0.014	0.134
-222.655	-70.631	-0.198	0.075
-221.640	733.950	-0.118	-0.315
-220.625	8.363	0.104	-0.079
-219.611	-35.747	0.239	-0.130
-218.596	-59.374	-0.138	-0.059
-217.582	202.381	0.172	-0.267
-216.567	-200.000	0.015	-0.095
-215.552	-64.384	-0.186	0.076
-214.538	-200.000	-0.069	-0.328
-213.523	336.595	0.054	-0.105
-212.509	-120.103	-0.364	0.062
-211.494	111.666	0.174	0.210
-210.479	225.549	-0.040	0.064
-209.465	-200.000	-0.003	0.168
-208.450	-134.175	-0.353	0.044
-207.436	20.654	0.202	0.164
-206.421	66.148	-0.285	0.290
-205.406	-200.000	0.024	-0.197
-204.392	-104.902	-0.353	0.081
-203.377	125.212	0.156	-0.197
-202.363	193.902	0.143	0.218
-201.348	140.770	-0.098	-0.129
-200.333	87.682	0.078	0.086
-199.319	18.563	0.236	-0.189
-198.304	31.125	0.250	-0.215
-197.290	-105.633	-0.158	0.036
-196.275	-125.808	0.041	0.006
-195.260	53.148	-0.214	0.206
-194.246	274.862	-0.198	-0.352
-193.231	-22.379	0.244	0.148
-192.217	-200.000	-0.027	-0.144
-191.202	-20.719	0.214	0.131
-190.187	-200.000	0.038	0.264
-189.173	800.000	0.045	0.143
-188.158	50.882	-0.167	0.159
-187.144	-200.000	-0.034	-0.412
-186.129	-162.456	-0.505	-0.025
-185.114	-34.012	0.245	0.135
-184.100	-88.119	0.331	-0.099
-183.085	-82.861	-0.144	0.047
-182.071	59.468	-0.166	-0.163
-181.056	-102.451	-0.325	0.078
-180.042	-29.463	-0.442	0.253
-179.027	-172.148	-0.166	-0.005
-178.012	368.365	-0.129	-0.261
-176.998	-26.544	-0.089	-0.052
-175.983	549.354	-0.071	0.170
-174.969	92.123	-0.240	-0.271
-173.954	-200.000	0.022	0.108
-172.939	-200.000	0.319	0.000
-171.925	153.622	-0.045	-0.062
-170.910	-145.869	0.090	0.008
-169.896	-4.771	0.181	0.125
-168.881	39.034	-0.189	-0.169
-167.866	264.283	-0.032	-0.056
-166.852	325.325	-0.214	0.409
-165.837	52.174	-0.079	0.076
-164.823	24.587	0.299	0.247
-163.808	800.000	-0.030	-0.095
-162.793	-39.424	0.054	-0.028
-161.779	800.000	0.042	-0.166
-160.764	23.757	0.416	-0.343
-159.750	186.264	0.186	-0.277
-158.735	657.148	-0.057	0.148
-157.720	609.640	0.128	-0.321
-156.706	102.410	-0.096	0.113
-155.691	344.893	-0.115	0.226
-154.677	4.453	-0.188	-0.138
-153.662	329.610	-0.123	0.237
-152.647	800.000	0.049	-0.153
-151.633	-74.866	-0.275	-0.099
-150.618	79.016	-0.124	0.133
-149.604	-122.506	-0.169	0.027
-148.589	-41.837	0.396	0.203
-147.574	-200.000	0.029	0.408
-146.560	800.000	-0.063	0.200
-145.545	-98.363	-0.200	-0.051
-144.531	81.266	-0.363	0.392
-143.516	115.695	-0.221	-0.271
-142.502	51.630	-0.245	0.233
-141.487	-22.793	-0.250	0.151
-140.472	-200.000	-0.033	0.176
-139.458	-58.765	-0.475	0.205
-138.443	800.000	-0.100	0.307
-137.429	-64.869	0.117	0.047
-136.414	341.779	0.076	-0.148
-135.399	800.000	-0.075	-0.232
-134.385	127.231	-0.144	0.182
-133.370	277.050	0.189	0.335
-132.356	-200.000	-0.020	0.120
-131.341	732.961	-0.035	-0.093
-130.326	-200.000	-0.002	-0.273
-129.312	36.338	-0.134	0.118
-128.297	43.941	-0.187	0.172
-127.283	693.791	0.038	0.098
-126.268	-55.791	-0.387	0.173
-125.253	-115.024	0.105	-0.020
-124.239	-200.000	0.022	-0.104
-123.224	-124.168	-0.312	0.049
-122.210	-46.814	0.180	0.088
-121.195	204.712	0.024	-0.037
-120.180	-200.000	0.016	-0.120
-119.166	-117.415	-0.236	-0.043
-118.151	120.238	-0.254	-0.315
-117.137	-40.727	0.385	-0.199
-116.122	38.867	0.270	0.241
-115.107	-96.617	-0.094	-0.025
-114.093	-200.000	0.048	0.441
-113.078	194.061	0.017	-0.026
-112.064	-81.271	0.271	-0.089
-111.049	430.801	-0.084	-0.182
-110.034	586.322	-0.109	0.268
-109.020	138.921	0.104	0.136
-108.005	-61.515	-0.194	0.081
-106.991	800.000	0.053	0.151
-105.976	-58.405	0.095	-0.041
-104.962	-163.527	-0.323	-0.015
-103.947	800.000	-0.021	-0.076
-102.932	-76.982	0.063	0.022
-101.918	-142.309	-0.153	0.015
-100.903	33.793	0.159	0.138
-99.889	47.795	0.166	0.155
-98.874	12.635	0.189	0.145
-97.859	-25.287	0.238	0.141
-96.845	-0.575	-0.301	0.213
-95.830	-172.922	0.450	0.014
-94.816	88.893	-0.123	0.136
-93.801	-121.520	-0.116	0.019
-92.786	14.899	-0.371	0.290
-91.772	-154.327	-0.206	-0.014
-90.757	-112.431	0.079	0.016
-89.743	245.198	0.133	0.223
-88.728	481.037	-0.057	-0.129
-87.713	-73.534	0.099	-0.036
-86.699	-65.663	0.386	-0.154
-85.684	-106.690	-0.538	-0.119
-84.670	-142.707	-0.154	-0.015
-83.655	278.217	0.088	0.156
-82.640	38.454	0.101	0.090
-81.626	-28.774	0.078	0.045
-80.611	54.682	-0.080	0.077
-79.597	204.694	-0.093	0.143
-78.582	-51.290	0.239	0.112
-77.567	-59.197	-0.267	0.115
-76.553	-200.000	-0.063	0.327
-75.538	280.426	-0.135	0.241
-74.524	-200.000	0.051	-0.261
-73.509	94.499	-0.096	0.109
-72.494	-102.284	-0.177	0.042
-71.480	-64.279	-0.133	0.054
-70.465	-200.000	-0.032	0.163
-69.451	286.344	0.131	0.236
-68.436	800.000	-0.114	-0.426
-67.422	167.160	-0.162	-0.229
-66.407	31.281	0.111	0.095
-65.392	-200.000	-0.049	-0.476
-64.378	720.508	0.049	0.129
-63.363	-200.000	-0.018	-0.141
-62.349	800.000	0.096	0.271
-61.334	29.470	-0.789	-0.668
-60.319	-200.000	-0.034	0.304
-59.305	142.275	-0.394	-0.521
-58.290	800.000	0.271	0.931
-57.276	798.564	0.537	1.475
-56.261	-200.000	75.908	510.457
-55.246	526.456	1325.531	3111.094
-54.232	146.401	2555.381	3418.372
-53.217	118.391	2227.010	2737.300
-52.203	53.199	1668.926	1592.471
-51.188	44.855	1391.250	1275.544
-50.173	41.323	1345.036	1211.702
-49.159	59.903	1379.924	1357.468
-48.144	66.711	1398.631	1417.494
-47.130	45.357	1362.157	1251.747
-46.115	41.302	1345.390	1211.696
-45.100	40.969	1341.041	1205.713
-44.086	41.005	1338.356	1203.472
-43.071	40.835	1335.712	1200.022
-42.057	40.879	1333.577	1198.321
-41.042	40.900	1332.063	1197.039
-40.027	41.008	1330.390	1196.133
-39.013	41.042	1328.606	1194.691
-37.998	40.906	1326.761	1192.165
-36.984	41.064	1324.946	1191.436
-35.969	41.232	1323.151	1190.779
-34.954	41.038	1321.541	1188.124
-33.940	41.151	1319.952	1187.321
-32.925	41.256	1318.689	1186.765
-31.911	41.336	1317.067	1185.736
-30.896	41.299	1315.758	1184.284
-29.881	41.204	1314.871	1182.875
-28.867	41.231	1313.117	1181.413
-27.852	41.183	1311.581	1179.700
-26.838	41.209	1309.895	1178.291
-25.823	41.179	1308.549	1176.854
-24.809	41.265	1307.517	1176.388
-23.794	41.130	1306.119	1174.290
-22.779	41.127	1304.975	1173.194
-21.765	41.151	1303.341	1171.823
-20.750	41.229	1301.687	1170.747
-19.736	41.093	1300.863	1169.161
-18.721	41.168	1299.347	1168.191
-17.706	41.094	1298.209	1166.690
-16.692	41.019	1297.348	1165.427
-15.677	41.033	1296.503	1164.704
-14.663	41.075	1294.658	1163.245
-13.648	41.029	1294.043	1162.380
-12.633	41.067	1292.643	1161.297
-11.619	41.022	1291.800	1160.229
-10.604	41.013	1290.921	1159.343
-9.590	41.056	1289.781	1158.524
-8.575	40.918	1289.344	1157.283
-7.560	40.996	1288.144	1156.616
-6.546	41.083	1286.738	1155.810
-5.531	41.068	1285.872	1154.899
-4.517	41.060	1285.005	1154.029
-3.502	41.109	1284.584	1153.889
-2.487	40.934	1283.722	1152.051
-1.473	41.072	1280.088	1149.547
-0.458	39.942	1264.832	1129.341
0.556	36.223	1245.051	1087.033
1.571	31.846	1248.409	1065.068
2.586	30.480	1262.934	1069.506
3.600	29.004	1252.615	1052.242
4.615	21.248	1175.018	945.180
5.629	8.561	1091.094	813.440
6.644	2.651	1066.406	765.517
7.659	2.092	1063.699	760.723
8.673	1.967	1062.168	758.940
9.688	1.883	1060.838	757.502
10.702	2.260	1059.701	758.495
11.717	9.257	1070.221	800.927
12.731	20.522	1086.464	869.696
13.746	25.325	1092.093	898.219
14.761	25.630	1091.876	899.485
15.775	25.608	1091.220	898.756
16.790	25.306	1090.407	896.498
17.804	25.210	1089.530	895.221
18.819	25.443	1089.000	895.869
19.834	25.503	1088.651	895.801
20.848	25.481	1088.592	895.564
21.863	25.438	1087.997	894.776
22.877	25.421	1086.978	893.777
23.892	25.460	1086.246	893.288
24.907	25.435	1085.803	892.723
25.921	25.336	1084.619	891.181
26.936	25.349	1082.857	889.716
27.950	25.246	1081.775	888.239
28.965	25.210	1079.857	886.410
29.980	25.314	1078.395	885.640
30.994	25.355	1077.919	885.373
32.009	25.541	1076.395	884.958
33.023	25.259	1075.124	882.450
34.038	25.332	1074.496	882.217
35.053	25.498	1073.878	882.448
36.067	25.361	1072.974	880.951
37.082	25.583	1072.057	881.211
38.096	25.626	1071.878	881.198
39.111	25.686	1071.186	880.840
40.126	25.570	1069.207	878.571
41.140	25.240	1067.999	875.891
42.155	25.000	1066.408	873.339
43.169	24.935	1065.974	872.586
44.184	25.043	1064.760	872.041
45.199	24.906	1063.458	870.234
46.213	25.034	1062.761	870.208
47.228	25.187	1062.218	870.431
48.242	25.287	1061.132	869.946
49.257	25.376	1060.374	869.680
50.271	25.446	1059.893	869.546
51.286	25.501	1058.825	868.858
52.301	25.586	1057.825	868.373
53.315	25.341	1057.093	866.511
54.330	25.327	1056.537	865.913
55.344	25.413	1055.363	865.288
56.359	25.467	1054.296	864.595
57.374	25.109	1053.724	862.328
58.388	25.192	1053.036	862.086
59.403	25.021	1052.278	860.569
60.417	24.884	1051.392	859.114
61.432	25.053	1050.925	859.467
62.447	25.177	1050.007	859.233
63.461	25.283	1049.385	859.152
64.476	25.166	1048.273	857.610
65.490	25.032	1047.461	856.230
66.505	24.986	1047.203	855.722
67.520	25.217	1046.011	855.776
68.534	24.873	1045.037	853.263
69.549	24.520	1044.216	850.836
70.563	24.643	1043.232	850.541
71.578	24.676	1042.067	849.673
72.593	24.375	1041.567	847.760
73.607	24.555	1040.845	847.954
74.622	24.724	1040.702	848.563
75.636	24.887	1039.695	848.442
76.651	24.849	1038.395	847.127
77.666	24.629	1038.018	845.703
78.680	24.758	1037.638	845.925
79.695	24.686	1037.224	845.177
80.709	24.956	1036.330	845.648
81.724	24.873	1035.421	844.438
82.739	25.145	1034.427	844.836
83.753	25.341	1034.043	845.370
84.768	25.570	1033.394	845.841
85.782	25.783	1032.499	846.034
86.797	25.650	1031.736	844.708
87.812	25.473	1030.526	842.815
88.826	25.677	1029.291	842.683
89.841	25.590	1028.724	841.740
90.855	25.630	1027.582	840.920
91.870	25.542	1027.396	840.279
92.884	25.538	1026.109	839.134
93.899	25.563	1024.975	838.249
94.914	25.510	1024.354	837.418
95.928	25.469	1023.225	836.230
96.943	25.223	1021.684	833.755
97.957	24.998	1020.967	832.052
98.972	24.908	1019.741	830.564
99.987	25.155	1018.580	830.688
101.001	25.391	1018.436	831.588
102.016	25.300	1017.294	830.161
103.030	25.213	1016.568	829.095
104.045	25.231	1015.258	828.037
105.060	24.893	1014.820	826.046
106.074	25.098	1013.879	826.151
107.089	25.501	1013.456	827.589
108.103	25.282	1012.705	825.896
109.118	25.157	1010.954	823.821
110.133	25.048	1009.984	822.458
111.147	24.933	1009.130	821.160
112.162	24.697	1008.716	819.672
113.176	24.960	1007.989	820.211
114.191	24.879	1006.882	818.866
115.206	24.658	1006.026	817.091
116.220	24.707	1004.877	816.308
117.235	24.745	1004.372	815.999
118.249	24.759	1003.343	815.152
119.264	24.643	1002.597	813.945
120.279	24.731	1002.128	813.893
121.293	24.713	1001.327	813.091
122.308	24.806	1000.203	812.529
123.322	24.682	999.230	811.104
124.337	24.624	997.938	809.717
125.352	24.149	996.290	806.164
126.366	23.904	995.629	804.449
127.381	24.687	995.335	807.680
128.395	25.246	994.922	809.797
129.410	25.343	994.043	809.446
130.424	25.222	993.027	807.999
131.439	25.313	992.269	807.721
132.454	25.347	991.428	807.120
133.468	25.203	990.706	805.812
134.483	25.343	989.871	805.691
135.497	25.669	989.014	806.382
136.512	25.693	988.203	805.757
137.527	25.720	987.261	805.042
138.541	25.514	986.945	803.789
139.556	25.607	986.245	803.563
140.570	25.710	985.300	803.181
141.585	25.715	984.303	802.322
142.600	25.827	983.253	801.891
143.614	25.986	982.989	802.314
144.629	25.827	982.351	801.016
145.643	25.739	980.747	799.245
146.658	25.544	979.047	796.924
147.673	25.569	978.204	796.280
148.687	25.408	976.808	794.362
149.702	25.333	975.747	793.095
150.716	25.321	975.167	792.502
151.731	25.452	974.735	792.661
152.746	25.574	974.726	793.120
153.760	25.822	973.616	793.239
154.775	25.898	973.051	793.041
155.789	25.643	972.363	791.291
156.804	25.687	971.018	790.321
157.819	25.780	970.428	790.178
158.833	25.983	969.778	790.467
159.848	25.773	968.993	788.837
160.862	25.755	967.561	787.522
161.877	25.656	966.779	786.385
162.892	25.827	965.727	786.204
163.906	25.612	964.283	784.025
164.921	25.615	963.492	783.324
165.935	25.797	962.585	783.309
166.950	25.709	961.496	781.972
167.964	25.647	961.306	781.481
168.979	25.603	959.467	779.722
169.994	25.390	959.238	778.546
171.008	25.736	958.642	779.493
172.023	25.730	957.827	778.732
173.037	25.582	956.453	776.910
174.052	25.400	955.581	775.344
175.067	25.325	955.350	774.767
176.081	25.384	954.811	774.513
177.096	25.543	953.617	774.164
178.110	25.233	953.078	772.322
179.125	25.042	951.731	770.341
180.140	25.154	951.585	770.638
181.154	25.378	951.207	771.223
182.169	25.555	951.535	772.184
183.183	25.741	950.711	772.244
184.198	25.739	949.932	771.532
185.213	25.654	949.331	770.614
186.227	25.703	948.677	770.226
187.242	25.656	947.980	769.387
188.256	25.686	947.571	769.117
189.271	25.829	946.257	768.593
190.286	25.433	945.371	766.116
191.300	24.787	943.709	761.952
192.315	24.047	942.214	757.531
193.329	23.949	941.719	756.646
194.344	24.913	942.003	760.909
195.359	25.512	942.259	763.591
196.373	25.690	941.563	763.717
197.388	25.493	941.121	762.456
198.402	25.524	940.351	761.896
199.417	25.662	939.407	761.648
200.432	25.253	938.788	759.348
201.446	25.135	938.182	758.291
202.461	25.201	937.632	758.057
203.475	24.508	935.567	753.398
204.490	23.661	934.302	748.741
205.504	24.722	934.015	752.918
206.519	25.200	934.548	755.293
207.534	25.230	933.935	754.856
208.548	25.729	933.896	756.857
209.563	25.431	933.068	754.868
210.577	25.426	932.119	754.014
211.592	25.711	932.300	755.287
212.607	25.671	931.714	754.579
213.621	25.785	930.853	754.290
214.636	25.798	930.143	753.702
215.650	25.756	929.121	752.636
216.665	25.717	928.933	752.250
217.680	25.840	927.831	751.806
218.694	25.313	926.917	748.801
219.709	25.164	926.159	747.501
220.723	25.564	925.600	748.651
221.738	25.672	925.213	748.721
222.753	25.600	924.401	747.699
223.767	25.704	923.988	747.730
224.782	25.984	923.903	748.757
225.796	25.906	923.496	748.037
226.811	25.239	921.926	743.935
227.826	24.626	920.177	739.921
228.840	24.710	920.160	740.191
229.855	24.879	918.968	739.864
230.869	24.473	918.411	737.671
231.884	24.909	918.096	739.154
232.899	25.544	918.427	741.977
233.913	25.400	918.122	741.072
234.928	25.407	917.194	740.286
235.942	25.342	916.375	739.293
236.957	25.200	915.306	737.781
237.972	25.116	915.196	737.281
238.986	25.329	914.467	737.502
240.001	25.229	913.763	736.458
241.015	25.406	913.677	737.051
242.030	25.644	912.955	737.377
243.045	25.646	912.320	736.810
244.059	25.776	911.906	736.943
245.074	25.679	910.653	735.466
246.088	25.275	910.107	733.309
247.103	25.505	909.424	733.633
248.117	26.099	909.898	736.376
249.132	26.357	909.498	737.039
250.147	26.460	908.868	736.882
251.161	26.530	908.757	737.013
252.176	26.514	907.638	735.974
253.190	26.604	907.111	735.849
254.205	26.735	906.995	736.222
255.220	26.553	906.410	734.943
256.234	26.410	905.702	733.722
257.249	26.413	905.030	733.126
258.263	26.374	904.351	732.355
259.278	26.495	903.422	732.025
260.293	26.513	903.131	731.800
261.307	26.547	902.262	731.167
262.322	26.258	901.552	729.362
263.336	25.586	899.690	725.079
264.351	24.546	897.674	719.207
265.366	24.503	897.725	719.009
266.380	25.761	898.244	724.427
267.395	26.148	897.669	725.456
268.409	26.139	897.005	724.818
269.424	26.268	896.807	725.111
270.439	26.439	895.773	724.897
271.453	26.495	895.348	724.715
272.468	26.583	895.372	725.022
273.482	26.558	894.759	724.359
274.497	26.163	893.218	721.469
275.512	25.822	892.274	719.281
276.526	26.292	892.526	721.299
277.541	26.432	892.000	721.370
278.555	26.145	891.269	719.568
279.570	26.047	890.606	718.579
280.585	26.305	890.127	719.158
281.599	26.186	889.058	717.757
282.614	25.477	888.153	714.147
283.628	25.490	887.541	713.642
284.643	26.003	887.016	715.193
285.657	25.531	885.973	712.420
286.672	25.214	885.306	710.566
287.687	25.789	885.330	712.795
288.701	25.883	884.785	712.668
289.716	25.463	884.216	710.484
290.730	25.569	883.466	710.239
291.745	25.173	882.325	707.695
292.760	25.528	882.347	709.053
293.774	26.531	882.586	713.136
294.789	26.813	882.371	714.009
295.803	26.858	882.061	713.872
296.818	26.960	880.991	713.343
297.833	26.436	879.846	710.295
298.847	26.297	879.261	709.217
299.862	26.538	879.307	710.137
300.876	26.761	878.876	710.599
301.891	26.683	878.334	709.792
302.906	26.303	877.520	707.584
303.920	26.514	876.756	707.730
304.935	26.871	876.357	708.743
305.949	26.922	875.758	708.392
306.964	26.598	874.869	706.347
307.979	26.589	874.767	706.167
308.993	26.902	874.913	707.443
310.008	27.078	873.616	707.017
311.022	26.676	872.938	704.841
312.037	26.613	872.080	703.845
313.052	26.339	871.371	702.144
314.066	25.339	869.921	697.033
315.081	25.015	869.202	695.140
316.095	25.864	869.599	698.691
317.110	26.301	869.703	700.406
318.125	25.651	867.898	696.373
319.139	24.667	866.158	691.115
320.154	24.491	865.871	690.145
321.168	25.483	866.519	694.434
322.183	26.156	866.463	696.928
323.197	26.435	866.224	697.748
324.212	26.596	865.803	697.969
325.227	26.603	865.249	697.487
326.241	26.437	864.353	696.064
327.256	26.426	863.572	695.333
328.270	26.394	863.080	694.752
329.285	26.081	862.289	692.851
330.300	25.751	861.794	691.126
331.314	26.145	861.346	692.216
332.329	26.692	861.184	694.123
333.343	26.739	860.893	694.005
334.358	26.699	860.630	693.580
335.373	26.718	860.197	693.241
336.387	26.978	860.132	694.122
337.402	27.123	860.008	694.513
338.416	27.005	859.519	693.609
339.431	27.256	859.013	694.098
340.446	27.424	858.805	694.507
341.460	27.094	858.441	692.893
342.475	27.075	857.663	692.132
343.489	26.955	857.687	691.633
344.504	27.465	857.201	693.120
345.519	27.549	856.863	693.106
346.533	27.537	856.450	692.664
347.548	27.720	855.608	692.617
348.562	27.517	855.266	691.508
349.577	27.414	854.537	690.469
350.592	27.386	854.112	689.959
351.606	27.512	853.369	689.773
352.621	27.337	852.123	688.044
353.635	27.320	851.424	687.353
354.650	26.648	849.935	683.555
355.665	25.576	848.564	678.353
356.679	25.985	848.241	679.573
357.694	26.603	847.570	681.303
358.708	26.383	847.152	680.081
359.723	26.851	847.336	681.928
360.738	27.221	846.804	682.828
361.752	27.273	846.425	682.659
362.767	27.534	846.057	683.279
363.781	27.722	845.614	683.564
364.796	28.016	844.971	684.088
365.810	27.945	845.015	683.795
366.825	27.924	844.377	683.140
367.840	27.582	843.528	681.115
368.854	27.186	842.767	678.963
369.869	27.029	842.770	678.316
370.883	27.198	842.032	678.295
371.898	27.181	841.466	677.717
372.913	27.343	841.330	678.148
373.927	27.370	840.913	677.852
374.942	27.365	840.437	677.392
375.956	27.413	840.108	677.245
376.971	27.832	839.038	677.879
377.986	27.789	839.214	677.802
379.000	27.818	838.746	677.469
380.015	27.574	838.260	676.113
381.029	27.739	837.580	676.115
382.044	27.917	836.806	676.090
383.059	27.851	836.723	675.720
384.073	27.796	835.887	674.781
385.088	27.787	834.830	673.833
386.102	27.598	834.555	672.855
387.117	27.622	833.488	672.023
388.132	27.242	832.555	669.814
389.146	26.847	831.695	667.608
390.161	27.008	831.735	668.176
391.175	27.492	831.643	669.822
392.190	27.293	830.448	668.070
393.205	25.865	828.602	661.288
394.219	24.286	826.425	653.709
395.234	24.248	825.927	653.119
396.248	25.749	827.952	660.168
397.263	27.274	828.636	666.247
398.278	27.287	828.544	666.160
399.292	26.991	827.778	664.403
400.307	27.158	827.089	664.401
401.321	27.098	827.058	664.099
402.336	27.461	826.938	665.271
403.350	27.946	826.661	666.758
404.365	28.278	826.493	667.774
405.380	28.487	826.316	668.336
406.394	28.504	825.724	667.859
407.409	28.555	824.874	667.299
408.423	28.439	824.730	666.699
409.438	28.508	824.370	666.602
410.453	28.560	823.857	666.315
411.467	28.527	823.481	665.835
412.482	28.456	823.471	665.509
413.496	28.803	822.504	665.925
414.511	28.510	822.641	664.918
415.526	28.600	821.957	664.629
416.540	28.388	820.954	662.995
417.555	28.288	820.213	661.976
418.569	28.229	819.899	661.451
419.584	28.241	819.176	660.851
420.599	28.188	818.650	660.178
421.613	94.375	1263.304	1370.329
422.628	81.289	1328.097	1370.438
