DTS Sentinel unit serial number:	SN413079Multiplexer serial number:	ORYXHardware model number:	OX4-SRSoftware version number:	ORYX F/W v4.00 Oryx Data Collector v3.7.2.0data status	okinstallation	princeton_trtdifferential loss correction	single-endedforward channel	channel 1reverse channel	N/Adate	2019/09/13time	04:02:35forward acquisition time	60.00reverse acquisition time	0.00gamma	496.2192k internal	0.2334k external	0.2334temperature offset calibration	1.0165default loss term (dB/km)	0.3790temperature slope calibration	1.0000multiplexer offset coefficient	1.0000multiplexer slope coefficient	1.0000fibre end	0.00T internal ref (°C)	27.00T ext. ref 1 (°C)	4.07T ext. ref 2 (°C)	21.27length (m)	temperature (°C)	Stokes	anti-Stokes-747.200	69.986	0.100	-0.104
-746.185	-119.320	0.321	0.056
-745.171	-133.334	-0.309	0.039
-744.156	22.378	0.275	0.226
-743.142	-80.850	-0.091	0.030
-742.127	-200.000	-0.002	0.323
-741.112	-27.781	0.135	-0.079
-740.098	168.520	0.087	-0.125
-739.083	-92.599	0.229	0.064
-738.069	-200.000	0.010	-0.156
-737.054	-81.516	-0.332	-0.110
-736.039	351.585	-0.077	-0.153
-735.025	-1.263	0.139	-0.099
-734.010	56.413	-0.183	-0.178
-732.996	-111.304	-0.024	0.005
-731.981	800.000	0.067	0.206
-730.966	312.593	0.079	0.150
-729.952	360.180	0.071	0.144
-728.937	264.553	-0.208	0.363
-727.923	393.356	-0.140	-0.293
-726.908	-118.798	0.045	-0.008
-725.894	-102.914	-0.224	0.054
-724.879	-200.000	-0.032	-0.191
-723.864	544.650	-0.029	-0.069
-722.850	-90.680	-0.020	-0.006
-721.835	-65.672	-0.194	-0.078
-720.821	-138.482	-0.102	-0.011
-719.806	-91.993	0.166	-0.047
-718.791	800.000	-0.053	0.206
-717.777	5.713	-0.261	-0.194
-716.762	-200.000	-0.007	-0.041
-715.748	-158.746	-0.027	-0.002
-714.733	706.213	-0.024	0.065
-713.718	12.920	0.117	-0.091
-712.704	235.432	-0.130	-0.216
-711.689	558.806	0.144	0.349
-710.675	672.396	-0.023	-0.059
-709.660	800.000	0.072	0.226
-708.645	129.782	0.201	-0.258
-707.631	-200.000	0.044	-0.377
-706.616	-190.116	-0.324	0.004
-705.602	-26.702	0.363	-0.213
-704.587	18.696	0.201	-0.162
-703.572	-33.899	0.072	-0.040
-702.558	445.924	0.173	-0.380
-701.543	68.515	0.166	0.171
-700.529	-58.109	0.119	-0.052
-699.514	54.642	-0.231	-0.224
-698.499	800.000	0.106	-0.322
-697.485	-56.883	0.102	-0.045
-696.470	-144.567	-0.243	-0.023
-695.456	-200.000	0.025	0.143
-694.441	161.640	-0.146	0.206
-693.426	-12.673	-0.426	0.279
-692.412	183.782	0.073	-0.108
-691.397	-167.966	-0.369	0.015
-690.383	-129.586	0.175	0.024
-689.368	-200.000	-0.016	-0.129
-688.354	-110.951	0.090	-0.018
-687.339	-70.162	0.216	-0.082
-686.324	-163.104	-0.146	-0.007
-685.310	390.896	0.102	0.213
-684.295	-100.655	-0.342	0.085
-683.281	800.000	-0.089	0.324
-682.266	-28.488	0.243	-0.140
-681.251	-73.914	-0.496	-0.181
-680.237	65.525	0.071	-0.072
-679.222	767.064	-0.095	-0.258
-678.208	494.082	0.088	-0.203
-677.193	-26.387	-0.151	0.089
-676.178	-181.560	0.180	-0.004
-675.164	-65.021	-0.213	-0.086
-674.149	-52.406	0.334	-0.155
-673.135	-38.057	0.412	-0.219
-672.120	-109.001	-0.197	0.042
-671.105	-92.999	-0.358	0.100
-670.091	-200.000	-0.029	0.151
-669.076	-200.000	-0.006	-0.117
-668.062	-160.555	-0.115	-0.006
-667.047	-24.613	0.074	0.044
-666.032	308.504	0.041	0.076
-665.018	-63.956	-0.249	-0.102
-664.003	-116.716	0.582	0.107
-662.989	132.380	-0.170	0.220
-661.974	-200.000	0.020	0.141
-660.959	-192.451	-0.289	-0.003
-659.945	800.000	0.041	0.122
-658.930	-18.869	-0.204	-0.128
-657.916	400.727	-0.159	-0.334
-656.901	207.636	0.164	-0.256
-655.886	-103.840	-0.160	0.037
-654.872	-200.000	0.071	-0.413
-653.857	800.000	0.077	-0.226
-652.843	8.606	0.241	-0.182
-651.828	800.000	0.074	-0.228
-650.814	-94.977	0.234	0.063
-649.799	203.313	-0.070	0.108
-648.784	-73.055	0.146	0.054
-647.770	-18.428	0.075	0.047
-646.755	-52.077	-0.231	-0.108
-645.741	435.743	-0.139	-0.303
-644.726	40.032	-0.168	-0.151
-643.711	379.078	0.037	0.076
-642.697	-72.702	0.085	-0.032
-641.682	51.969	0.109	0.103
-640.668	269.036	0.137	-0.241
-639.653	-46.257	-0.316	-0.156
-638.638	800.000	0.123	-0.410
-637.624	794.415	0.028	-0.078
-636.609	-73.351	-0.177	-0.065
-635.595	32.560	0.093	0.080
-634.580	15.333	0.303	-0.238
-633.565	42.741	-0.323	0.294
-632.551	-148.206	-0.347	-0.029
-631.536	408.759	-0.141	0.298
-630.522	-148.715	-0.403	0.033
-629.507	-68.949	0.084	-0.032
-628.492	-60.406	0.309	-0.131
-627.478	494.746	0.127	0.292
-626.463	192.668	-0.170	-0.256
-625.449	294.241	-0.081	-0.148
-624.434	-96.014	-0.076	0.020
-623.419	322.602	-0.110	-0.209
-622.405	-125.786	0.107	0.016
-621.390	-80.217	-0.075	-0.025
-620.376	-88.704	-0.187	0.056
-619.361	-118.455	-0.132	0.023
-618.346	44.477	0.097	-0.089
-617.332	373.963	-0.146	0.297
-616.317	33.938	0.217	0.189
-615.303	800.000	-0.024	-0.066
-614.288	-32.229	-0.055	0.031
-613.273	-14.341	0.171	-0.110
-612.259	800.000	0.061	0.238
-611.244	85.258	-0.236	0.259
-610.230	-200.000	0.018	-0.419
-609.215	-27.539	0.059	-0.035
-608.201	800.000	-0.046	-0.171
-607.186	44.265	-0.292	-0.268
-606.171	-99.135	0.082	0.021
-605.157	329.293	-0.146	-0.281
-604.142	-200.000	0.002	-0.073
-603.128	163.739	0.080	-0.113
-602.113	-200.000	0.012	-0.063
-601.098	738.517	0.019	-0.051
-600.084	800.000	-0.059	-0.183
-599.069	-165.290	0.410	-0.018
-598.055	-35.790	0.157	-0.085
-597.040	-83.424	-0.233	0.075
-596.025	-200.000	-0.020	-0.167
-595.011	-61.237	0.085	-0.036
-593.996	-131.575	-0.120	-0.016
-592.982	-61.933	-0.179	-0.075
-591.967	305.502	-0.084	-0.155
-590.952	-70.868	-0.036	-0.013
-589.938	-200.000	0.030	-0.136
-588.923	-13.241	-0.216	0.140
-587.909	-190.190	0.130	0.001
-586.894	-200.000	0.018	0.110
-585.879	-44.865	-0.118	-0.059
-584.865	45.644	0.274	0.253
-583.850	272.712	-0.087	-0.153
-582.836	-172.654	0.252	0.008
-581.821	227.173	0.031	-0.051
-580.806	-33.626	-0.127	-0.070
-579.792	44.485	-0.291	-0.267
-578.777	-109.962	0.281	-0.059
-577.763	800.000	0.105	-0.341
-576.748	182.474	0.054	-0.079
-575.733	-143.727	-0.117	0.011
-574.719	108.699	-0.179	0.213
-573.704	-200.000	0.001	0.245
-572.690	-200.000	-0.027	0.130
-571.675	-200.000	0.030	0.196
-570.661	98.322	-0.072	-0.083
-569.646	-26.501	-0.101	0.059
-568.631	800.000	0.131	-0.362
-567.617	-116.677	0.212	0.039
-566.602	-128.544	-0.166	0.024
-565.588	313.990	-0.052	0.098
-564.573	344.762	-0.130	-0.254
-563.558	14.168	0.268	-0.208
-562.544	445.063	-0.135	0.296
-561.529	-53.110	-0.144	0.066
-560.515	6.206	0.162	-0.120
-559.500	-19.406	-0.256	0.158
-558.485	77.676	-0.165	-0.176
-557.471	-200.000	0.035	0.403
-556.456	-200.000	0.033	0.261
-555.442	-67.872	0.108	-0.042
-554.427	-91.341	-0.102	-0.029
-553.412	68.643	-0.035	-0.035
-552.398	-107.485	-0.138	-0.030
-551.383	800.000	0.013	-0.047
-550.369	108.152	-0.098	0.116
-549.354	-104.455	-0.244	-0.056
-548.339	-54.385	0.116	0.053
-547.325	-39.352	-0.203	-0.106
-546.310	23.449	0.159	0.130
-545.296	445.690	0.067	-0.146
-544.281	208.075	-0.063	-0.098
-543.266	-118.755	0.168	0.029
-542.252	408.664	0.123	0.259
-541.237	-162.760	0.193	-0.009
-540.223	3.410	0.099	0.072
-539.208	159.766	-0.156	-0.217
-538.193	-3.866	0.186	0.129
-537.179	-162.045	-0.242	0.012
-536.164	-135.010	0.255	-0.031
-535.150	129.279	0.233	0.296
-534.135	-65.451	0.051	0.020
-533.121	800.000	0.076	-0.214
-532.106	18.566	-0.109	-0.087
-531.091	732.628	0.148	-0.395
-530.077	-200.000	-0.012	0.135
-529.062	-16.820	0.127	-0.080
-528.048	-34.355	-0.161	-0.088
-527.033	-2.862	0.141	0.098
-526.018	299.088	-0.112	-0.205
-525.004	68.647	0.053	-0.054
-523.989	37.797	0.345	-0.306
-522.975	-22.817	0.360	0.217
-521.960	-3.807	-0.062	-0.043
-520.945	-34.081	-0.280	0.153
-519.931	-87.043	-0.193	-0.059
-518.916	2.569	0.075	0.054
-517.902	-131.023	-0.161	-0.021
-516.887	-200.000	-0.000	0.114
-515.872	-200.000	-0.006	0.086
-514.858	305.686	-0.061	0.113
-513.843	-72.488	0.166	-0.061
-512.829	198.033	0.072	-0.109
-511.814	55.020	0.110	0.106
-510.799	-136.028	-0.197	-0.023
-509.785	-200.000	-0.008	0.282
-508.770	-55.318	0.281	-0.126
-507.756	800.000	-0.037	-0.155
-506.741	256.925	-0.037	0.063
-505.726	-129.230	0.036	0.005
-504.712	25.746	-0.108	0.090
-503.697	554.245	0.098	-0.234
-502.683	51.983	0.234	0.222
-501.668	-200.000	0.006	0.123
-500.653	65.189	0.079	0.080
-499.639	675.174	-0.077	0.199
-498.624	-106.469	0.022	0.005
-497.610	-200.000	-0.053	0.269
-496.595	65.439	0.149	0.150
-495.581	67.824	-0.031	0.032
-494.566	800.000	-0.023	0.080
-493.551	-200.000	0.300	0.000
-492.537	-52.059	-0.309	-0.143
-491.522	-70.881	0.268	0.101
-490.508	-129.333	0.068	-0.009
-489.493	147.521	-0.146	-0.196
-488.478	5.064	0.040	-0.029
-487.464	-95.423	0.236	-0.063
-486.449	-19.211	-0.007	-0.004
-485.435	-200.000	0.039	-0.209
-484.420	37.662	-0.088	-0.078
-483.405	-136.329	0.186	0.022
-482.391	-200.000	-0.003	0.268
-481.376	-27.344	-0.158	-0.092
-480.362	110.747	-0.222	0.266
-479.347	21.658	-0.320	0.259
-478.332	92.735	-0.159	-0.178
-477.318	-192.353	-0.247	-0.002
-476.303	800.000	-0.034	-0.144
-475.289	800.000	-0.062	0.269
-474.274	325.288	0.095	0.181
-473.259	458.597	-0.065	-0.143
-472.245	-117.982	0.122	0.022
-471.230	-95.397	-0.054	0.014
-470.216	-70.307	-0.099	-0.037
-469.201	-200.000	-0.029	0.385
-468.186	55.156	0.048	0.046
-467.172	-171.931	0.182	-0.006
-466.157	-135.154	-0.326	0.039
-465.143	800.000	0.040	0.137
-464.128	-66.906	0.228	0.090
-463.113	-10.641	0.117	0.077
-462.099	-200.000	0.012	0.162
-461.084	800.000	0.038	0.122
-460.070	118.314	-0.123	0.151
-459.055	800.000	-0.145	-0.437
-458.040	-200.000	-0.007	-0.175
-457.026	-63.487	-0.181	0.074
-456.011	465.976	-0.093	0.207
-454.997	39.407	0.101	0.090
-453.982	-200.000	-0.026	0.133
-452.968	-121.015	-0.130	-0.022
-451.953	-200.000	0.002	0.068
-450.938	-61.371	-0.145	-0.061
-449.924	-38.458	-0.359	-0.189
-448.909	205.102	-0.101	-0.157
-447.895	-75.398	-0.093	-0.033
-446.880	55.613	-0.218	0.210
-445.865	297.567	0.065	0.119
-444.851	10.259	-0.221	-0.167
-443.836	-79.107	-0.390	0.131
-442.822	-186.277	0.357	-0.005
-441.807	-162.377	-0.165	0.008
-440.792	-158.349	-0.165	0.010
-439.778	212.564	0.328	0.514
-438.763	-200.000	0.020	-0.143
-437.749	-59.002	-0.104	-0.044
-436.734	121.761	-0.088	-0.109
-435.719	127.400	-0.172	0.217
-434.705	169.866	0.025	-0.035
-433.690	391.047	0.054	0.111
-432.676	-87.947	0.218	0.065
-431.661	39.266	0.220	0.195
-430.646	-85.383	-0.166	0.051
-429.632	90.408	-0.122	-0.136
-428.617	78.115	0.333	-0.353
-427.603	-200.000	0.003	-0.098
-426.588	245.408	0.060	-0.100
-425.573	-14.015	0.137	0.088
-424.559	-167.681	0.157	-0.006
-423.544	-120.560	0.151	0.025
-422.530	-46.651	-0.116	-0.057
-421.515	-200.000	0.081	0.406
-420.500	-200.000	0.013	0.174
-419.486	64.066	-0.291	0.290
-418.471	-200.000	-0.053	0.374
-417.457	168.478	0.142	0.201
-416.442	-53.072	-0.216	0.099
-415.428	-54.152	-0.179	-0.081
-414.413	-25.565	0.070	-0.041
-413.398	-94.009	0.386	0.105
-412.384	-56.452	-0.180	-0.079
-411.369	31.947	0.247	-0.212
-410.355	311.303	-0.063	0.118
-409.340	800.000	-0.073	-0.230
-408.325	-200.000	-0.027	-0.153
-407.311	489.592	0.062	-0.140
-406.296	-70.768	-0.177	-0.066
-405.282	-200.000	-0.065	0.344
-404.267	79.488	-0.264	-0.281
-403.252	159.217	-0.079	-0.109
-402.238	-49.954	0.315	-0.148
-401.223	800.000	0.067	-0.217
-400.209	196.680	0.203	-0.306
-399.194	800.000	0.057	-0.194
-398.179	-200.000	-0.005	0.198
-397.165	800.000	-0.052	0.196
-396.150	-98.320	0.364	-0.093
-395.136	57.846	-0.142	-0.138
-394.121	35.947	0.144	-0.126
-393.106	86.475	-0.158	0.172
-392.092	-46.147	0.054	0.026
-391.077	-200.000	-0.005	0.178
-390.063	16.808	-0.055	0.043
-389.048	-200.000	-0.011	0.098
-388.033	100.300	-0.096	-0.110
-387.019	-118.677	0.296	-0.052
-386.004	800.000	0.093	-0.336
-384.990	-110.764	0.313	0.064
-383.975	258.395	-0.069	-0.117
-382.960	14.413	0.292	-0.226
-381.946	-38.540	-0.158	-0.083
-380.931	128.256	-0.209	-0.263
-379.917	202.009	-0.071	0.108
-378.902	-98.091	-0.142	-0.036
-377.888	-200.000	0.001	-0.087
-376.873	-97.664	0.261	-0.067
-375.858	313.330	0.035	-0.065
-374.844	-200.000	0.002	0.019
-373.829	-111.479	0.169	0.034
-372.815	155.820	0.235	-0.321
-371.800	-55.268	0.067	0.030
-370.785	-62.155	-0.267	0.110
-369.771	-200.000	-0.087	0.515
-368.756	-45.904	0.159	0.078
-367.742	-46.272	-0.253	0.123
-366.727	-79.309	0.268	0.090
-365.712	-35.755	0.169	0.091
-364.698	77.974	-0.173	-0.183
-363.683	-200.000	0.004	-0.149
-362.669	-159.394	0.154	-0.009
-361.654	-6.240	-0.056	-0.038
-360.639	-42.145	-0.309	0.157
-359.625	102.713	-0.062	-0.071
-358.610	800.000	0.070	0.202
-357.596	-200.000	-0.018	0.397
-356.581	187.075	-0.107	-0.158
-355.566	-200.000	-0.028	-0.410
-354.552	-57.595	-0.123	-0.053
-353.537	-108.461	-0.073	0.015
-352.523	265.406	-0.049	0.085
-351.508	34.859	-0.165	0.143
-350.493	-101.551	0.184	0.044
-349.479	-121.242	0.140	0.023
-348.464	67.315	0.077	-0.078
-347.450	-101.905	0.304	-0.073
-346.435	-4.909	0.073	0.050
-345.420	538.917	0.095	-0.224
-344.406	-29.545	-0.264	-0.149
-343.391	137.369	0.086	0.112
-342.377	-10.220	-0.158	0.104
-341.362	800.000	0.051	0.177
-340.348	219.854	0.088	-0.139
-339.333	-100.690	-0.137	-0.033
-338.318	800.000	0.031	0.105
-337.304	270.994	0.133	-0.232
-336.289	-9.908	-0.114	-0.075
-335.275	-200.000	-0.018	-0.151
-334.260	330.202	-0.102	0.195
-333.245	27.298	-0.109	0.091
-332.231	160.978	-0.150	0.207
-331.216	-66.180	0.314	0.124
-330.202	800.000	-0.076	0.210
-329.187	46.850	-0.195	-0.179
-328.172	310.727	-0.172	-0.319
-327.158	237.366	-0.237	-0.388
-326.143	-26.916	-0.210	-0.121
-325.129	-105.981	-0.266	0.059
-324.114	-200.000	0.010	0.181
-323.099	172.122	0.116	-0.165
-322.085	-88.297	0.212	-0.063
-321.070	-177.079	0.302	0.007
-320.056	182.534	0.167	-0.243
-319.041	516.351	0.093	0.214
-318.026	-157.049	0.344	0.021
-317.012	67.929	-0.170	0.171
-315.997	-200.000	-0.014	-0.198
-314.983	-29.321	0.155	0.087
-313.968	-35.052	-0.248	0.133
-312.953	444.126	-0.031	0.067
-311.939	289.052	-0.093	0.167
-310.924	204.623	0.320	0.491
-309.910	325.738	-0.042	0.079
-308.895	-200.000	0.020	-0.092
-307.880	800.000	0.028	-0.119
-306.866	800.000	0.082	-0.223
-305.851	-200.000	0.033	0.150
-304.837	800.000	0.019	-0.080
-303.822	181.620	-0.124	0.180
-302.807	-131.161	-0.340	-0.045
-301.793	72.992	0.060	-0.062
-300.778	-200.000	0.028	-0.343
-299.764	-154.586	-0.425	0.028
-298.749	-200.000	0.051	0.245
-297.735	-200.000	0.014	-0.166
-296.720	276.561	-0.068	-0.120
-295.705	-6.983	0.170	-0.114
-294.691	-31.794	0.101	0.056
-293.676	800.000	-0.104	-0.418
-292.662	-200.000	-0.024	-0.181
-291.647	454.821	0.121	0.264
-290.632	320.339	0.114	0.213
-289.618	-35.808	0.216	0.115
-288.603	-94.232	-0.239	0.064
-287.589	-160.537	-0.309	0.016
-286.574	-50.015	0.174	0.081
-285.559	-45.578	-0.374	0.183
-284.545	-114.259	0.392	-0.075
-283.530	-12.546	0.154	0.099
-282.516	2.227	0.249	-0.177
-281.501	752.636	-0.020	0.053
-280.486	243.213	-0.078	-0.130
-279.472	-200.000	0.020	-0.177
-278.457	-114.330	0.217	-0.041
-277.443	-78.494	0.234	0.079
-276.428	-200.000	0.033	-0.189
-275.413	-78.118	0.299	0.102
-274.399	-76.103	-0.366	0.128
-273.384	88.088	-0.031	-0.033
-272.370	-182.346	0.108	0.002
-271.355	-85.295	-0.460	0.142
-270.340	800.000	0.006	-0.017
-269.326	-162.396	0.181	0.009
-268.311	412.574	0.075	0.156
-267.297	-200.000	-0.016	0.166
-266.282	-4.029	-0.145	-0.099
-265.267	161.127	-0.084	-0.116
-264.253	-78.466	-0.048	0.016
-263.238	-27.367	-0.089	-0.051
-262.224	35.604	-0.237	0.205
-261.209	-200.000	0.008	-0.082
-260.195	-200.000	0.006	0.217
-259.180	-19.220	0.252	0.155
-258.165	23.966	-0.167	-0.136
-257.151	74.751	0.244	0.253
-256.136	-200.000	0.022	-0.169
-255.122	-151.955	-0.219	-0.016
-254.107	-139.342	-0.536	0.057
-253.092	39.191	-0.417	0.368
-252.078	800.000	0.087	0.245
-251.063	-173.562	0.197	-0.006
-250.049	260.108	0.052	-0.089
-249.034	385.539	-0.012	-0.024
-248.019	276.705	-0.129	0.225
-247.005	-161.934	0.255	0.013
-245.990	-200.000	0.029	0.410
-244.976	-141.041	0.323	0.033
-243.961	75.414	0.188	0.196
-242.946	-113.019	0.272	0.053
-241.932	257.551	0.141	0.239
-240.917	112.416	0.125	-0.149
-239.903	-200.000	-0.000	-0.135
-238.888	-200.000	0.047	-0.317
-237.873	-200.000	-0.020	0.182
-236.859	-78.883	0.248	0.083
-235.844	-68.294	0.087	-0.033
-234.830	-98.856	-0.082	0.021
-233.815	-200.000	0.000	-0.362
-232.800	-79.713	0.347	-0.115
-231.786	13.261	0.073	0.056
-230.771	-27.423	0.108	0.062
-229.757	-68.355	-0.113	-0.043
-228.742	-16.225	-0.237	0.148
-227.727	-59.470	-0.221	-0.093
-226.713	168.603	0.024	0.034
-225.698	3.386	0.124	-0.089
-224.684	-200.000	-0.011	-0.096
-223.669	-76.158	-0.158	0.055
-222.655	-146.228	0.087	0.008
-221.640	227.990	-0.081	0.130
-220.625	-149.076	0.354	0.028
-219.611	-199.074	-0.066	0.000
-218.596	-78.342	-0.277	0.094
-217.582	-10.444	0.252	-0.165
-216.567	271.512	0.090	-0.156
-215.552	19.043	0.217	-0.171
-214.538	-31.946	-0.128	0.071
-213.523	-200.000	-0.014	0.097
-212.509	-86.004	-0.284	0.086
-211.494	53.988	-0.078	0.074
-210.479	40.313	0.157	-0.139
-209.465	98.065	0.147	0.167
-208.450	-200.000	-0.042	0.209
-207.436	-70.104	0.253	-0.095
-206.421	-137.504	-0.393	0.044
-205.406	-200.000	-0.369	0.000
-204.392	-200.000	0.029	-0.220
-203.377	395.862	-0.051	-0.104
-202.363	-200.000	0.015	-0.109
-201.348	125.905	-0.186	0.232
-200.333	-18.515	-0.365	-0.224
-199.319	-200.000	-0.001	0.073
-198.304	-149.602	0.032	0.002
-197.290	387.520	-0.054	-0.109
-196.275	229.521	0.085	-0.136
-195.260	-96.757	0.370	-0.096
-194.246	244.755	-0.034	-0.057
-193.231	81.446	0.149	0.159
-192.217	222.524	-0.109	0.172
-191.202	-191.068	0.096	-0.001
-190.187	800.000	-0.056	-0.190
-189.173	147.995	-0.256	0.339
-188.158	43.347	-0.147	-0.132
-187.144	-41.856	-0.131	-0.066
-186.129	800.000	-0.058	0.196
-185.114	7.890	0.243	-0.179
-184.100	-137.829	0.227	-0.025
-183.085	-200.000	0.043	-0.256
-182.071	800.000	0.012	-0.035
-181.056	-93.272	0.309	0.084
-180.042	-178.457	0.180	0.004
-179.027	89.889	-0.202	0.222
-178.012	-117.703	0.180	0.032
-176.998	-65.140	-0.263	-0.104
-175.983	-19.996	0.216	-0.131
-174.969	-200.000	-0.019	-0.275
-173.954	-166.705	0.074	-0.003
-172.939	-200.000	0.004	-0.047
-171.925	98.663	0.177	-0.201
-170.910	-57.357	0.229	-0.099
-169.896	94.525	0.055	-0.061
-168.881	179.789	0.070	-0.101
-167.866	-200.000	0.026	-0.143
-166.852	-97.958	0.425	-0.108
-165.837	-31.925	0.067	0.037
-164.823	-24.386	0.114	0.067
-163.808	-200.000	0.001	-0.182
-162.793	-74.278	0.136	0.048
-161.779	-161.236	-0.114	-0.006
-160.764	800.000	0.154	-0.454
-159.750	-200.000	0.008	0.199
-158.735	325.454	-0.098	0.184
-157.720	11.407	0.128	0.096
-156.706	31.400	-0.163	-0.137
-155.691	800.000	0.061	0.205
-154.677	43.954	-0.174	0.157
-153.662	-120.983	-0.278	-0.046
-152.647	-200.000	0.003	0.275
-151.633	105.560	-0.219	0.254
-150.618	-65.592	-0.130	-0.051
-149.604	800.000	-0.052	-0.200
-148.589	-142.372	-0.344	0.033
-147.574	-110.929	-0.508	0.103
-146.560	800.000	0.087	0.256
-145.545	-200.000	0.005	0.214
-144.531	404.157	0.098	-0.203
-143.516	183.839	0.138	-0.200
-142.502	-129.489	-0.233	-0.032
-141.487	-200.000	-0.009	0.076
-140.472	-200.000	-0.013	0.329
-139.458	800.000	0.075	0.240
-138.443	71.964	0.224	-0.229
-137.429	-107.484	0.369	0.079
-136.414	-200.000	0.024	-0.167
-135.399	-127.176	-0.252	-0.036
-134.385	800.000	0.116	0.428
-133.370	93.896	0.093	0.103
-132.356	-116.114	-0.059	0.011
-131.341	-112.390	-0.171	0.033
-130.326	-200.000	0.005	0.047
-129.312	-170.091	0.401	-0.014
-128.297	649.592	-0.060	-0.151
-127.283	-136.118	0.115	-0.013
-126.268	298.410	-0.063	-0.113
-125.253	-195.522	0.180	0.001
-124.239	114.457	0.085	-0.101
-123.224	-32.564	0.237	-0.129
-122.210	-200.000	-0.075	0.336
-121.195	-94.880	-0.120	0.032
-120.180	281.700	-0.089	0.157
-119.166	162.420	-0.073	-0.101
-118.151	-98.943	0.144	-0.036
-117.137	115.374	-0.161	0.193
-116.122	800.000	0.109	-0.453
-115.107	800.000	-0.125	0.355
-114.093	36.150	0.338	0.292
-113.078	-184.182	0.432	-0.007
-112.064	-58.039	-0.139	-0.060
-111.049	-46.933	0.195	-0.093
-110.034	28.359	0.231	0.192
-109.020	-54.839	0.038	-0.017
-108.005	-69.045	0.092	0.035
-106.991	-188.169	-0.210	0.003
-105.976	-46.734	-0.135	-0.065
-104.962	-60.175	-0.241	0.101
-103.947	112.348	0.141	0.167
-102.932	-5.626	0.251	0.168
-101.918	784.820	-0.085	0.228
-100.903	-80.789	-0.221	0.072
-99.889	797.767	0.112	-0.304
-98.874	800.000	-0.056	-0.218
-97.859	-200.000	0.007	0.212
-96.845	-40.216	0.177	-0.090
-95.830	-200.000	-0.051	0.458
-94.816	144.780	-0.161	-0.210
-93.801	-22.340	0.181	-0.108
-92.786	95.577	-0.134	-0.150
-91.772	800.000	-0.106	0.390
-90.757	4.669	0.218	0.157
-89.743	544.278	0.082	0.192
-88.728	-17.281	-0.108	-0.067
-87.713	-131.407	0.097	-0.013
-86.699	800.000	-0.094	0.276
-85.684	-200.000	-0.011	-0.211
-84.670	590.084	-0.109	-0.265
-83.655	129.324	-0.136	-0.170
-82.640	-168.981	0.240	-0.009
-81.626	618.155	0.200	-0.491
-80.611	-9.916	-0.500	-0.326
-79.597	-200.000	-0.043	0.277
-78.582	-116.138	0.587	-0.107
-77.567	-3.912	-0.239	0.163
-76.553	119.305	0.311	-0.377
-75.538	-32.409	0.432	-0.236
-74.524	24.969	0.236	0.192
-73.509	800.000	0.024	0.101
-72.494	-200.000	-0.029	0.183
-71.480	379.602	0.096	-0.192
-70.465	800.000	0.057	-0.174
-69.451	-200.000	0.034	0.174
-68.436	719.497	0.108	0.280
-67.422	432.327	0.093	-0.197
-66.407	-91.221	0.114	0.032
-65.392	118.870	-0.020	-0.024
-64.378	159.246	0.159	-0.216
-63.363	-14.301	-0.164	-0.103
-62.349	-80.611	0.093	0.030
-61.334	20.831	-1.236	-0.980
-60.319	217.710	0.677	1.057
-59.305	-200.000	-0.276	-1.199
-58.290	153.989	0.821	1.102
-57.276	712.005	0.520	1.348
-56.261	-200.000	116.856	661.110
-55.246	524.209	1536.319	3535.165
-54.232	176.606	2702.285	3843.752
-53.217	107.711	2150.375	2505.214
-52.203	38.592	1591.550	1388.915
-51.188	30.282	1336.818	1116.813
-50.173	27.493	1298.478	1068.406
-49.159	55.097	1356.767	1282.536
-48.144	52.950	1370.446	1282.590
-47.130	30.488	1325.377	1108.303
-46.115	27.018	1307.365	1072.742
-45.100	26.837	1302.355	1067.519
-44.086	26.733	1300.179	1065.083
-43.071	26.717	1297.397	1062.670
-42.057	26.715	1295.584	1061.134
-41.042	26.855	1293.663	1060.334
-40.027	26.872	1292.397	1059.356
-39.013	26.883	1290.401	1057.738
-37.998	26.908	1288.486	1056.272
-36.984	26.948	1286.522	1054.853
-35.969	26.951	1284.974	1053.561
-34.954	27.015	1283.427	1052.622
-33.940	26.984	1282.184	1051.384
-32.925	27.080	1280.830	1050.782
-31.911	27.072	1279.442	1049.560
-30.896	27.085	1277.882	1048.313
-29.881	27.202	1276.284	1047.632
-28.867	27.102	1274.901	1045.879
-27.852	27.120	1273.696	1044.957
-26.838	27.100	1272.145	1043.524
-25.823	27.061	1271.217	1042.498
-24.809	27.195	1269.030	1041.430
-23.794	27.150	1268.132	1040.396
-22.779	27.049	1266.865	1038.739
-21.765	27.040	1266.003	1037.940
-20.750	27.073	1264.256	1036.653
-19.736	27.077	1263.120	1035.704
-18.721	26.903	1262.674	1034.305
-17.706	26.979	1261.073	1033.382
-16.692	26.980	1259.558	1032.110
-15.677	26.951	1258.874	1031.342
-14.663	26.969	1257.568	1030.332
-13.648	26.954	1256.563	1029.384
-12.633	26.928	1255.528	1028.349
-11.619	26.957	1254.852	1027.915
-10.604	27.035	1253.983	1027.604
-9.590	27.017	1252.661	1026.382
-8.575	26.830	1252.215	1024.918
-7.560	26.921	1251.186	1024.548
-6.546	26.849	1250.588	1023.614
-5.531	26.864	1249.179	1022.502
-4.517	26.922	1248.433	1022.179
-3.502	27.041	1247.314	1021.892
-2.487	27.058	1246.007	1020.875
-1.473	26.980	1242.296	1017.358
-0.458	25.292	1227.281	995.666
0.556	23.413	1210.095	957.119
1.571	19.527	1214.803	939.652
2.586	18.548	1229.782	945.753
3.600	18.323	1218.093	935.452
4.615	14.235	1147.318	859.942
5.629	7.361	1075.940	772.967
6.644	4.371	1058.298	745.869
7.659	4.148	1056.006	743.123
8.673	3.820	1054.548	740.459
9.688	3.922	1053.274	739.986
10.702	4.429	1050.932	740.693
11.717	8.875	1057.140	766.297
12.731	16.615	1068.549	811.770
13.746	21.559	1074.549	840.042
14.761	22.497	1075.538	845.244
15.775	21.839	1073.835	840.680
16.790	20.879	1071.671	834.316
17.804	20.310	1070.416	830.545
18.819	20.017	1069.301	828.202
19.834	20.133	1069.195	828.604
20.848	20.090	1068.314	827.644
21.863	19.975	1067.483	826.375
22.877	19.737	1066.464	824.379
23.892	19.709	1066.109	823.900
24.907	19.664	1065.291	822.976
25.921	19.591	1063.732	821.357
26.936	19.506	1063.267	820.517
27.950	19.534	1061.704	819.373
28.965	19.722	1060.297	819.106
29.980	19.882	1059.021	818.805
30.994	19.941	1058.368	818.504
32.009	20.098	1056.925	818.059
33.023	19.974	1056.289	816.907
34.038	19.777	1055.520	815.314
35.053	19.650	1054.207	813.627
36.067	19.681	1053.373	813.059
37.082	19.794	1052.903	813.155
38.096	19.785	1052.409	812.660
39.111	19.880	1051.486	812.323
40.126	19.576	1050.069	809.729
41.140	19.330	1048.218	807.081
42.155	19.137	1047.199	805.320
43.169	19.193	1045.999	804.590
44.184	19.030	1045.346	803.253
45.199	19.220	1043.938	802.989
46.213	19.434	1043.623	803.671
47.228	19.457	1043.427	803.554
48.242	19.619	1042.220	803.308
49.257	19.644	1041.361	802.692
50.271	19.784	1040.663	802.733
51.286	19.832	1039.721	802.158
52.301	19.823	1038.491	801.097
53.315	19.573	1037.546	799.139
54.330	19.366	1036.223	797.091
55.344	19.367	1035.526	796.492
56.359	19.376	1034.777	795.884
57.374	19.340	1033.375	794.568
58.388	19.237	1032.507	793.359
59.403	19.217	1031.390	792.338
60.417	19.008	1031.339	791.269
61.432	19.001	1030.390	790.437
62.447	19.022	1029.168	789.528
63.461	19.041	1028.502	789.033
64.476	18.919	1027.470	787.611
65.490	18.897	1026.769	786.904
66.505	19.092	1025.593	786.826
67.520	18.902	1025.597	785.888
68.534	19.154	1024.331	786.003
69.549	18.863	1024.114	784.438
70.563	18.754	1023.364	783.296
71.578	18.665	1022.466	782.133
72.593	18.561	1021.400	780.777
73.607	18.633	1021.016	780.740
74.622	18.661	1020.215	780.184
75.636	18.774	1019.567	780.134
76.651	18.783	1019.069	779.723
77.666	18.834	1018.203	779.225
78.680	18.780	1017.790	778.596
79.695	18.910	1016.935	778.463
80.709	19.080	1016.917	779.148
81.724	19.155	1015.841	778.594
82.739	19.461	1015.002	779.264
83.753	19.702	1014.528	779.920
84.768	20.052	1014.076	781.082
85.782	20.127	1013.449	780.868
86.797	20.039	1012.558	779.713
87.812	19.823	1011.460	777.829
88.826	19.877	1010.268	777.085
89.841	20.128	1009.329	777.421
90.855	20.025	1008.747	776.444
91.870	20.012	1008.061	775.788
92.884	20.072	1007.063	775.219
93.899	20.071	1005.970	774.305
94.914	20.113	1005.439	774.017
95.928	20.044	1004.511	772.926
96.943	19.829	1003.595	771.193
97.957	19.897	1002.321	770.450
98.972	19.959	1001.866	770.309
99.987	19.914	1001.207	769.533
101.001	19.843	1000.362	768.499
102.016	19.942	999.017	767.838
103.030	20.056	997.992	767.484
104.045	19.809	997.812	766.188
105.060	19.706	996.887	764.953
106.074	19.489	995.170	762.609
107.089	19.165	994.154	760.333
108.103	19.077	993.117	759.082
109.118	18.932	992.144	757.633
110.133	19.078	990.790	757.172
111.147	18.994	989.919	756.071
112.162	19.217	989.176	756.417
113.176	19.163	988.938	755.933
114.191	19.273	988.252	755.824
115.206	19.268	987.683	755.300
116.220	19.105	986.575	753.672
117.235	19.189	985.566	753.202
118.249	19.152	984.622	752.250
119.264	18.930	984.100	750.817
120.279	18.945	983.352	750.243
121.293	18.752	982.194	748.453
122.308	18.715	981.347	747.582
123.322	18.614	980.232	746.226
124.337	18.717	979.096	745.741
125.352	18.740	978.353	745.211
126.366	18.622	977.577	744.044
127.381	18.645	976.698	743.408
128.395	18.745	975.662	742.987
129.410	18.796	974.697	742.405
130.424	19.019	973.949	742.735
131.439	19.140	973.513	742.856
132.454	19.278	972.991	742.988
133.468	19.280	971.638	741.897
134.483	19.220	971.590	741.537
135.497	19.242	970.552	740.774
136.512	19.162	969.625	739.657
137.527	19.235	968.745	739.233
138.541	19.155	968.324	738.505
139.556	19.299	967.351	738.314
140.570	19.595	966.796	739.091
141.585	19.826	966.111	739.489
142.600	19.902	965.040	738.931
143.614	19.984	964.633	738.902
144.629	19.962	964.094	738.330
145.643	19.864	962.664	736.754
146.658	19.620	961.885	735.053
147.673	19.449	960.479	733.189
148.687	19.368	959.301	731.879
149.702	19.276	958.267	730.634
150.716	19.276	957.944	730.326
151.731	19.357	957.145	729.992
152.746	19.372	956.432	729.447
153.760	19.459	955.599	729.118
154.775	19.525	955.426	729.199
155.789	19.442	955.056	728.499
156.804	19.620	954.182	728.520
157.819	19.668	953.434	728.089
158.833	19.679	953.277	727.950
159.848	20.054	952.083	728.550
160.862	19.835	950.825	726.602
161.877	19.378	949.709	723.769
162.892	19.298	948.265	722.268
163.906	19.093	947.426	720.709
164.921	19.202	946.481	720.382
165.935	19.459	945.600	720.722
166.950	19.534	944.836	720.386
167.964	19.566	944.080	719.882
168.979	19.287	943.029	717.855
169.994	19.278	942.194	717.118
171.008	19.498	941.636	717.544
172.023	19.723	941.288	718.151
173.037	19.921	940.447	718.266
174.052	19.755	939.222	716.580
175.067	19.268	938.591	714.016
176.081	19.145	937.646	712.728
177.096	19.293	937.197	712.935
178.110	19.262	936.987	712.583
179.125	19.256	936.613	712.210
180.140	19.400	936.005	712.280
181.154	19.535	936.155	712.890
182.169	19.872	935.388	713.630
183.183	19.711	934.837	712.487
184.198	19.723	933.603	711.531
185.213	19.887	932.971	711.660
186.227	19.743	932.829	710.898
187.242	20.003	932.133	711.373
188.256	20.198	931.541	711.656
189.271	20.182	930.716	710.897
190.286	19.729	929.506	708.058
191.300	19.095	928.642	704.740
192.315	18.945	928.006	703.581
193.329	19.140	927.477	703.915
194.344	19.344	926.723	704.113
195.359	19.409	926.726	704.320
196.373	19.639	925.828	704.512
197.388	19.795	925.902	705.145
198.402	20.071	925.268	705.722
199.417	20.147	924.886	705.680
200.432	20.359	924.382	706.092
201.446	20.565	923.963	706.547
202.461	20.504	923.710	706.043
203.475	20.312	923.005	704.664
204.490	19.973	922.024	702.477
205.504	19.924	921.267	701.638
206.519	19.906	920.117	700.630
207.534	19.792	919.649	699.750
208.548	20.017	918.410	699.653
209.563	19.914	918.385	699.156
210.577	19.952	917.748	698.764
211.592	20.242	917.417	699.617
212.607	20.312	916.759	699.338
213.621	20.145	915.728	697.816
214.636	20.107	914.948	697.009
215.650	20.237	914.492	697.122
216.665	20.253	913.819	696.609
217.680	20.471	913.080	696.859
218.694	20.475	912.549	696.411
219.709	20.330	912.357	695.622
220.723	20.369	910.909	694.610
221.738	20.299	910.334	693.832
222.753	20.266	909.677	693.137
223.767	20.321	909.884	693.455
224.782	20.466	909.133	693.400
225.796	20.676	908.056	693.353
226.811	20.426	907.432	691.819
227.826	20.288	906.743	690.682
228.840	20.092	905.919	689.215
229.855	20.190	904.803	688.693
230.869	20.227	904.196	688.319
231.884	20.174	903.203	687.291
232.899	19.929	902.814	685.965
233.913	19.999	901.929	685.508
234.928	19.848	901.297	684.370
235.942	19.824	900.748	683.798
236.957	19.876	900.460	683.724
237.972	19.822	900.039	683.131
238.986	19.844	899.079	682.426
240.001	20.017	898.431	682.558
241.015	20.085	898.211	682.599
242.030	20.142	897.599	682.296
243.045	20.104	897.196	681.779
244.059	20.197	896.349	681.441
245.074	20.366	895.780	681.612
246.088	20.345	895.624	681.351
247.103	20.423	895.508	681.508
248.117	20.794	894.992	682.509
249.132	21.176	894.150	683.304
250.147	21.284	894.179	683.688
251.161	21.352	893.615	683.461
252.176	21.248	892.918	682.463
253.190	21.403	892.157	682.426
254.205	21.322	891.858	681.819
255.220	21.255	891.108	680.926
256.234	21.169	890.554	680.107
257.249	21.308	889.510	679.791
258.263	21.166	888.990	678.781
259.278	21.217	888.239	678.343
260.293	21.386	887.693	678.522
261.307	21.388	887.181	678.079
262.322	21.435	886.571	677.735
263.336	21.481	885.648	677.148
264.351	21.410	884.943	676.276
265.366	21.417	884.531	675.926
266.380	21.502	883.907	675.718
267.395	21.336	882.801	674.175
268.409	21.105	882.236	672.791
269.424	21.231	881.348	672.540
270.439	21.111	880.821	671.617
271.453	21.069	879.762	670.586
272.468	20.986	879.591	670.081
273.482	20.904	879.368	669.535
274.497	20.944	878.360	668.863
275.512	20.936	878.028	668.520
276.526	21.014	877.645	668.467
277.541	21.036	877.481	668.366
278.555	21.397	876.596	669.018
279.570	21.498	876.141	668.994
280.585	21.477	875.286	668.205
281.599	21.178	874.353	666.292
282.614	21.180	873.374	665.496
283.628	21.075	872.678	664.507
284.643	21.201	872.172	664.542
285.657	21.064	871.778	663.661
286.672	21.029	871.326	663.125
287.687	21.149	870.600	662.967
288.701	21.175	870.008	662.556
289.716	21.222	869.524	662.308
290.730	21.293	868.789	661.960
291.745	21.195	868.215	661.092
292.760	21.545	867.858	662.085
293.774	21.685	867.253	662.098
294.789	21.358	866.898	660.532
295.803	21.177	865.444	658.683
296.818	21.278	864.773	658.495
297.833	21.055	864.344	657.268
298.847	21.239	863.326	657.129
299.862	21.187	863.411	656.940
300.876	21.387	863.021	657.337
301.891	21.784	862.254	658.183
302.906	21.738	862.190	657.907
303.920	21.917	861.604	658.073
304.935	21.965	861.166	657.860
305.949	21.716	860.527	656.378
306.964	21.639	859.444	655.205
307.979	21.730	858.852	655.036
308.993	21.750	858.641	654.895
310.008	21.630	858.231	654.076
311.022	21.611	857.608	653.472
312.037	21.540	856.502	652.307
313.052	21.365	855.845	651.096
314.066	21.164	855.289	649.867
315.081	21.006	854.918	648.940
316.095	21.210	853.867	648.843
317.110	21.133	853.896	648.521
318.125	21.094	853.264	647.841
319.139	21.057	852.924	647.387
320.154	21.231	851.789	647.111
321.168	21.327	851.651	647.307
322.183	21.273	851.049	646.593
323.197	21.380	850.513	646.524
324.212	21.354	850.249	646.171
325.227	21.267	849.302	645.069
326.241	21.335	848.719	644.823
327.256	21.173	848.156	643.740
328.270	21.224	847.424	643.315
329.285	21.272	846.793	642.955
330.300	21.189	846.263	642.192
331.314	21.342	845.936	642.448
332.329	21.456	845.966	642.834
333.343	21.674	845.484	643.212
334.358	21.666	844.629	642.474
335.373	21.473	845.059	642.037
336.387	21.539	844.644	641.905
337.402	21.865	844.151	642.671
338.416	21.907	843.840	642.529
339.431	22.064	843.543	642.821
340.446	22.095	843.196	642.615
341.460	22.182	843.109	642.807
342.475	22.387	842.481	643.021
343.489	22.398	842.244	642.824
344.504	22.588	841.592	642.963
345.519	22.531	840.882	642.157
346.533	22.399	840.418	641.264
347.548	22.145	839.493	639.576
348.562	21.982	838.511	638.181
349.577	21.815	837.966	637.101
350.592	21.694	837.604	636.330
351.606	21.590	836.609	635.142
352.621	21.701	836.101	635.102
353.635	21.796	835.816	635.175
354.650	21.791	834.939	634.431
355.665	21.935	834.329	634.435
356.679	22.026	833.443	634.033
357.694	22.114	832.993	633.952
358.708	22.017	832.167	632.915
359.723	21.974	831.854	632.469
360.738	22.001	831.476	632.224
361.752	22.019	830.986	631.858
362.767	22.392	830.617	632.864
363.781	22.568	829.703	632.743
364.796	22.665	829.781	633.094
365.810	22.637	829.746	632.912
366.825	22.751	829.347	632.958
367.840	22.660	828.682	632.071
368.854	22.300	828.106	630.286
369.869	22.330	827.242	629.680
370.883	22.327	827.034	629.454
371.898	22.493	827.030	629.990
372.913	22.551	826.366	629.636
373.927	22.358	825.929	628.555
374.942	22.535	825.220	628.593
375.956	22.620	825.100	628.749
376.971	22.772	824.491	628.770
377.986	22.887	824.520	629.147
379.000	22.869	823.825	628.499
380.015	22.847	822.934	627.685
381.029	22.789	822.214	626.873
382.044	22.847	821.985	626.848
383.059	22.963	821.185	626.596
384.073	22.719	820.543	625.184
385.088	22.616	819.664	624.097
386.102	22.375	819.248	622.872
387.117	22.531	818.101	622.495
388.132	22.312	818.036	621.616
389.146	22.337	817.539	621.271
390.161	22.741	816.964	622.206
391.175	22.680	816.905	621.889
392.190	22.545	816.110	620.754
393.205	22.432	815.573	619.895
394.219	22.358	815.299	619.368
395.234	22.279	814.472	618.408
396.248	22.274	813.779	617.812
397.263	22.084	813.609	616.960
398.278	22.150	812.839	616.554
399.292	22.135	813.005	616.572
400.307	22.228	811.997	616.076
401.321	22.163	811.635	615.522
402.336	22.239	811.636	615.734
403.350	22.407	811.183	615.924
404.365	22.706	810.581	616.458
405.380	22.970	810.174	617.014
406.394	23.046	810.058	617.136
407.409	22.990	809.632	616.561
408.423	23.040	809.495	616.577
409.438	23.245	808.990	616.851
410.453	23.094	808.674	616.033
411.467	23.269	808.214	616.237
412.482	23.327	808.090	616.288
413.496	23.449	807.631	616.310
414.511	23.235	807.310	615.266
415.526	23.115	806.930	614.503
416.540	23.140	805.838	613.704
417.555	23.045	805.618	613.155
418.569	23.174	804.907	613.006
419.584	23.123	804.586	612.531
420.599	23.217	804.470	612.711
421.613	165.222	1372.684	1798.173
422.628	143.705	1455.468	1798.249
