DTS Sentinel unit serial number:	SN413079Multiplexer serial number:	ORYXHardware model number:	OX4-SRSoftware version number:	ORYX F/W v4.00 Oryx Data Collector v3.7.2.0data status	okinstallation	princeton_trtdifferential loss correction	single-endedforward channel	channel 1reverse channel	N/Adate	2019/09/17time	19:58:35forward acquisition time	60.00reverse acquisition time	0.00gamma	496.2192k internal	0.2323k external	0.2323temperature offset calibration	0.9978default loss term (dB/km)	0.3790temperature slope calibration	1.0000multiplexer offset coefficient	1.0000multiplexer slope coefficient	1.0000fibre end	0.00T internal ref (°C)	33.47T ext. ref 1 (°C)	0.23T ext. ref 2 (°C)	23.01length (m)	temperature (°C)	Stokes	anti-Stokes-747.200	60.952	-0.199	-0.199
-746.185	-200.000	-0.038	0.367
-745.171	-111.731	-0.161	0.033
-744.156	82.402	0.111	-0.122
-743.142	23.745	0.281	0.234
-742.127	-3.051	-0.313	0.221
-741.112	0.118	0.132	0.095
-740.098	-0.293	-0.236	0.169
-739.083	63.764	-0.216	0.219
-738.069	-37.735	-0.241	-0.130
-737.054	-101.899	-0.413	0.101
-736.039	492.917	-0.039	0.091
-735.025	-63.110	0.345	0.144
-734.010	26.841	-0.352	-0.297
-732.996	-200.000	-0.023	-0.189
-731.981	-200.000	0.088	0.422
-730.966	-51.033	0.103	0.049
-729.952	-200.000	-0.041	0.316
-728.937	-48.221	-0.078	0.038
-727.923	-121.093	-0.189	-0.032
-726.908	778.622	0.197	0.544
-725.894	800.000	0.074	0.286
-724.879	-166.220	0.263	0.011
-723.864	3.456	-0.116	0.085
-722.850	-164.945	0.446	-0.020
-721.835	120.263	-0.162	0.203
-720.821	5.086	0.103	-0.076
-719.806	93.254	-0.197	0.225
-718.791	308.334	-0.142	0.267
-717.777	-52.831	-0.262	-0.122
-716.762	705.267	0.077	-0.204
-715.748	-74.672	-0.049	0.018
-714.733	800.000	-0.109	-0.315
-713.718	-30.646	-0.215	0.123
-712.704	95.659	0.130	-0.149
-711.689	-53.133	-0.176	-0.082
-710.675	-200.000	0.045	-0.221
-709.660	545.388	-0.110	-0.264
-708.645	-45.528	-0.093	0.047
-707.631	-2.164	-0.244	0.173
-706.616	-83.546	0.139	0.045
-705.602	-12.510	-0.134	-0.088
-704.587	-8.959	-0.093	0.063
-703.572	-200.000	0.049	0.262
-702.558	-200.000	0.021	0.139
-701.543	-200.000	0.004	0.213
-700.529	214.742	0.066	-0.105
-699.514	102.386	-0.152	-0.179
-698.499	-200.000	-0.002	0.099
-697.485	40.440	0.153	-0.139
-696.470	800.000	-0.049	0.163
-695.456	81.737	-0.048	-0.052
-694.441	800.000	-0.090	0.270
-693.426	-95.433	-0.137	0.037
-692.412	122.478	-0.120	0.152
-691.397	144.902	-0.098	-0.132
-690.383	65.811	-0.255	0.260
-689.368	794.525	-0.082	0.228
-688.354	437.756	-0.085	-0.188
-687.339	165.520	-0.305	-0.434
-686.324	800.000	0.021	-0.072
-685.310	37.403	-0.079	-0.070
-684.295	-128.391	0.107	-0.015
-683.281	573.605	0.125	0.307
-682.266	-39.376	-0.171	-0.090
-681.251	-200.000	-0.002	-0.058
-680.237	51.807	0.208	-0.200
-679.222	-98.677	-0.122	0.031
-678.208	-134.527	-0.120	-0.015
-677.193	-38.996	-0.117	0.062
-676.178	-200.000	0.020	0.187
-675.164	-89.995	0.178	0.052
-674.149	113.270	-0.099	0.121
-673.135	-46.825	-0.074	0.036
-672.120	800.000	-0.032	0.126
-671.105	133.568	-0.123	0.161
-670.091	73.407	-0.110	-0.116
-669.076	531.919	0.034	0.080
-668.062	-75.367	-0.050	-0.018
-667.047	800.000	-0.038	0.156
-666.032	-150.570	-0.167	-0.013
-665.018	-128.262	0.118	-0.017
-664.003	42.042	-0.141	-0.129
-662.989	-200.000	0.009	0.116
-661.974	277.091	-0.125	0.224
-660.959	30.871	-0.175	0.151
-659.945	-107.009	0.341	0.076
-658.930	-16.273	-0.216	-0.138
-657.916	800.000	0.041	0.130
-656.901	347.307	-0.074	0.146
-655.886	-146.264	-0.280	-0.025
-654.872	-152.701	-0.266	0.019
-653.857	-200.000	0.013	-0.143
-652.843	-148.949	-0.447	0.036
-651.828	-117.435	-0.135	0.025
-650.814	-138.057	-0.279	0.031
-649.799	-63.150	-0.186	0.077
-648.784	49.181	0.061	-0.058
-647.770	355.499	0.107	0.214
-646.755	-200.000	0.019	0.168
-645.741	66.692	0.195	0.200
-644.726	-200.000	0.040	-0.554
-643.711	-64.633	-0.093	0.038
-642.697	-200.000	0.045	0.356
-641.682	670.283	-0.151	0.393
-640.668	800.000	-0.050	0.163
-639.653	800.000	0.093	-0.341
-638.638	-66.472	-0.219	0.087
-637.624	800.000	0.061	-0.259
-636.609	52.205	0.152	-0.146
-635.595	-200.000	0.024	0.227
-634.580	-12.707	0.098	-0.064
-633.565	-175.064	-0.586	0.016
-632.551	196.091	-0.107	-0.164
-631.536	225.192	0.225	-0.366
-630.522	-126.864	-0.365	-0.054
-629.507	-69.213	-0.287	-0.111
-628.492	-200.000	-0.018	0.085
-627.478	-144.923	-0.180	-0.017
-626.463	-200.000	-0.048	-0.227
-625.449	676.247	0.062	0.161
-624.434	-39.763	0.246	-0.129
-623.419	-84.292	-0.207	-0.066
-622.405	81.256	0.143	0.155
-621.390	-200.000	-0.002	-0.081
-620.376	55.499	0.243	-0.237
-619.361	-52.238	0.110	-0.051
-618.346	-135.420	0.263	-0.032
-617.332	145.418	-0.175	-0.235
-616.317	-96.687	-0.309	-0.082
-615.303	-55.709	0.023	-0.010
-614.288	800.000	0.035	-0.109
-613.273	115.821	0.188	0.231
-612.259	76.560	-0.107	0.115
-611.244	-1.212	0.081	-0.057
-610.230	-76.090	-0.382	0.135
-609.215	-94.465	0.195	0.053
-608.201	800.000	-0.044	-0.123
-607.186	52.913	-0.164	0.157
-606.171	89.092	-0.075	0.084
-605.157	-154.085	0.090	0.006
-604.142	94.574	-0.072	0.082
-603.128	433.352	-0.200	0.435
-602.113	90.272	0.012	-0.013
-601.098	281.821	-0.111	-0.199
-600.084	1.640	0.222	-0.160
-599.069	49.877	0.067	-0.063
-598.055	-200.000	0.043	-0.201
-597.040	-33.190	0.172	-0.096
-596.025	800.000	-0.025	0.097
-595.011	800.000	0.059	-0.195
-593.996	152.544	0.075	-0.102
-592.982	-81.597	-0.201	0.066
-591.967	775.659	0.076	0.207
-590.952	277.189	-0.117	0.210
-589.938	-200.000	0.039	-0.213
-588.923	21.083	-0.266	-0.216
-587.909	800.000	0.049	-0.164
-586.894	800.000	-0.020	-0.072
-585.879	-51.785	0.293	-0.137
-584.865	-112.346	0.068	-0.014
-583.850	108.822	0.222	-0.267
-582.836	-37.633	-0.054	0.029
-581.821	-101.879	0.083	-0.020
-580.806	-28.703	0.208	-0.120
-579.792	800.000	0.054	-0.182
-578.777	-200.000	-0.073	-0.383
-577.763	-200.000	0.011	0.157
-576.748	-95.169	-0.102	0.028
-575.733	-142.252	0.310	0.031
-574.719	-25.348	-0.173	-0.103
-573.704	-11.156	-0.270	-0.179
-572.690	800.000	-0.021	-0.088
-571.675	-74.554	0.087	-0.031
-570.661	-200.000	0.025	-0.199
-569.646	-90.287	-0.530	-0.154
-568.631	-35.710	0.038	-0.021
-567.617	-122.269	0.264	-0.043
-566.602	800.000	-0.025	0.102
-565.588	218.271	-0.120	-0.192
-564.573	44.116	-0.115	0.105
-563.558	678.907	-0.090	0.236
-562.544	-200.000	-0.002	0.159
-561.529	611.677	0.095	-0.238
-560.515	-78.466	-0.210	-0.072
-559.500	-40.351	0.129	0.067
-558.485	-200.000	-0.045	-0.283
-557.471	-200.000	0.026	0.117
-556.456	-108.176	0.185	0.040
-555.442	800.000	0.028	-0.100
-554.427	-200.000	0.014	-0.250
-553.412	722.083	0.038	-0.103
-552.398	-99.826	-0.158	0.040
-551.383	213.264	-0.090	0.143
-550.369	-21.764	-0.153	0.093
-549.354	5.138	-0.102	-0.075
-548.339	131.226	-0.131	-0.168
-547.325	-200.000	-0.006	0.060
-546.310	800.000	-0.106	-0.376
-545.296	-150.722	-0.271	0.021
-544.281	232.071	0.084	-0.138
-543.266	88.056	0.302	-0.336
-542.252	242.425	0.126	0.211
-541.237	7.090	-0.166	-0.124
-540.223	-69.929	-0.241	-0.092
-539.208	800.000	-0.063	0.220
-538.193	-172.527	0.194	0.006
-537.179	800.000	0.087	0.349
-536.164	218.434	-0.070	0.112
-535.150	731.520	0.073	0.196
-534.135	-200.000	-0.061	-0.282
-533.121	-129.253	-0.397	-0.055
-532.106	96.838	-0.160	-0.183
-531.091	148.974	0.182	0.246
-530.077	-200.000	-0.006	-0.066
-529.062	-9.241	-0.143	0.096
-528.048	-200.000	-0.036	-0.266
-527.033	-4.089	-0.044	0.030
-526.018	800.000	0.079	0.256
-525.004	278.219	-0.095	-0.169
-523.989	800.000	-0.017	0.070
-522.975	800.000	0.047	0.164
-521.960	742.065	0.110	0.296
-520.945	-105.848	-0.152	0.034
-519.931	326.038	0.033	0.063
-518.916	-200.000	-0.017	-0.227
-517.902	6.067	-0.255	-0.189
-516.887	-61.396	-0.208	0.088
-515.872	184.057	-0.163	0.242
-514.858	470.822	-0.086	0.195
-513.843	-52.050	-0.160	-0.074
-512.829	-200.000	0.042	-0.353
-511.814	-88.275	-0.223	-0.067
-510.799	-116.219	-0.253	-0.047
-509.785	-62.056	0.095	0.040
-508.770	-170.435	-0.214	0.007
-507.756	-200.000	-0.008	0.122
-506.741	200.087	-0.122	-0.187
-505.726	-153.799	0.079	-0.005
-504.712	300.638	0.115	0.213
-503.697	98.533	-0.181	-0.208
-502.683	800.000	-0.040	-0.113
-501.668	2.348	0.111	-0.080
-500.653	-200.000	0.017	0.150
-499.639	102.796	-0.094	-0.110
-498.624	64.986	0.124	0.125
-497.610	-200.000	-0.018	0.176
-496.595	78.174	-0.263	-0.281
-495.581	33.674	0.060	0.052
-494.566	36.923	-0.024	0.021
-493.551	32.263	-0.162	-0.139
-492.537	-157.163	0.568	0.035
-491.522	16.876	-0.226	0.179
-490.508	-53.959	0.373	-0.170
-489.493	-134.636	-0.250	0.031
-488.478	-12.926	0.114	0.074
-487.464	62.391	0.184	-0.184
-486.449	800.000	-0.041	0.146
-485.435	-27.199	-0.182	-0.106
-484.420	-32.545	-0.023	0.013
-483.405	8.436	-0.066	-0.050
-482.391	165.408	0.076	0.108
-481.376	242.892	-0.107	0.179
-480.362	-67.866	-0.227	-0.089
-479.347	-149.213	0.062	-0.005
-478.332	-70.810	-0.155	0.059
-477.318	-21.202	0.286	0.175
-476.303	-107.109	-0.309	0.068
-475.289	-17.393	-0.117	0.074
-474.274	-15.667	0.197	0.125
-473.259	-200.000	0.000	0.394
-472.245	235.994	-0.034	-0.056
-471.230	-200.000	-0.134	0.000
-470.216	107.266	0.069	-0.082
-469.201	81.135	-0.265	-0.286
-468.186	306.495	0.079	0.146
-467.172	-174.506	0.283	-0.008
-466.157	-45.270	-0.206	-0.102
-465.143	-139.859	0.408	-0.043
-464.128	320.274	-0.149	-0.283
-463.113	-119.063	0.080	0.014
-462.099	23.308	-0.378	-0.310
-461.084	-15.684	-0.219	0.140
-460.070	-200.000	-0.014	-0.080
-459.055	-57.352	-0.105	0.046
-458.040	194.616	-0.044	-0.066
-457.026	511.255	0.183	0.426
-456.011	-85.848	0.082	0.025
-454.997	386.219	0.083	0.172
-453.982	-200.000	-0.017	-0.179
-452.968	-11.205	-0.205	0.135
-451.953	24.191	-0.141	0.116
-450.938	800.000	0.074	0.229
-449.924	422.923	-0.086	-0.183
-448.909	-78.761	0.163	-0.056
-447.895	-45.955	0.095	-0.047
-446.880	800.000	0.039	0.143
-445.865	-192.314	0.056	-0.001
-444.851	-105.508	0.245	-0.056
-443.836	332.271	0.129	0.248
-442.822	-87.575	0.039	0.012
-441.807	1.429	-0.207	-0.149
-440.792	-31.305	-0.154	0.086
-439.778	-200.000	-0.013	0.416
-438.763	-200.000	0.019	-0.219
-437.749	19.011	-0.270	-0.216
-436.734	-200.000	0.041	0.197
-435.719	-12.265	0.072	0.047
-434.705	2.832	-0.159	0.115
-433.690	-200.000	-0.269	0.000
-432.676	-15.945	0.263	-0.167
-431.661	-200.000	0.037	0.276
-430.646	800.000	0.010	0.029
-429.632	18.128	0.174	0.138
-428.617	-54.051	-0.160	0.073
-427.603	800.000	-0.036	0.104
-426.588	-115.569	0.538	-0.101
-425.573	-158.411	0.358	-0.021
-424.559	-47.562	0.083	-0.040
-423.544	33.844	0.254	-0.221
-422.530	800.000	-0.104	-0.389
-421.515	272.748	-0.151	0.266
-420.500	-116.355	-0.167	0.031
-419.486	568.462	0.171	0.415
-418.471	265.249	0.103	0.179
-417.457	3.066	-0.195	0.141
-416.442	219.272	-0.197	0.314
-415.428	-200.000	0.027	0.275
-414.413	-51.103	-0.052	0.024
-413.398	13.042	0.237	-0.183
-412.384	-184.262	-0.122	-0.002
-411.369	-31.728	0.139	0.078
-410.355	274.010	-0.210	0.371
-409.340	436.858	0.061	-0.131
-408.325	-88.406	0.271	0.081
-407.311	202.357	0.185	0.285
-406.296	410.897	-0.155	-0.328
-405.282	447.190	-0.056	0.123
-404.267	3.652	-0.244	-0.178
-403.252	-60.894	-0.031	-0.013
-402.238	-200.000	0.028	0.201
-401.223	-115.636	-0.083	-0.016
-400.209	-200.000	-0.011	0.164
-399.194	-200.000	-0.015	0.184
-398.179	18.915	0.311	-0.248
-397.165	-15.087	0.100	0.064
-396.150	135.380	0.117	-0.152
-395.136	-75.344	0.219	-0.078
-394.121	-200.000	-0.036	0.290
-393.106	214.349	0.050	-0.078
-392.092	-35.949	0.273	0.147
-391.077	-5.944	-0.149	-0.101
-390.063	280.015	0.090	-0.160
-389.048	3.952	-0.345	0.252
-388.033	-200.000	-0.050	0.255
-387.019	-172.429	-0.280	-0.009
-386.004	-98.795	0.235	-0.059
-384.990	119.781	0.174	-0.214
-383.975	137.760	-0.210	-0.274
-382.960	800.000	0.081	0.276
-381.946	-129.059	0.086	0.012
-380.931	800.000	0.018	0.072
-379.917	9.103	-0.024	0.018
-378.902	17.904	-0.255	-0.202
-377.888	-93.322	-0.062	-0.017
-376.873	-159.237	0.137	-0.008
-375.858	500.033	-0.077	-0.177
-374.844	800.000	-0.055	-0.158
-373.829	800.000	-0.026	-0.071
-372.815	175.310	-0.045	-0.066
-371.800	35.779	-0.219	-0.191
-370.785	-38.349	-0.129	-0.068
-369.771	-200.000	0.025	0.219
-368.756	244.078	0.121	0.203
-367.742	-24.647	0.155	-0.092
-366.727	-200.000	0.054	0.274
-365.712	-43.404	-0.316	0.159
-364.698	-166.366	0.168	0.007
-363.683	-138.160	-0.256	-0.028
-362.669	0.816	-0.324	0.231
-361.654	-57.085	0.161	0.071
-360.639	-200.000	-0.002	-0.236
-359.625	-140.676	-0.119	-0.012
-358.610	457.670	0.035	-0.078
-357.596	37.426	0.263	0.232
-356.581	-157.922	-0.448	0.026
-355.566	-200.000	-0.023	-0.101
-354.552	-81.655	0.278	-0.091
-353.537	-131.756	0.220	-0.029
-352.523	81.124	0.174	-0.187
-351.508	-46.278	0.356	-0.174
-350.493	552.831	-0.115	-0.274
-349.479	41.690	0.286	-0.258
-348.464	-39.106	0.233	0.122
-347.450	-142.507	0.674	-0.066
-346.435	104.124	0.158	-0.185
-345.420	-109.625	0.158	0.033
-344.406	230.370	-0.231	-0.375
-343.391	-200.000	-0.003	0.228
-342.377	-51.586	0.117	-0.054
-341.362	-110.124	-0.478	-0.099
-340.348	737.216	0.091	-0.241
-339.333	25.321	0.135	0.111
-338.318	-93.019	-0.052	-0.014
-337.304	92.880	-0.048	0.054
-336.289	220.233	-0.170	0.271
-335.275	-176.892	0.298	-0.007
-334.260	-200.000	-0.012	-0.107
-333.245	-1.748	0.152	-0.107
-332.231	800.000	0.050	-0.203
-331.216	800.000	0.099	-0.297
-330.202	-69.257	0.382	-0.146
-329.187	-167.162	0.046	0.002
-328.172	253.416	0.204	0.347
-327.158	362.894	0.112	0.223
-326.143	-15.959	0.018	0.011
-325.129	-123.112	-0.189	-0.030
-324.114	-200.000	0.005	0.242
-323.099	-200.000	0.009	0.186
-322.085	800.000	-0.124	0.528
-321.070	-120.663	0.113	0.019
-320.056	800.000	0.039	0.163
-319.041	-109.488	0.246	0.052
-318.026	658.769	0.072	0.184
-317.012	176.014	-0.114	0.165
-315.997	-135.577	-0.236	0.028
-314.983	-18.805	-0.067	-0.042
-313.968	208.309	-0.287	-0.445
-312.953	-150.157	0.051	-0.004
-311.939	800.000	-0.053	-0.183
-310.924	-200.000	0.021	-0.396
-309.910	356.495	0.077	0.153
-308.895	-183.805	0.454	-0.008
-307.880	64.175	0.051	-0.051
-306.866	-200.000	0.026	-0.147
-305.851	437.481	0.129	-0.280
-304.837	-125.441	0.272	0.041
-303.822	73.949	-0.135	-0.140
-302.807	30.617	0.273	0.231
-301.793	-200.000	-0.023	0.000
-300.778	5.027	0.221	-0.161
-299.764	-128.022	0.311	0.044
-298.749	108.211	-0.084	0.099
-297.735	-68.886	0.052	0.020
-296.720	304.314	-0.053	-0.097
-295.705	-200.000	-0.001	-0.340
-294.691	7.973	-0.211	0.157
-293.676	73.222	-0.057	-0.059
-292.662	800.000	-0.057	-0.165
-291.647	-200.000	-0.018	0.098
-290.632	-9.316	0.302	-0.200
-289.618	-130.032	-0.224	-0.030
-288.603	-21.224	-0.120	-0.073
-287.589	-142.260	0.228	-0.022
-286.574	12.597	0.211	-0.162
-285.559	-95.984	-0.256	-0.068
-284.545	-117.483	0.276	-0.050
-283.530	-106.642	-0.160	0.035
-282.516	-69.716	-0.123	0.047
-281.501	800.000	-0.084	0.355
-280.486	145.736	0.029	0.038
-279.472	-9.148	-0.075	0.050
-278.457	369.702	0.120	0.240
-277.443	-132.482	0.298	0.038
-276.428	242.733	-0.187	-0.310
-275.413	108.362	-0.068	-0.080
-274.399	412.698	0.192	0.404
-273.384	-123.254	-0.143	0.023
-272.370	-0.613	-0.286	0.201
-271.355	0.324	-0.269	0.190
-270.340	74.640	0.114	0.119
-269.326	164.276	-0.109	0.153
-268.311	-118.907	0.527	0.092
-267.297	-45.630	0.146	-0.072
-266.282	-200.000	-0.014	-0.263
-265.267	-61.074	0.096	0.040
-264.253	-1.490	-0.290	0.202
-263.238	-97.006	0.212	0.055
-262.224	-98.653	-0.394	-0.100
-261.209	601.934	-0.210	-0.517
-260.195	-163.772	0.142	-0.007
-259.180	-96.060	0.205	-0.054
-258.165	-56.172	0.126	-0.056
-257.151	-200.000	0.017	-0.081
-256.136	-200.000	0.054	-0.290
-255.122	-200.000	-0.005	0.106
-254.107	-200.000	0.012	0.100
-253.092	-77.240	-0.110	-0.038
-252.078	800.000	0.077	0.211
-251.063	-200.000	-0.015	0.190
-250.049	170.797	0.161	0.228
-249.034	415.146	-0.061	-0.128
-248.019	60.079	0.205	-0.200
-247.005	-93.995	0.266	0.072
-245.990	58.213	-0.198	-0.192
-244.976	352.490	0.094	0.185
-243.961	-200.000	0.013	-0.195
-242.946	-58.338	0.191	0.082
-241.932	-82.084	-0.260	0.084
-240.917	-9.337	0.019	-0.012
-239.903	-35.209	0.246	-0.133
-238.888	-100.156	0.252	-0.062
-237.873	-94.556	0.124	0.033
-236.859	-200.000	-0.021	-0.214
-235.844	15.880	0.182	-0.142
-234.830	100.909	0.193	0.222
-233.815	-54.722	-0.211	0.094
-232.800	-60.028	-0.158	-0.067
-231.786	-109.769	0.203	-0.042
-230.771	-101.880	0.226	0.054
-229.757	-136.971	0.130	-0.015
-228.742	-55.398	0.058	-0.026
-227.727	-200.000	-0.298	0.001
-226.713	78.125	-0.094	-0.099
-225.698	-200.000	0.015	0.238
-224.684	-51.313	-0.322	0.149
-223.669	-114.327	-0.168	-0.032
-222.655	-200.000	0.005	0.290
-221.640	200.627	-0.085	0.130
-220.625	-77.321	-0.084	0.029
-219.611	-200.000	-0.004	0.092
-218.596	-200.000	-0.021	0.158
-217.582	-107.821	0.299	-0.064
-216.567	-77.175	-0.033	-0.012
-215.552	-55.192	-0.252	0.112
-214.538	-200.000	0.074	-0.402
-213.523	800.000	-0.081	0.339
-212.509	800.000	-0.020	-0.081
-211.494	-99.988	0.041	0.010
-210.479	-157.564	-0.244	0.014
-209.465	27.683	-0.022	-0.018
-208.450	-21.806	-0.230	0.138
-207.436	800.000	-0.093	0.391
-206.421	579.118	0.025	-0.061
-205.406	-200.000	-0.011	-0.203
-204.392	-200.000	0.019	-0.205
-203.377	45.177	0.116	0.105
-202.363	79.658	0.171	-0.181
-201.348	-200.000	-0.098	-0.432
-200.333	295.043	-0.072	-0.130
-199.319	-200.000	0.013	-0.116
-198.304	-134.191	0.144	0.018
-197.290	-59.767	-0.200	0.085
-196.275	46.504	0.190	-0.175
-195.260	800.000	0.056	0.179
-194.246	91.105	-0.233	0.259
-193.231	-173.379	-0.453	-0.014
-192.217	-24.272	0.126	0.074
-191.202	145.740	-0.089	0.117
-190.187	312.971	-0.146	0.272
-189.173	-200.000	-0.005	0.040
-188.158	-200.000	0.001	-0.010
-187.144	-71.223	0.145	-0.054
-186.129	-143.776	0.429	0.040
-185.114	-58.185	-0.369	0.159
-184.100	785.187	0.100	0.271
-183.085	-200.000	-0.036	0.250
-182.071	-200.000	-0.010	0.197
-181.056	426.635	0.108	0.230
-180.042	197.659	0.138	0.208
-179.027	-138.595	0.202	0.022
-178.012	-32.206	0.238	-0.131
-176.998	500.936	-0.055	0.125
-175.983	241.872	-0.057	0.093
-174.969	-53.851	0.129	0.058
-173.954	-200.000	0.016	-0.104
-172.939	-200.000	0.001	-0.285
-171.925	-68.289	-0.475	0.183
-170.910	769.262	-0.017	-0.045
-169.896	-17.172	-0.082	-0.051
-168.881	-99.794	0.269	-0.066
-167.866	40.816	0.227	-0.202
-166.852	289.853	-0.087	-0.155
-165.837	-118.859	0.298	0.052
-164.823	348.684	-0.132	0.258
-163.808	342.594	-0.015	-0.028
-162.793	-146.763	-0.584	-0.050
-161.779	332.870	-0.036	-0.069
-160.764	3.792	-0.177	-0.127
-159.750	800.000	-0.078	0.285
-158.735	537.599	0.089	-0.208
-157.720	-129.952	0.069	-0.009
-156.706	-200.000	0.047	-0.409
-155.691	-200.000	0.017	0.572
-154.677	457.330	0.037	0.082
-153.662	-127.104	0.190	0.028
-152.647	-98.727	0.203	-0.051
-151.633	607.865	-0.110	-0.271
-150.618	-140.195	0.315	0.033
-149.604	-116.508	-0.640	0.116
-148.589	-200.000	0.014	-0.136
-147.574	-159.058	-0.126	0.007
-146.560	-75.600	0.428	0.150
-145.545	-157.531	-0.388	-0.023
-144.531	91.628	-0.245	0.272
-143.516	800.000	-0.163	0.547
-142.502	746.580	0.057	-0.150
-141.487	800.000	-0.071	0.199
-140.472	129.173	0.237	0.299
-139.458	-152.856	0.256	0.018
-138.443	0.418	0.137	0.096
-137.429	-63.940	-0.080	-0.032
-136.414	-200.000	0.020	-0.111
-135.399	52.455	-0.039	-0.037
-134.385	-93.231	0.072	0.020
-133.370	644.144	-0.111	0.278
-132.356	-200.000	-0.008	0.131
-131.341	-200.000	-0.043	0.351
-130.326	-33.876	-0.163	0.088
-129.312	87.593	0.249	0.271
-128.297	557.771	-0.042	0.100
-127.283	16.986	-0.217	-0.170
-126.268	53.946	-0.116	0.110
-125.253	15.676	-0.285	-0.221
-124.239	95.523	-0.049	0.055
-123.224	-60.127	-0.134	-0.056
-122.210	735.803	-0.060	0.157
-121.195	-200.000	0.030	0.192
-120.180	-200.000	-0.033	0.239
-119.166	-51.722	-0.234	0.107
-118.151	53.085	0.178	-0.168
-117.137	800.000	0.101	0.319
-116.122	-200.000	-0.057	0.260
-115.107	-200.000	-0.094	-0.405
-114.093	648.706	0.119	0.300
-113.078	291.392	0.103	-0.185
-112.064	-200.000	0.025	0.215
-111.049	-60.600	0.171	-0.071
-110.034	800.000	-0.020	0.085
-109.020	-88.918	0.237	-0.069
-108.005	-187.325	-0.128	0.002
-106.991	514.863	0.073	0.167
-105.976	545.794	0.100	0.235
-104.962	700.649	-0.070	0.181
-103.947	694.824	0.067	-0.174
-102.932	10.523	0.310	0.232
-101.918	774.229	-0.064	0.171
-100.903	-200.000	-0.010	0.046
-99.889	-84.955	-0.102	0.031
-98.874	-87.542	0.386	-0.115
-97.859	-151.712	-0.259	0.019
-96.845	188.275	-0.092	0.135
-95.830	-86.679	-0.155	0.047
-94.816	5.036	0.161	-0.117
-93.801	192.941	0.105	0.157
-92.786	-200.000	0.012	0.185
-91.772	-200.000	-0.003	0.250
-90.757	446.689	-0.212	0.460
-89.743	-51.760	-0.207	0.095
-88.728	706.021	0.098	-0.255
-87.713	-97.053	0.119	0.031
-86.699	-26.998	0.261	0.150
-85.684	182.143	-0.093	0.135
-84.670	429.360	0.101	-0.214
-83.655	672.929	0.176	-0.448
-82.640	142.637	0.228	-0.298
-81.626	509.225	-0.117	-0.268
-80.611	-26.198	0.005	0.003
-79.597	-14.581	0.234	-0.148
-78.582	-23.683	0.480	0.283
-77.567	-72.086	0.208	0.076
-76.553	-50.861	0.219	-0.101
-75.538	-17.860	0.152	-0.094
-74.524	-200.000	0.019	0.159
-73.509	-42.667	-0.291	-0.146
-72.494	800.000	0.049	0.189
-71.480	185.528	-0.165	0.241
-70.465	800.000	0.117	0.373
-69.451	-26.812	0.141	0.081
-68.436	-104.874	0.372	-0.084
-67.422	149.769	0.071	-0.094
-66.407	-60.856	-0.463	0.193
-65.392	800.000	0.032	-0.117
-64.378	238.837	0.103	0.168
-63.363	-92.155	0.404	-0.112
-62.349	-200.000	-0.005	-0.048
-61.334	243.802	-0.567	-0.936
-60.319	13.615	0.270	0.206
-59.305	-200.000	0.002	-0.797
-58.290	512.840	0.482	1.105
-57.276	307.176	0.792	1.451
-56.261	-200.000	93.781	570.363
-55.246	547.182	1367.578	3217.206
-54.232	164.112	2532.825	3507.264
-53.217	113.148	2138.138	2548.940
-52.203	44.926	1608.547	1455.746
-51.188	37.101	1347.539	1172.435
-50.173	33.655	1307.413	1117.224
-49.159	56.046	1352.908	1290.492
-48.144	58.369	1369.527	1320.160
-47.130	37.136	1330.233	1157.401
-46.115	33.680	1312.483	1121.528
-45.100	33.482	1307.302	1115.892
-44.086	33.367	1304.814	1113.044
-43.071	33.288	1302.485	1110.552
-42.057	33.346	1300.536	1109.188
-41.042	33.356	1299.084	1107.963
-40.027	33.400	1297.606	1106.914
-39.013	33.343	1296.095	1105.250
-37.998	33.303	1293.558	1102.809
-36.984	33.382	1292.097	1101.977
-35.969	33.440	1290.202	1100.657
-34.954	33.475	1288.471	1099.340
-33.940	33.513	1287.175	1098.410
-32.925	33.518	1286.122	1097.494
-31.911	33.540	1284.897	1096.533
-30.896	33.572	1283.113	1095.155
-29.881	33.578	1282.069	1094.251
-28.867	33.670	1280.101	1093.059
-27.852	33.641	1278.727	1091.679
-26.838	33.527	1277.786	1090.177
-25.823	33.756	1276.100	1090.007
-24.809	33.511	1274.851	1087.491
-23.794	33.577	1273.782	1086.914
-22.779	33.584	1272.290	1085.640
-21.765	33.640	1270.749	1084.599
-20.750	33.506	1269.831	1083.009
-19.736	33.502	1268.251	1081.598
-18.721	33.491	1267.319	1080.696
-17.706	33.483	1266.193	1079.647
-16.692	33.419	1265.110	1078.316
-15.677	33.384	1263.700	1076.875
-14.663	33.328	1263.273	1076.149
-13.648	33.460	1261.994	1075.767
-12.633	33.423	1260.959	1074.632
-11.619	33.431	1259.822	1073.663
-10.604	33.444	1258.876	1072.889
-9.590	33.441	1257.918	1072.011
-8.575	33.353	1257.700	1071.289
-7.560	33.318	1256.501	1070.023
-6.546	33.315	1256.055	1069.585
-5.531	33.302	1254.728	1068.339
-4.517	33.495	1253.386	1068.240
-3.502	33.423	1253.075	1067.527
-2.487	33.390	1251.999	1066.385
-1.473	33.163	1247.705	1061.408
-0.458	30.765	1229.955	1032.984
0.556	23.616	1209.695	980.401
1.571	18.205	1213.189	953.083
2.586	16.637	1227.355	955.287
3.600	16.253	1215.939	944.168
4.615	12.125	1145.954	867.942
5.629	4.413	1072.125	773.646
6.644	0.579	1052.196	740.422
7.659	0.153	1049.839	736.611
8.673	0.157	1049.153	736.086
9.688	0.023	1047.897	734.483
10.702	0.404	1045.717	734.749
11.717	4.853	1051.203	760.294
12.731	12.500	1061.085	804.930
13.746	16.721	1066.153	829.421
14.761	17.037	1066.178	830.914
15.775	16.255	1064.094	825.393
16.790	15.086	1062.415	818.305
17.804	14.415	1060.701	813.642
18.819	14.167	1059.372	811.337
19.834	13.886	1058.509	809.237
20.848	13.534	1057.712	806.844
21.863	13.349	1056.960	805.298
22.877	13.184	1055.779	803.525
23.892	13.143	1055.155	802.779
24.907	13.228	1054.605	802.701
25.921	13.291	1053.644	802.205
26.936	13.383	1052.629	801.806
27.950	13.375	1051.772	801.042
28.965	13.330	1050.597	799.859
29.980	13.477	1049.565	799.715
30.994	13.470	1048.209	798.575
32.009	13.494	1047.163	797.823
33.023	13.513	1046.054	797.000
34.038	13.524	1045.040	796.212
35.053	13.375	1044.683	795.153
36.067	13.486	1043.861	794.991
37.082	13.431	1042.947	793.959
38.096	13.440	1042.249	793.398
39.111	13.352	1041.378	792.247
40.126	13.383	1040.248	791.465
41.140	13.222	1039.402	789.981
42.155	13.249	1037.960	788.946
43.169	13.111	1037.419	787.804
44.184	13.147	1036.144	786.940
45.199	13.266	1034.991	786.559
46.213	13.150	1034.502	785.566
47.228	13.379	1032.662	785.186
48.242	13.234	1032.392	784.224
49.257	13.369	1031.078	783.798
50.271	13.227	1030.440	782.568
51.286	13.336	1029.348	782.187
52.301	13.378	1028.403	781.596
53.315	13.287	1027.673	780.542
54.330	13.258	1026.359	779.340
55.344	13.307	1025.782	779.065
56.359	13.284	1024.885	778.205
57.374	13.332	1023.566	777.361
58.388	13.220	1023.156	776.454
59.403	13.282	1022.114	775.883
60.417	13.237	1021.371	775.044
61.432	13.180	1020.844	774.306
62.447	13.113	1019.913	773.217
63.461	13.178	1019.329	773.012
64.476	13.211	1018.403	772.396
65.490	13.165	1017.416	771.362
66.505	13.160	1017.387	771.252
67.520	13.145	1016.381	770.348
68.534	13.227	1015.662	770.119
69.549	13.181	1014.788	769.175
70.563	13.122	1014.192	768.380
71.578	13.189	1013.044	767.749
72.593	13.116	1012.897	767.234
73.607	13.073	1012.233	766.464
74.622	13.094	1010.941	765.517
75.636	13.161	1010.305	765.274
76.651	13.113	1010.086	764.817
77.666	13.200	1009.509	764.716
78.680	13.107	1008.724	763.623
79.695	13.178	1007.911	763.269
80.709	13.243	1007.331	763.063
81.724	13.282	1006.731	762.722
82.739	13.218	1006.146	761.916
83.753	13.246	1005.376	761.394
84.768	13.340	1004.139	760.824
85.782	13.482	1003.175	760.675
86.797	13.427	1002.507	759.853
87.812	13.407	1001.545	758.964
88.826	13.355	1000.565	757.913
89.841	13.352	999.777	757.235
90.855	13.349	998.694	756.334
91.870	13.420	997.843	755.950
92.884	13.481	997.121	755.612
93.899	13.439	996.127	754.601
94.914	13.634	995.421	754.890
95.928	13.567	994.276	753.648
96.943	13.589	993.435	753.046
97.957	13.414	993.114	751.941
98.972	13.397	992.487	751.321
99.987	13.507	991.155	750.746
101.001	13.377	990.355	749.484
102.016	13.286	989.541	748.388
103.030	13.520	988.879	748.883
104.045	13.396	987.916	747.526
105.060	13.436	986.884	746.860
106.074	13.473	985.978	746.273
107.089	13.202	985.202	744.401
108.103	13.309	984.315	744.145
109.118	13.280	983.514	743.342
110.133	13.264	982.331	742.310
111.147	13.273	981.467	741.635
112.162	13.312	981.269	741.593
113.176	13.406	980.078	741.049
114.191	13.356	979.055	739.986
115.206	13.336	978.721	739.578
116.220	13.426	977.790	739.210
117.235	13.356	976.943	738.194
118.249	13.327	976.485	737.652
119.264	13.299	975.230	736.516
120.279	13.364	974.600	736.261
121.293	13.357	973.385	735.251
122.308	13.439	972.610	734.963
123.322	13.461	971.451	734.119
124.337	13.582	970.378	733.780
125.352	13.390	969.912	732.510
126.366	13.259	968.881	731.091
127.381	13.395	967.680	730.719
128.395	13.332	966.822	729.729
129.410	13.438	965.760	729.331
130.424	13.441	965.123	728.797
131.439	13.461	964.061	728.020
132.454	13.489	963.500	727.652
133.468	13.321	963.216	726.635
134.483	13.463	961.701	726.054
135.497	13.416	960.890	725.171
136.512	13.361	959.893	724.111
137.527	13.456	959.118	723.878
138.541	13.536	958.387	723.613
139.556	13.533	957.731	723.042
140.570	13.548	956.925	722.433
141.585	13.567	956.086	721.819
142.600	13.494	955.503	720.999
143.614	13.715	954.521	721.155
144.629	13.703	953.841	720.523
145.643	13.587	952.915	719.257
146.658	13.587	951.506	718.129
147.673	13.539	950.802	717.326
148.687	13.542	950.333	716.924
149.702	13.547	949.159	715.997
150.716	13.586	948.591	715.671
151.731	13.560	948.060	715.097
152.746	13.563	947.264	714.445
153.760	13.515	946.729	713.771
154.775	13.626	946.020	713.654
155.789	13.590	945.532	713.066
156.804	13.638	944.597	712.503
157.819	13.731	943.966	712.365
158.833	13.719	943.461	711.868
159.848	13.809	942.433	711.414
160.862	13.742	941.256	710.180
161.877	13.633	940.665	709.201
162.892	13.639	939.520	708.303
163.906	13.564	938.822	707.392
164.921	13.521	938.271	706.732
165.935	13.647	937.120	706.342
166.950	13.698	936.121	705.742
167.964	13.672	935.375	705.006
168.979	13.682	934.525	704.346
169.994	13.714	933.816	703.883
171.008	13.912	932.797	703.895
172.023	13.748	932.362	702.808
173.037	13.878	931.431	702.596
174.052	13.871	930.686	701.941
175.067	13.761	930.770	701.477
176.081	13.721	929.901	700.591
177.096	13.771	929.448	700.399
178.110	13.793	928.920	700.032
179.125	13.760	928.325	699.381
180.140	13.765	927.865	698.994
181.154	13.950	927.351	699.325
182.169	13.922	926.740	698.685
183.183	14.033	925.820	698.393
184.198	13.995	925.262	697.754
185.213	13.839	924.818	696.703
186.227	13.892	923.824	696.115
187.242	13.934	923.391	695.900
188.256	14.063	922.644	695.815
189.271	13.984	921.829	694.812
190.286	14.023	921.148	694.397
191.300	13.870	920.416	693.146
192.315	13.885	919.836	692.711
193.329	13.962	919.153	692.456
194.344	13.930	919.207	692.300
195.359	13.944	918.337	691.643
196.373	14.053	917.371	691.307
197.388	14.150	917.129	691.470
198.402	14.141	916.594	690.968
199.417	14.210	915.877	690.653
200.432	14.305	915.526	690.718
201.446	14.251	915.088	690.105
202.461	14.219	914.977	689.827
203.475	14.160	913.823	688.651
204.490	14.323	912.929	688.590
205.504	14.221	912.435	687.736
206.519	14.119	911.817	686.788
207.534	14.144	910.971	686.194
208.548	14.279	910.218	686.121
209.563	14.363	909.425	685.809
210.577	14.313	908.905	685.149
211.592	14.204	908.551	684.376
212.607	14.413	907.172	684.135
213.621	14.391	906.904	683.781
214.636	14.446	905.857	683.157
215.650	14.351	905.160	682.179
216.665	14.461	904.550	682.110
217.680	14.547	903.827	681.855
218.694	14.431	903.524	681.092
219.709	14.607	902.585	681.046
220.723	14.533	902.018	680.253
221.738	14.518	901.478	679.728
222.753	14.404	900.445	678.421
223.767	14.530	900.517	678.929
224.782	14.612	899.688	678.577
225.796	14.696	898.660	678.085
226.811	14.627	898.632	677.723
227.826	14.496	898.167	676.778
228.840	14.600	896.914	676.196
229.855	14.561	896.091	675.358
230.869	14.556	895.859	675.103
231.884	14.716	894.194	674.437
232.899	14.639	894.041	673.950
233.913	14.619	893.407	673.332
234.928	14.550	892.804	672.540
235.942	14.581	892.407	672.305
236.957	14.637	891.521	671.805
237.972	14.652	891.036	671.441
238.986	14.633	890.226	670.696
240.001	14.650	889.913	670.468
241.015	14.765	889.159	670.301
242.030	14.671	888.704	669.521
243.045	14.734	888.039	669.214
244.059	14.763	887.419	668.804
245.074	14.681	886.937	668.053
246.088	14.660	886.105	667.282
247.103	14.781	885.722	667.422
248.117	14.735	885.241	666.814
249.132	14.978	884.495	667.163
250.147	14.982	883.881	666.655
251.161	14.981	883.096	665.999
252.176	14.955	882.593	665.458
253.190	15.023	882.029	665.248
254.205	15.079	881.078	664.693
255.220	15.130	880.547	664.436
256.234	15.062	879.954	663.659
257.249	15.066	879.538	663.305
258.263	15.154	878.834	663.060
259.278	14.963	878.112	661.704
260.293	15.173	877.562	662.061
261.307	15.118	877.120	661.449
262.322	15.251	875.953	661.035
263.336	15.290	875.241	660.593
264.351	15.355	874.642	660.340
265.366	15.405	873.770	659.818
266.380	15.364	873.312	659.254
267.395	15.294	872.885	658.599
268.409	15.302	871.891	657.820
269.424	15.153	871.494	656.879
270.439	15.376	870.262	656.767
271.453	15.201	870.261	656.022
272.468	15.167	869.501	655.258
273.482	15.421	868.783	655.652
274.497	15.343	868.448	655.036
275.512	15.341	867.657	654.375
276.526	15.380	867.496	654.345
277.541	15.271	867.183	653.629
278.555	15.491	866.180	653.668
279.570	15.429	865.544	652.893
280.585	15.497	864.578	652.368
281.599	15.455	864.013	651.721
282.614	15.565	863.385	651.617
283.628	15.503	862.734	650.828
284.643	15.507	862.255	650.426
285.657	15.450	861.501	649.578
286.672	15.614	861.042	649.808
287.687	15.538	860.532	649.073
288.701	15.518	860.089	648.603
289.716	15.527	859.413	648.070
290.730	15.665	858.456	647.824
291.745	15.550	858.372	647.258
292.760	15.666	857.606	647.074
293.774	15.615	857.211	646.521
294.789	15.725	856.227	646.143
295.803	15.750	855.327	645.505
296.818	15.825	854.665	645.236
297.833	15.714	854.061	644.294
298.847	15.756	853.747	644.163
299.862	15.784	853.024	643.667
300.876	15.722	852.478	642.962
301.891	15.762	852.248	642.885
302.906	15.845	851.460	642.550
303.920	15.979	850.980	642.641
304.935	15.850	850.702	641.884
305.949	15.872	849.783	641.217
306.964	15.858	848.875	640.423
307.979	16.003	848.349	640.518
308.993	15.971	848.281	640.289
310.008	15.890	847.668	639.462
311.022	15.897	847.246	639.112
312.037	15.932	846.558	638.671
313.052	15.906	845.739	637.898
314.066	15.916	845.199	637.473
315.081	16.041	844.569	637.413
316.095	15.886	844.166	636.467
317.110	15.911	843.657	636.121
318.125	16.062	843.113	636.223
319.139	15.959	842.365	635.215
320.154	16.023	841.743	634.931
321.168	16.155	841.333	635.065
322.183	16.107	840.828	634.445
323.197	16.105	840.171	633.885
324.212	16.027	839.936	633.358
325.227	16.022	839.496	632.953
326.241	16.098	838.565	632.481
327.256	16.183	838.094	632.388
328.270	16.009	837.681	631.369
329.285	16.158	836.664	631.104
330.300	16.089	836.536	630.691
331.314	16.156	835.958	630.450
332.329	16.111	835.437	629.834
333.343	16.173	835.159	629.801
334.358	16.196	834.744	629.519
335.373	16.247	834.036	629.116
336.387	16.075	834.536	628.800
337.402	16.254	833.646	628.739
338.416	16.418	833.425	629.128
339.431	16.349	833.140	628.601
340.446	16.232	832.801	627.853
341.460	16.362	832.009	627.683
342.475	16.458	831.656	627.718
343.489	16.566	831.040	627.597
344.504	16.514	830.272	626.769
345.519	16.598	829.877	626.727
346.533	16.571	829.325	626.154
347.548	16.446	828.767	625.215
348.562	16.311	829.020	624.851
349.577	16.377	828.238	624.450
350.592	16.390	827.230	623.685
351.606	16.240	827.189	623.045
352.621	16.408	826.433	623.038
353.635	16.392	825.558	622.265
354.650	16.503	825.014	622.208
355.665	16.600	823.904	621.674
356.679	16.631	823.568	621.479
357.694	16.591	822.711	620.629
358.708	16.557	822.380	620.200
359.723	16.661	821.628	619.961
360.738	16.684	821.039	619.545
361.752	16.675	820.533	619.075
362.767	16.824	820.025	619.180
363.781	16.725	819.578	618.429
364.796	16.724	819.392	618.229
365.810	16.807	818.491	617.797
366.825	16.809	818.531	617.778
367.840	16.977	817.872	617.839
368.854	16.685	817.592	616.512
369.869	16.852	816.983	616.603
370.883	16.885	816.627	616.401
371.898	16.942	816.335	616.332
372.913	16.914	816.085	615.988
373.927	16.849	815.502	615.257
374.942	16.895	814.946	614.951
375.956	17.065	814.429	615.123
376.971	17.107	814.018	614.911
377.986	17.081	813.610	614.453
379.000	17.115	813.283	614.273
380.015	17.010	812.688	613.390
381.029	17.161	812.049	613.400
382.044	17.174	811.579	613.036
383.059	17.201	810.748	612.454
384.073	17.039	810.332	611.500
385.088	17.080	809.767	611.167
386.102	17.226	809.392	611.358
387.117	17.081	808.815	610.346
388.132	17.278	807.618	610.094
389.146	17.142	807.557	609.507
390.161	17.092	807.141	608.959
391.175	17.270	806.856	609.330
392.190	17.283	806.048	608.711
393.205	17.105	805.954	607.948
394.219	17.103	805.686	607.686
395.234	17.141	805.124	607.343
396.248	17.117	804.439	606.688
397.263	17.044	804.295	606.266
398.278	17.157	803.894	606.314
399.292	17.039	803.465	605.513
400.307	17.218	802.768	605.572
401.321	17.127	802.233	604.791
402.336	17.309	801.235	604.633
403.350	17.231	801.537	604.531
404.365	17.067	801.294	603.709
405.380	17.449	800.305	604.268
406.394	17.569	799.600	604.110
407.409	17.415	799.579	603.494
408.423	17.385	799.366	603.171
409.438	17.350	799.208	602.874
410.453	17.425	798.117	602.265
411.467	17.543	797.871	602.444
412.482	17.542	797.845	602.366
413.496	17.605	797.381	602.187
414.511	17.638	796.601	601.658
415.526	17.696	796.259	601.554
416.540	17.716	795.600	601.072
417.555	17.527	795.660	600.398
418.569	17.564	794.957	599.946
419.584	17.802	794.530	600.408
420.599	17.735	794.177	599.851
421.613	108.138	1289.447	1459.315
422.628	92.878	1361.558	1459.416
