DTS Sentinel unit serial number:	SN413079Multiplexer serial number:	ORYXHardware model number:	OX4-SRSoftware version number:	ORYX F/W v4.00 Oryx Data Collector v3.7.2.0data status	okinstallation	princeton_trtdifferential loss correction	single-endedforward channel	channel 1reverse channel	N/Adate	2019/09/12time	15:12:11forward acquisition time	60.00reverse acquisition time	0.00gamma	496.2192k internal	0.2292k external	0.2292temperature offset calibration	1.0052default loss term (dB/km)	0.3790temperature slope calibration	1.0000multiplexer offset coefficient	1.0000multiplexer slope coefficient	1.0000fibre end	0.00T internal ref (°C)	40.66T ext. ref 1 (°C)	2.37T ext. ref 2 (°C)	37.83length (m)	temperature (°C)	Stokes	anti-Stokes-747.200	-200.000	0.002	-0.245
-746.185	-60.644	0.238	0.103
-745.171	-16.036	0.172	0.112
-744.156	155.206	-0.136	0.191
-743.142	3.691	0.158	0.118
-742.127	437.310	-0.073	-0.163
-741.112	-200.000	-0.038	0.209
-740.098	235.891	0.218	0.368
-739.083	2.610	-0.171	-0.127
-738.069	392.082	-0.183	0.389
-737.054	-87.743	0.208	-0.064
-736.039	398.475	-0.039	-0.083
-735.025	509.062	-0.030	0.070
-734.010	-72.068	-0.233	-0.089
-732.996	55.070	-0.324	-0.320
-731.981	-36.916	-0.070	-0.039
-730.966	294.460	-0.066	-0.124
-729.952	-33.825	0.019	-0.011
-728.937	473.891	-0.094	0.218
-727.923	800.000	0.087	-0.255
-726.908	44.583	0.181	-0.170
-725.894	-89.168	-0.165	0.050
-724.879	1.359	-0.208	0.153
-723.864	800.000	0.052	0.204
-722.850	-56.002	0.077	0.035
-721.835	-19.278	0.119	-0.075
-720.821	-75.455	-0.131	0.048
-719.806	-200.000	-0.056	-0.258
-718.791	7.382	0.128	-0.098
-717.777	-200.000	-0.009	0.121
-716.762	-200.000	-0.006	-0.096
-715.748	-92.663	-0.120	0.034
-714.733	622.901	-0.139	0.358
-713.718	-200.000	-0.027	0.250
-712.704	68.624	-0.381	0.400
-711.689	-143.605	0.218	0.021
-710.675	-60.451	-0.200	-0.087
-709.660	-109.284	-0.160	-0.035
-708.645	37.729	0.283	-0.257
-707.631	90.351	0.127	-0.145
-706.616	188.466	0.087	0.134
-705.602	-28.957	-0.093	0.055
-704.587	-3.172	0.093	0.067
-703.572	18.596	-0.225	0.184
-702.558	-162.248	-0.248	0.013
-701.543	30.980	-0.055	-0.048
-700.529	-72.581	-0.269	0.102
-699.514	-151.781	-0.174	-0.013
-698.499	-200.000	-0.021	-0.120
-697.485	800.000	-0.063	-0.276
-696.470	-200.000	-0.023	-0.175
-695.456	-90.023	-0.052	0.015
-694.441	34.324	-0.190	-0.169
-693.426	692.736	-0.150	-0.402
-692.412	-200.000	0.011	-0.395
-691.397	-200.000	0.004	-0.088
-690.383	-67.460	0.215	0.086
-689.368	24.485	-0.293	-0.247
-688.354	800.000	-0.043	-0.155
-687.339	-200.000	0.032	-0.494
-686.324	263.323	0.066	-0.118
-685.310	-200.000	-0.022	-0.106
-684.295	630.425	-0.040	-0.104
-683.281	-61.526	-0.311	0.133
-682.266	-87.308	0.373	0.115
-681.251	-71.214	0.064	-0.024
-680.237	71.058	0.293	-0.310
-679.222	275.202	-0.074	-0.134
-678.208	-186.418	-0.458	0.007
-677.193	226.697	0.124	-0.205
-676.178	-200.000	-0.007	0.190
-675.164	-200.000	-0.041	0.294
-674.149	-16.206	-0.272	0.176
-673.135	171.276	-0.012	0.018
-672.120	92.278	-0.250	-0.287
-671.105	-156.414	-0.221	0.014
-670.091	350.115	-0.111	-0.225
-669.076	-200.000	-0.064	0.296
-668.062	166.808	-0.137	0.198
-667.047	800.000	0.039	0.159
-666.032	36.302	0.198	0.178
-665.018	800.000	0.012	-0.047
-664.003	-25.072	-0.158	-0.096
-662.989	-30.375	-0.138	-0.080
-661.974	-200.000	-0.027	0.164
-660.959	-101.599	-0.132	-0.033
-659.945	-146.705	-0.072	-0.006
-658.930	800.000	0.032	0.106
-657.916	-200.000	-0.025	-0.217
-656.901	-200.000	-0.027	0.271
-655.886	-26.825	0.090	-0.054
-654.872	61.535	-0.081	0.082
-653.857	49.337	0.181	0.174
-652.843	-112.172	0.111	-0.023
-651.828	57.671	-0.113	-0.113
-650.814	-103.768	-0.068	-0.016
-649.799	-200.000	-0.054	0.352
-648.784	-200.000	0.004	0.239
-647.770	800.000	-0.015	-0.060
-646.755	435.690	-0.023	-0.051
-645.741	217.513	0.029	0.047
-644.726	800.000	-0.070	-0.246
-643.711	240.477	-0.131	0.223
-642.697	13.137	-0.380	-0.300
-641.682	-42.869	-0.069	-0.036
-640.668	26.813	-0.227	0.194
-639.653	-128.888	0.173	0.025
-638.638	-200.000	0.020	-0.243
-637.624	506.746	0.055	-0.130
-636.609	-200.000	0.024	0.107
-635.595	238.580	-0.115	-0.195
-634.580	-200.000	0.048	-0.246
-633.565	-200.000	-0.010	0.064
-632.551	244.642	-0.059	0.102
-631.536	404.563	-0.075	0.161
-630.522	134.124	0.012	0.016
-629.507	-160.004	0.182	0.010
-628.492	137.459	0.155	0.207
-627.478	-139.440	0.079	0.009
-626.463	800.000	0.054	-0.167
-625.449	-48.466	-0.096	-0.047
-624.434	800.000	0.029	0.106
-623.419	-77.208	0.298	-0.106
-622.405	76.796	0.181	-0.196
-621.390	800.000	-0.068	-0.207
-620.376	800.000	0.021	-0.091
-619.361	-200.000	0.015	0.378
-618.346	332.181	-0.157	0.309
-617.332	261.128	0.084	0.148
-616.317	129.526	-0.225	-0.293
-615.303	-200.000	-0.010	-0.213
-614.288	-21.404	0.228	0.142
-613.273	783.467	-0.091	0.254
-612.259	800.000	0.035	0.126
-611.244	129.671	0.211	-0.275
-610.230	7.379	-0.076	0.058
-609.215	-200.000	-0.039	-0.218
-608.201	183.412	-0.149	-0.225
-607.186	164.487	0.237	-0.340
-606.171	124.699	-0.103	-0.132
-605.157	-36.983	-0.317	-0.173
-604.142	800.000	-0.040	0.150
-603.128	-5.254	-0.028	0.019
-602.113	800.000	0.037	-0.154
-601.098	0.973	-0.540	0.394
-600.084	-38.375	-0.123	0.066
-599.069	-89.524	0.135	0.040
-598.055	241.369	0.050	0.086
-597.040	-19.369	0.067	-0.042
-596.025	800.000	0.036	-0.153
-595.011	135.006	-0.232	-0.307
-593.996	160.175	0.126	0.179
-592.982	105.150	-0.055	0.066
-591.967	-105.428	0.452	0.104
-590.952	49.358	0.314	-0.301
-589.938	389.217	0.202	-0.425
-588.923	231.659	0.028	0.047
-587.909	-130.552	0.278	0.038
-586.894	800.000	-0.068	0.241
-585.879	-200.000	-0.022	0.192
-584.865	-200.000	0.001	-0.539
-583.850	211.181	0.038	0.061
-582.836	557.285	-0.060	0.147
-581.821	512.558	0.067	-0.158
-580.806	62.568	-0.238	0.242
-579.792	-142.050	0.154	-0.016
-578.777	508.468	-0.125	-0.294
-577.763	-14.012	0.230	-0.151
-576.748	282.036	0.048	-0.087
-575.733	800.000	0.050	0.148
-574.719	84.325	-0.109	-0.121
-573.704	-200.000	-0.014	-0.368
-572.690	-200.000	0.005	-0.123
-571.675	-58.650	-0.116	-0.051
-570.661	800.000	0.096	0.383
-569.646	26.991	0.128	0.109
-568.631	800.000	-0.130	-0.405
-567.617	-53.769	0.218	0.101
-566.602	-200.000	-0.056	-0.259
-565.588	-131.786	-0.202	-0.027
-564.573	-151.045	0.201	-0.015
-563.558	-130.464	0.264	-0.036
-562.544	153.950	-0.074	0.103
-561.529	-200.000	-0.024	-0.118
-560.515	800.000	0.022	-0.087
-559.500	456.639	0.024	0.054
-558.485	26.497	-0.195	-0.166
-557.471	45.530	-0.250	-0.234
-556.456	-67.432	-0.066	0.026
-555.442	180.252	0.211	0.314
-554.427	-69.241	-0.167	0.065
-553.412	-200.000	-0.002	-0.037
-552.398	-29.259	-0.142	0.082
-551.383	-192.797	-0.272	0.003
-550.369	-148.392	-0.274	0.023
-549.354	688.871	-0.071	-0.188
-548.339	541.189	0.082	-0.199
-547.325	-158.930	0.193	-0.011
-546.310	65.486	-0.197	0.203
-545.296	-200.000	0.060	-0.474
-544.281	183.921	-0.149	0.224
-543.266	-141.496	0.104	0.011
-542.252	-95.445	-0.148	-0.040
-541.237	800.000	-0.051	-0.209
-540.223	800.000	-0.028	0.082
-539.208	45.336	-0.058	-0.055
-538.193	-110.937	-0.287	0.060
-537.179	43.247	0.114	0.106
-536.164	-91.867	-0.246	-0.071
-535.150	-76.067	-0.115	0.041
-534.135	-200.000	0.022	0.133
-533.121	800.000	-0.004	-0.015
-532.106	-108.722	-0.037	0.008
-531.091	-134.474	0.316	-0.039
-530.077	-187.101	-0.243	-0.003
-529.062	-150.328	-0.229	0.018
-528.048	62.026	0.066	0.066
-527.033	-141.085	-0.202	0.021
-526.018	49.165	-0.279	-0.267
-525.004	61.841	-0.191	0.193
-523.989	-31.654	0.139	0.079
-522.975	479.496	0.025	0.058
-521.960	-200.000	0.013	-0.177
-520.945	-200.000	-0.071	0.399
-519.931	-15.544	-0.064	0.041
-518.916	315.298	0.048	0.091
-517.902	-163.438	-0.182	0.009
-516.887	-200.000	-0.057	0.481
-515.872	-16.963	0.182	0.116
-514.858	39.637	-0.130	0.118
-513.843	-19.978	-0.273	0.171
-512.829	53.947	0.118	-0.115
-511.814	-127.559	-0.149	-0.022
-510.799	44.275	-0.109	-0.102
-509.785	127.741	0.098	-0.126
-508.770	201.845	-0.186	-0.290
-507.756	-20.979	0.072	0.045
-506.741	-72.816	-0.085	0.032
-505.726	-200.000	0.001	0.091
-504.712	-6.349	0.201	0.139
-503.697	-100.714	-0.350	0.088
-502.683	17.206	-0.285	-0.229
-501.668	-116.862	0.162	0.030
-500.653	-105.562	0.078	0.018
-499.639	-31.453	0.278	0.158
-498.624	-200.000	0.032	0.195
-497.610	113.207	-0.137	0.169
-496.595	415.563	-0.138	0.299
-495.581	218.061	-0.072	-0.116
-494.566	400.113	0.092	-0.197
-493.551	-186.390	-0.073	0.001
-492.537	-200.000	-0.023	0.176
-491.522	-200.000	-0.007	-0.365
-490.508	-200.000	0.012	-0.059
-489.493	32.325	-0.214	0.188
-488.478	800.000	0.028	0.094
-487.464	-101.344	0.135	0.033
-486.449	-31.811	0.191	0.108
-485.435	-173.272	-0.357	0.011
-484.420	398.564	0.144	-0.305
-483.405	800.000	0.062	0.181
-482.391	235.939	-0.026	-0.043
-481.376	-63.302	0.207	0.087
-480.362	-172.232	-0.041	-0.001
-479.347	119.353	-0.082	-0.103
-478.332	369.718	-0.096	0.197
-477.318	-128.778	0.179	-0.026
-476.303	-200.000	0.031	-0.201
-475.289	-200.000	-0.011	0.213
-474.274	-174.889	-0.449	-0.013
-473.259	83.803	0.112	0.124
-472.245	-107.699	0.026	-0.006
-471.230	-33.411	-0.291	-0.163
-470.216	-35.972	-0.117	-0.064
-469.201	-56.318	0.190	-0.086
-468.186	595.345	0.145	0.363
-467.172	800.000	0.092	-0.358
-466.157	209.362	0.014	0.022
-465.143	-118.884	-0.057	-0.010
-464.128	800.000	-0.044	0.179
-463.113	-102.339	-0.250	0.061
-462.099	800.000	-0.054	-0.201
-461.084	-13.868	0.205	0.134
-460.070	-200.000	-0.006	-0.098
-459.055	800.000	0.097	-0.328
-458.040	333.852	-0.152	0.298
-457.026	-112.036	-0.177	0.036
-456.011	-200.000	0.056	-0.307
-454.997	-95.973	0.478	0.129
-453.982	173.535	-0.168	-0.246
-452.968	429.232	0.049	0.108
-451.953	508.738	0.069	-0.163
-450.938	-84.402	0.211	0.068
-449.924	800.000	-0.044	0.181
-448.909	-76.703	0.136	-0.048
-447.895	201.440	-0.172	0.268
-446.880	-200.000	-0.042	0.375
-445.865	-200.000	0.009	0.214
-444.851	216.928	0.107	0.173
-443.836	-139.549	-0.007	0.001
-442.822	-102.121	0.220	0.053
-441.807	-96.311	-0.062	0.017
-440.792	-151.658	0.122	0.009
-439.778	800.000	-0.039	-0.142
-438.763	411.206	0.012	0.027
-437.749	-37.845	-0.065	-0.035
-436.734	-160.435	-0.142	-0.008
-435.719	348.760	0.061	-0.121
-434.705	-200.000	-0.051	-0.297
-433.690	628.697	0.096	0.245
-432.676	-44.178	0.303	-0.154
-431.661	725.386	0.100	-0.270
-430.646	800.000	-0.016	0.050
-429.632	-200.000	0.003	0.213
-428.617	-200.000	-0.042	0.243
-427.603	-37.915	0.185	-0.099
-426.588	-200.000	-0.002	0.144
-425.573	-83.653	0.057	0.019
-424.559	-7.153	0.194	-0.133
-423.544	-26.894	0.263	-0.155
-422.530	-106.327	0.570	0.129
-421.515	28.494	-0.144	-0.123
-420.500	-27.720	0.210	-0.123
-419.486	-200.000	-0.005	0.174
-418.471	251.154	0.048	0.083
-417.457	-79.387	0.114	0.039
-416.442	192.842	-0.158	-0.242
-415.428	163.683	0.086	-0.123
-414.413	-197.435	0.255	-0.002
-413.398	176.257	0.169	-0.248
-412.384	-58.750	0.088	-0.039
-411.369	-58.538	-0.323	-0.142
-410.355	256.600	0.152	-0.264
-409.340	-36.086	0.075	0.041
-408.325	-103.035	0.308	-0.074
-407.311	-200.000	-0.004	0.130
-406.296	112.030	0.072	-0.088
-405.282	27.156	0.340	-0.288
-404.267	32.425	0.142	-0.124
-403.252	-162.592	0.096	-0.005
-402.238	-4.073	0.043	-0.030
-401.223	-200.000	-0.035	-0.171
-400.209	110.579	-0.196	0.238
-399.194	513.904	-0.081	-0.192
-398.179	-105.853	-0.147	-0.034
-397.165	56.541	-0.066	-0.065
-396.150	33.068	-0.236	0.207
-395.136	384.346	-0.117	-0.244
-394.121	-74.694	0.034	-0.012
-393.106	-82.042	-0.446	-0.147
-392.092	103.141	-0.228	0.270
-391.077	56.759	0.061	0.060
-390.063	174.549	0.044	0.064
-389.048	-200.000	0.048	-0.351
-388.033	13.391	0.174	-0.136
-387.019	800.000	-0.080	0.234
-386.004	-200.000	0.012	0.303
-384.990	59.335	0.205	0.204
-383.975	-105.907	-0.265	-0.060
-382.960	-57.238	-0.123	-0.055
-381.946	108.121	0.370	0.446
-380.931	443.129	-0.076	-0.168
-379.917	-45.885	-0.206	-0.103
-378.902	162.624	-0.136	0.192
-377.888	166.167	-0.086	0.123
-376.873	-200.000	-0.011	-0.108
-375.858	-159.706	0.427	0.024
-374.844	96.266	0.127	-0.147
-373.829	466.989	0.096	0.218
-372.815	305.991	0.133	0.250
-371.800	187.014	-0.120	-0.181
-370.785	514.726	-0.088	-0.207
-369.771	800.000	-0.146	0.442
-368.756	-67.835	-0.076	-0.030
-367.742	179.578	-0.146	0.216
-366.727	144.411	0.119	0.161
-365.712	-200.000	-0.017	-0.213
-364.698	800.000	-0.110	-0.477
-363.683	-111.330	-0.198	0.041
-362.669	-200.000	-0.039	0.259
-361.654	73.535	-0.032	0.034
-360.639	-200.000	0.009	-0.040
-359.625	135.726	0.256	-0.336
-358.610	-54.918	0.210	0.095
-357.596	-111.413	0.066	-0.014
-356.581	-7.116	-0.188	0.129
-355.566	800.000	0.028	0.097
-354.552	-92.166	-0.497	0.142
-353.537	-90.748	0.279	-0.081
-352.523	574.612	-0.016	0.041
-351.508	257.365	-0.032	0.056
-350.493	-200.000	-0.022	-0.134
-349.479	800.000	-0.064	0.180
-348.464	-166.724	0.509	0.021
-347.450	123.085	-0.276	-0.348
-346.435	148.670	-0.023	-0.031
-345.420	-57.484	0.186	-0.082
-344.406	65.875	-0.192	0.197
-343.391	800.000	0.036	-0.149
-342.377	-93.244	0.299	-0.084
-341.362	-21.594	0.278	-0.171
-340.348	-55.775	-0.184	0.083
-339.333	86.571	-0.080	-0.089
-338.318	-29.587	-0.185	-0.106
-337.304	168.866	-0.092	0.132
-336.289	24.206	0.276	0.230
-335.275	121.083	0.020	0.025
-334.260	269.073	-0.084	-0.149
-333.245	671.652	0.022	0.057
-332.231	-55.956	-0.157	0.070
-331.216	-200.000	0.006	0.160
-330.202	57.725	0.128	0.126
-329.187	300.439	-0.196	0.364
-328.172	532.847	0.061	0.146
-327.158	168.757	-0.186	0.267
-326.143	800.000	0.043	0.147
-325.129	-102.181	0.354	-0.086
-324.114	-134.939	-0.145	-0.018
-323.099	1.670	0.190	-0.138
-322.085	-140.561	0.311	0.032
-321.070	545.400	-0.083	0.201
-320.056	-105.697	-0.182	0.042
-319.041	73.760	0.145	-0.153
-318.026	-155.340	-0.236	-0.015
-317.012	-33.285	-0.122	0.068
-315.997	200.549	0.192	-0.298
-314.983	153.322	0.189	-0.260
-313.968	13.758	-0.179	-0.140
-312.953	-19.813	0.037	-0.023
-311.939	317.405	-0.070	-0.134
-310.924	800.000	0.079	-0.240
-309.910	800.000	0.010	0.042
-308.895	42.429	0.270	0.247
-307.880	800.000	-0.063	-0.199
-306.866	-141.956	-0.260	0.026
-305.851	-21.537	0.360	-0.221
-304.837	-34.674	-0.262	0.144
-303.822	204.493	0.143	0.222
-302.807	-94.138	-0.261	0.072
-301.793	178.681	0.172	0.253
-300.778	-200.000	-0.002	0.281
-299.764	4.049	-0.333	-0.245
-298.749	30.629	0.161	0.139
-297.735	800.000	-0.026	0.087
-296.720	-200.000	-0.002	-0.262
-295.705	-98.674	-0.278	-0.071
-294.691	252.638	0.093	-0.160
-293.676	7.939	0.155	0.117
-292.662	16.589	0.267	-0.212
-291.647	408.160	0.112	-0.239
-290.632	588.743	0.023	-0.058
-289.618	-118.276	-0.276	-0.049
-288.603	20.585	0.155	0.126
-287.589	-140.712	0.126	-0.013
-286.574	239.559	-0.082	0.137
-285.559	800.000	0.083	0.251
-284.545	93.456	0.379	-0.431
-283.530	-150.960	0.260	0.020
-282.516	226.444	0.069	-0.112
-281.501	246.821	0.148	0.252
-280.486	466.464	-0.106	0.238
-279.472	5.309	0.156	0.116
-278.457	-34.050	-0.080	-0.044
-277.443	337.412	0.131	0.257
-276.428	-175.973	0.060	-0.002
-275.413	-83.090	0.056	0.018
-274.399	-200.000	-0.012	0.065
-273.384	-22.712	0.372	-0.226
-272.370	528.567	-0.042	0.101
-271.355	104.420	0.373	-0.442
-270.340	45.957	0.285	0.265
-269.326	47.710	-0.321	0.301
-268.311	140.360	-0.136	0.180
-267.297	302.162	0.103	-0.192
-266.282	117.697	0.100	0.124
-265.267	205.996	-0.114	0.178
-264.253	-106.178	-0.274	-0.062
-263.238	-86.330	-0.488	-0.151
-262.224	-27.185	0.298	-0.175
-261.209	-73.234	0.201	-0.074
-260.195	-200.000	-0.005	0.056
-259.180	-88.763	0.168	-0.050
-258.165	-36.852	-0.074	-0.040
-257.151	-130.709	0.192	-0.026
-256.136	800.000	0.119	-0.391
-255.122	799.048	0.024	0.066
-254.107	116.211	-0.085	0.104
-253.092	20.192	0.198	0.161
-252.078	125.370	-0.125	0.158
-251.063	-117.452	-0.104	0.019
-250.049	-200.000	-0.005	0.025
-249.034	-105.392	-0.359	-0.082
-248.019	-172.142	0.308	0.010
-247.005	736.331	0.052	-0.141
-245.990	-200.000	-0.038	-0.364
-244.976	4.866	-0.288	-0.213
-243.961	106.985	0.261	-0.311
-242.946	118.254	-0.127	0.157
-241.932	800.000	0.035	-0.143
-240.917	116.990	-0.032	0.039
-239.903	-132.506	0.297	0.038
-238.888	43.367	-0.055	-0.051
-237.873	-186.539	0.196	-0.003
-236.859	171.239	-0.106	0.153
-235.844	800.000	-0.042	-0.177
-234.830	83.034	0.141	0.154
-233.815	-96.296	-0.084	0.022
-232.800	-124.825	0.462	0.072
-231.786	800.000	0.063	0.189
-230.771	-116.692	-0.238	-0.044
-229.757	-145.289	0.184	0.017
-228.742	43.849	-0.144	0.132
-227.727	487.398	0.130	-0.298
-226.713	129.802	-0.032	-0.041
-225.698	472.874	-0.130	-0.294
-224.684	-173.845	0.165	0.005
-223.669	-11.551	-0.085	-0.056
-222.655	800.000	0.102	-0.324
-221.640	-98.934	-0.328	0.084
-220.625	-33.406	-0.246	0.137
-219.611	-83.385	0.136	-0.044
-218.596	141.588	-0.092	0.122
-217.582	-74.856	0.097	0.035
-216.567	-200.000	0.034	0.221
-215.552	342.743	-0.096	-0.189
-214.538	-38.071	-0.291	0.155
-213.523	69.322	0.095	0.098
-212.509	-200.000	-0.025	0.133
-211.494	61.513	-0.146	0.145
-210.479	546.523	-0.045	0.107
-209.465	77.665	-0.269	0.287
-208.450	149.652	0.154	0.209
-207.436	-43.306	0.142	0.072
-206.421	91.870	0.100	0.113
-205.406	800.000	-0.056	-0.240
-204.392	-161.986	0.560	0.028
-203.377	-20.030	-0.231	-0.143
-202.363	218.888	-0.136	0.218
-201.348	13.097	-0.089	0.069
-200.333	136.074	-0.238	-0.311
-199.319	21.752	0.103	-0.084
-198.304	-74.666	-0.092	-0.033
-197.290	390.080	-0.167	-0.346
-196.275	220.750	0.102	-0.165
-195.260	64.317	-0.148	-0.150
-194.246	-160.691	-0.270	0.014
-193.231	-200.000	-0.008	0.072
-192.217	-28.916	-0.252	-0.145
-191.202	-5.108	-0.150	0.104
-190.187	-22.722	-0.106	0.064
-189.173	107.917	0.071	0.084
-188.158	28.863	-0.054	-0.046
-187.144	-23.644	0.241	-0.145
-186.129	254.817	0.133	0.228
-185.114	96.487	-0.195	-0.223
-184.100	524.589	0.056	-0.132
-183.085	-200.000	-0.060	-0.329
-182.071	-137.102	0.119	-0.014
-181.056	-200.000	0.019	0.209
-180.042	-136.488	-0.250	-0.029
-179.027	109.201	-0.126	-0.152
-178.012	35.600	-0.082	0.072
-176.998	51.492	-0.074	-0.070
-175.983	55.153	0.365	-0.353
-174.969	-52.953	-0.229	0.106
-173.954	-153.321	-0.123	0.009
-172.939	-155.621	-0.247	0.016
-171.925	231.934	-0.145	0.239
-170.910	-140.348	0.124	0.013
-169.896	-200.000	-0.017	-0.407
-168.881	2.195	-0.322	0.233
-167.866	460.348	0.116	0.258
-166.852	50.551	-0.236	0.223
-165.837	5.759	0.127	0.094
-164.823	800.000	0.129	0.377
-163.808	800.000	0.119	0.480
-162.793	-19.820	-0.131	0.081
-161.779	800.000	-0.099	0.351
-160.764	-8.157	0.176	-0.119
-159.750	499.136	-0.085	-0.195
-158.735	82.512	0.021	0.023
-157.720	692.662	0.038	-0.099
-156.706	481.734	0.054	0.123
-155.691	-94.897	-0.204	0.055
-154.677	-200.000	-0.028	0.133
-153.662	471.479	0.200	0.449
-152.647	-182.224	0.263	0.005
-151.633	-12.919	0.100	-0.065
-150.618	-75.222	0.219	-0.078
-149.604	800.000	-0.062	-0.196
-148.589	-128.056	-0.098	0.014
-147.574	389.808	0.114	0.237
-146.560	-200.000	0.030	0.212
-145.545	380.325	0.050	0.103
-144.531	-120.983	-0.222	-0.037
-143.516	800.000	0.080	0.279
-142.502	-48.691	0.309	0.148
-141.487	-82.315	-0.207	-0.067
-140.472	-200.000	0.015	-0.209
-139.458	-16.374	-0.152	0.096
-138.443	319.627	-0.133	0.252
-137.429	-10.120	-0.069	-0.046
-136.414	-200.000	0.021	-0.246
-135.399	-200.000	0.024	0.291
-134.385	-200.000	0.057	-0.262
-133.370	-200.000	-0.028	-0.261
-132.356	183.632	-0.121	-0.178
-131.341	90.747	-0.081	0.090
-130.326	-124.252	0.162	-0.025
-129.312	335.172	-0.082	0.158
-128.297	15.702	-0.157	0.123
-127.283	6.259	-0.343	0.254
-126.268	68.015	0.182	0.186
-125.253	126.230	0.122	0.154
-124.239	-147.956	-0.129	0.011
-123.224	228.732	-0.030	-0.048
-122.210	76.761	-0.065	0.069
-121.195	175.776	-0.025	0.036
-120.180	41.623	0.179	0.162
-119.166	-200.000	0.071	-0.349
-118.151	800.000	0.038	-0.135
-117.137	-17.149	0.099	-0.063
-116.122	-31.316	0.248	0.140
-115.107	303.112	0.121	0.225
-114.093	30.095	0.110	0.094
-113.078	170.790	0.224	-0.320
-112.064	-149.812	0.044	0.003
-111.049	-5.706	-0.034	-0.023
-110.034	-136.148	0.047	-0.005
-109.020	-87.322	0.282	-0.085
-108.005	197.941	-0.065	-0.099
-106.991	356.296	-0.090	0.179
-105.976	-200.000	-0.006	0.170
-104.962	-144.957	-0.077	-0.007
-103.947	-200.000	-0.006	0.039
-102.932	-37.642	0.226	0.120
-101.918	601.201	-0.032	0.079
-100.903	-82.938	-0.305	0.098
-99.889	-103.793	-0.347	0.081
-98.874	-99.648	-0.168	0.042
-97.859	16.477	-0.255	-0.201
-96.845	6.698	0.166	-0.123
-95.830	-58.727	0.088	-0.038
-94.816	-200.000	-0.018	-0.257
-93.801	-16.706	-0.061	0.039
-92.786	-125.814	-0.360	-0.054
-91.772	75.840	-0.209	0.221
-90.757	161.275	0.054	0.076
-89.743	-70.741	-0.143	-0.054
-88.728	2.971	0.395	0.286
-87.713	254.850	-0.098	0.167
-86.699	23.533	-0.236	-0.194
-85.684	-153.788	-0.236	-0.016
-84.670	-92.551	-0.111	-0.031
-83.655	-12.805	-0.195	-0.126
-82.640	79.098	0.161	0.172
-81.626	-200.000	-0.008	-0.085
-80.611	-200.000	-0.009	0.042
-79.597	-151.523	-0.080	-0.006
-78.582	-200.000	0.019	0.261
-77.567	-82.542	0.337	0.109
-76.553	-200.000	-0.001	0.057
-75.538	94.193	-0.129	-0.146
-74.524	-98.110	-0.328	0.084
-73.509	-122.157	-0.142	-0.023
-72.494	-138.166	0.174	0.019
-71.480	-120.788	-0.239	0.040
-70.465	190.977	0.020	0.029
-69.451	-85.622	0.154	0.048
-68.436	20.653	0.008	0.006
-67.422	226.000	0.176	-0.284
-66.407	-200.000	-0.025	-0.228
-65.392	-49.454	-0.219	-0.104
-64.378	28.374	0.187	0.158
-63.363	-172.636	-0.072	0.002
-62.349	-200.000	0.009	0.103
-61.334	32.060	-0.663	-0.569
-60.319	535.886	0.084	0.198
-59.305	-200.000	0.024	-0.481
-58.290	145.976	0.537	0.717
-57.276	550.873	0.615	1.470
-56.261	-200.000	76.377	513.530
-55.246	522.108	1327.791	3105.707
-54.232	147.022	2555.495	3424.352
-53.217	117.654	2221.596	2724.007
-52.203	52.395	1667.589	1585.160
-51.188	44.326	1392.416	1273.243
-50.173	40.812	1346.336	1209.708
-49.159	59.422	1382.204	1356.722
-48.144	66.190	1401.193	1416.852
-47.130	44.910	1363.679	1250.348
-46.115	40.840	1346.960	1210.248
-45.100	40.560	1342.437	1204.432
-44.086	40.517	1339.840	1201.794
-43.071	40.384	1337.718	1199.041
-42.057	40.457	1335.387	1197.347
-41.042	40.440	1333.366	1195.381
-40.027	40.530	1331.932	1194.592
-39.013	40.520	1330.147	1192.879
-37.998	40.582	1327.910	1191.198
-36.984	40.598	1326.642	1190.115
-35.969	40.666	1324.799	1188.819
-34.954	40.782	1322.938	1187.797
-33.940	40.778	1321.538	1186.468
-32.925	40.766	1320.174	1185.125
-31.911	40.790	1318.973	1184.140
-30.896	40.742	1317.370	1182.373
-29.881	40.774	1315.598	1180.926
-28.867	40.758	1314.158	1179.490
-27.852	40.840	1312.822	1178.733
-26.838	40.742	1311.825	1177.207
-25.823	40.668	1310.508	1175.542
-24.809	40.766	1308.702	1174.456
-23.794	40.705	1307.530	1172.994
-22.779	40.755	1305.901	1171.783
-21.765	40.763	1304.841	1170.834
-20.750	40.742	1303.469	1169.430
-19.736	40.765	1301.663	1167.896
-18.721	40.552	1300.934	1165.949
-17.706	40.599	1299.966	1165.309
-16.692	40.532	1298.884	1163.901
-15.677	40.565	1297.685	1162.972
-14.663	40.667	1296.262	1162.250
-13.648	40.495	1295.627	1160.626
-12.633	40.457	1294.677	1159.507
-11.619	40.621	1293.187	1159.083
-10.604	40.590	1292.714	1158.430
-9.590	40.529	1291.694	1157.115
-8.575	40.556	1290.616	1156.260
-7.560	40.655	1289.306	1155.621
-6.546	40.597	1288.738	1154.725
-5.531	40.637	1287.693	1153.980
-4.517	40.663	1286.986	1153.450
-3.502	40.706	1285.969	1152.741
-2.487	40.616	1285.098	1151.392
-1.473	40.740	1281.151	1148.528
-0.458	39.722	1266.858	1129.843
0.556	36.080	1247.347	1087.837
1.571	32.251	1250.783	1069.011
2.586	30.952	1265.494	1074.011
3.600	28.946	1253.875	1052.586
4.615	20.349	1176.220	940.934
5.629	8.279	1092.545	812.793
6.644	2.957	1068.450	768.238
7.659	2.365	1066.111	763.534
8.673	2.101	1064.625	761.085
9.688	2.081	1063.121	759.842
10.702	2.573	1061.879	761.337
11.717	9.593	1072.761	804.210
12.731	20.659	1088.499	871.694
13.746	25.411	1093.967	899.864
14.761	25.742	1094.215	901.644
15.775	25.717	1094.154	901.390
16.790	25.489	1092.766	899.029
17.804	25.322	1092.402	897.815
18.819	25.394	1092.015	897.773
19.834	25.653	1091.606	898.655
20.848	25.668	1090.899	898.066
21.863	25.632	1090.406	897.402
22.877	25.564	1089.785	896.473
23.892	25.398	1089.353	895.213
24.907	25.556	1088.437	895.167
25.921	25.571	1087.180	894.127
26.936	25.465	1086.086	892.621
27.950	25.532	1084.192	891.318
28.965	25.426	1082.660	889.454
29.980	25.439	1080.883	887.981
30.994	25.634	1079.955	888.104
32.009	25.782	1078.664	887.693
33.023	25.479	1077.974	885.554
34.038	25.553	1077.375	885.347
35.053	25.537	1076.606	884.559
36.067	25.569	1075.371	883.620
37.082	25.680	1075.181	883.934
38.096	25.800	1074.464	883.853
39.111	25.866	1073.448	883.263
40.126	25.735	1072.059	881.403
41.140	25.383	1070.186	878.062
42.155	25.090	1069.099	875.664
43.169	25.185	1067.860	875.035
44.184	25.252	1067.131	874.684
45.199	25.105	1066.361	873.262
46.213	25.161	1065.471	872.730
47.228	25.375	1064.315	872.743
48.242	25.476	1063.659	872.618
49.257	25.575	1063.164	872.614
50.271	25.635	1062.146	871.992
51.286	25.669	1061.265	871.359
52.301	25.666	1061.022	871.067
53.315	25.497	1059.515	868.937
54.330	25.419	1059.149	868.182
55.344	25.446	1058.112	867.386
56.359	25.501	1057.095	866.742
57.374	25.340	1055.938	864.939
58.388	25.248	1055.479	864.044
59.403	25.369	1054.483	863.734
60.417	25.207	1053.244	861.864
61.432	25.253	1053.178	861.954
62.447	25.141	1053.534	861.632
63.461	25.363	1051.840	861.235
64.476	25.198	1051.093	859.758
65.490	25.181	1049.710	858.467
66.505	25.382	1048.885	858.679
67.520	25.185	1048.647	857.468
68.534	25.136	1047.263	856.027
69.549	24.742	1046.412	853.373
70.563	24.710	1045.714	852.577
71.578	24.837	1044.798	852.358
72.593	24.580	1043.677	850.148
73.607	24.718	1043.244	850.375
74.622	25.078	1042.942	851.764
75.636	25.091	1042.101	851.066
76.651	24.916	1041.423	849.604
77.666	24.826	1040.637	848.461
78.680	24.959	1040.177	848.641
79.695	25.069	1039.708	848.704
80.709	25.212	1038.322	848.174
81.724	25.069	1037.851	847.038
82.739	25.259	1036.873	847.062
83.753	25.487	1036.872	848.064
84.768	25.832	1036.065	848.953
85.782	26.057	1035.078	849.128
86.797	25.819	1033.905	846.971
87.812	25.507	1033.403	845.019
88.826	25.745	1031.986	844.904
89.841	25.832	1031.575	844.900
90.855	25.892	1030.255	844.027
91.870	25.834	1029.951	843.431
92.884	25.644	1028.678	841.427
93.899	25.611	1027.306	840.074
94.914	25.723	1026.887	840.181
95.928	25.551	1026.023	838.596
96.943	25.414	1024.267	836.448
97.957	25.179	1023.466	834.627
98.972	25.067	1022.121	832.939
99.987	25.352	1022.059	834.139
101.001	25.486	1020.862	833.709
102.016	25.508	1020.018	833.048
103.030	25.472	1018.712	831.739
104.045	25.330	1017.794	830.261
105.060	25.132	1017.351	828.910
106.074	25.350	1016.420	829.084
107.089	25.701	1015.916	830.219
108.103	25.490	1014.999	828.422
109.118	25.404	1013.277	826.551
110.133	25.333	1012.671	825.655
111.147	25.124	1011.212	823.432
112.162	24.907	1010.726	821.970
113.176	25.164	1010.271	822.706
114.191	25.059	1009.332	821.387
115.206	24.788	1008.154	819.113
116.220	24.753	1007.100	818.024
117.235	25.069	1006.085	818.574
118.249	24.950	1005.328	817.342
119.264	24.823	1004.916	816.354
120.279	24.804	1004.244	815.649
121.293	24.916	1002.966	815.049
122.308	25.052	1002.072	814.869
123.322	24.864	1001.177	813.215
124.337	24.798	999.551	811.524
125.352	24.306	998.447	808.327
126.366	24.167	997.537	806.886
127.381	24.844	998.051	810.300
128.395	25.385	997.094	811.894
129.410	25.556	996.256	811.916
130.424	25.554	995.352	811.098
131.439	25.480	994.676	810.140
132.454	25.392	994.012	809.133
133.468	25.465	993.085	808.635
134.483	25.653	991.625	808.217
135.497	25.673	991.722	808.315
136.512	25.827	990.506	807.944
137.527	25.924	989.546	807.522
138.541	25.824	989.191	806.714
139.556	25.912	987.998	806.063
140.570	25.873	987.769	805.630
141.585	25.928	986.798	805.014
142.600	25.919	985.475	803.825
143.614	26.083	984.645	803.804
144.629	26.315	983.952	804.202
145.643	25.914	983.251	801.773
146.658	25.854	981.422	799.945
147.673	25.686	980.333	798.241
148.687	25.542	979.710	797.024
149.702	25.532	978.708	796.094
150.716	25.479	977.860	795.099
151.731	25.703	976.855	795.204
152.746	25.970	976.281	795.843
153.760	25.828	975.981	794.902
154.775	25.919	975.245	794.637
155.789	25.916	974.510	793.950
156.804	25.971	972.834	792.758
157.819	25.983	972.503	792.471
158.833	26.086	972.001	792.443
159.848	26.063	970.833	791.321
160.862	25.825	969.705	789.289
161.877	25.923	968.624	788.767
162.892	25.893	967.676	787.797
163.906	25.820	966.887	786.765
164.921	25.841	966.000	786.066
165.935	25.968	964.795	785.570
166.950	25.853	964.057	784.398
167.964	25.874	963.481	783.951
168.979	25.771	962.178	782.372
169.994	25.769	961.139	781.452
171.008	25.894	960.893	781.721
172.023	25.929	960.060	781.127
173.037	25.609	959.347	779.093
174.052	25.613	957.884	777.854
175.067	25.632	957.585	777.624
176.081	25.778	956.803	777.553
177.096	25.649	956.310	776.525
178.110	25.384	955.058	774.295
179.125	25.190	954.604	773.025
180.140	25.309	954.085	773.048
181.154	25.354	953.826	772.963
182.169	25.711	953.798	774.411
183.183	26.055	953.014	775.184
184.198	25.776	952.289	773.324
185.213	25.786	951.412	772.588
186.227	25.898	950.584	772.327
187.242	25.843	950.095	771.627
188.256	25.930	949.343	771.321
189.271	26.052	948.829	771.357
190.286	25.722	947.565	768.849
191.300	24.901	946.381	764.320
192.315	24.272	944.400	759.970
193.329	24.206	943.919	759.234
194.344	25.066	944.773	763.519
195.359	25.655	944.482	765.725
196.373	25.841	943.666	765.787
197.388	25.682	943.272	764.721
198.402	25.685	942.812	764.293
199.417	25.773	941.993	763.938
200.432	25.508	941.304	762.187
201.446	25.478	940.079	761.000
202.461	25.409	939.578	760.235
203.475	24.728	937.681	755.758
204.490	23.810	936.578	750.925
205.504	24.727	936.839	754.938
206.519	25.271	937.090	757.370
207.534	25.406	936.317	757.250
208.548	25.761	936.525	758.845
209.563	25.697	935.236	757.465
210.577	25.617	934.609	756.553
211.592	26.086	934.025	757.988
212.607	25.929	933.560	756.881
213.621	25.967	932.880	756.423
214.636	25.968	932.058	755.693
215.650	25.900	931.175	754.627
216.665	26.014	931.014	754.908
217.680	25.992	929.982	753.909
218.694	25.478	929.101	750.983
219.709	25.326	928.347	749.671
220.723	25.733	927.888	750.933
221.738	25.813	927.486	750.873
222.753	25.713	926.894	749.913
223.767	25.876	926.184	749.948
224.782	26.227	925.820	751.049
225.796	26.055	925.293	749.841
226.811	25.436	923.849	746.035
227.826	24.718	922.690	742.055
228.840	24.872	922.424	742.412
229.855	25.044	921.438	742.267
230.869	24.610	920.384	739.556
231.884	25.079	920.468	741.498
232.899	25.795	920.643	744.535
233.913	25.564	919.831	742.856
234.928	25.765	918.851	742.832
235.942	25.579	918.914	742.049
236.957	25.141	918.174	739.578
237.972	25.323	917.202	739.479
238.986	25.489	916.329	739.392
240.001	25.460	916.026	738.964
241.015	25.441	915.777	738.618
242.030	25.795	915.164	739.514
243.045	25.768	914.754	739.008
244.059	25.866	914.520	739.154
245.074	25.702	913.283	737.416
246.088	25.437	912.417	735.567
247.103	25.750	911.985	736.434
248.117	26.164	912.387	738.386
249.132	26.508	911.591	739.086
250.147	26.558	911.161	738.873
251.161	26.755	910.634	739.186
252.176	26.625	909.931	738.017
253.190	26.690	909.734	738.059
254.205	26.752	909.243	737.849
255.220	26.784	908.457	737.276
256.234	26.744	907.310	736.115
257.249	26.642	906.810	735.231
258.263	26.602	906.326	734.613
259.278	26.662	905.276	733.938
260.293	26.762	904.664	733.783
261.307	26.591	904.279	732.711
262.322	26.445	903.447	731.382
263.336	25.697	901.629	726.826
264.351	24.845	899.062	721.262
265.366	24.788	899.538	721.352
266.380	25.850	899.968	725.912
267.395	26.216	899.920	727.283
268.409	26.258	899.211	726.816
269.424	26.469	898.400	726.946
270.439	26.526	898.108	726.872
271.453	26.474	897.685	726.258
272.468	26.668	897.455	726.785
273.482	26.669	896.810	726.204
274.497	26.282	895.251	723.327
275.512	25.933	894.549	721.300
276.526	26.278	894.776	722.797
277.541	26.418	894.296	722.908
278.555	26.319	893.192	721.553
279.570	26.319	892.462	720.901
280.585	26.415	891.848	720.726
281.599	26.253	891.423	719.671
282.614	25.717	890.110	716.414
283.628	25.765	889.429	715.995
284.643	26.080	888.844	716.711
285.657	25.797	888.115	714.936
286.672	25.408	887.428	712.777
287.687	25.896	887.496	714.705
288.701	26.032	886.381	714.283
289.716	25.815	885.749	712.851
290.730	25.700	884.940	711.683
291.745	25.478	884.078	710.050
292.760	25.698	883.881	710.699
293.774	26.672	884.533	715.005
294.789	27.057	884.215	716.202
295.803	26.927	884.015	715.467
296.818	27.105	883.129	715.388
297.833	26.628	881.764	712.342
298.847	26.458	881.240	711.188
299.862	26.688	881.114	711.926
300.876	27.058	880.780	713.048
301.891	26.931	880.091	711.927
302.906	26.586	878.655	709.353
303.920	26.719	878.847	709.964
304.935	26.935	878.751	710.670
305.949	26.883	878.146	709.915
306.964	26.629	877.143	708.049
307.979	26.714	876.409	707.726
308.993	27.138	876.578	709.453
310.008	27.084	876.015	708.724
311.022	26.759	875.160	706.702
312.037	26.699	874.248	705.670
313.052	26.518	873.023	703.918
314.066	25.504	871.939	699.040
315.081	25.251	870.820	697.097
316.095	26.132	871.396	700.918
317.110	26.699	871.135	702.846
318.125	25.725	869.670	697.831
319.139	24.718	868.108	692.615
320.154	24.653	868.025	692.236
321.168	25.574	868.210	695.888
322.183	26.332	868.135	698.697
323.197	26.595	868.099	699.626
324.212	26.792	867.606	699.925
325.227	26.864	866.836	699.522
326.241	26.637	865.967	697.882
327.256	26.597	865.658	697.416
328.270	26.478	864.664	696.097
329.285	26.315	864.030	694.899
330.300	26.093	863.105	693.241
331.314	26.341	863.180	694.192
332.329	26.787	863.097	695.775
333.343	26.944	862.978	696.222
334.358	26.858	862.300	695.281
335.373	26.858	862.217	695.154
336.387	27.108	861.938	695.826
337.402	27.313	861.738	696.387
338.416	27.223	861.430	695.732
339.431	27.383	860.982	695.921
340.446	27.524	860.590	696.079
341.460	27.365	860.085	695.005
342.475	27.060	859.778	693.531
343.489	27.237	859.109	693.604
344.504	27.545	859.116	694.722
345.519	27.762	858.469	694.965
346.533	27.842	857.863	694.717
347.548	27.786	857.402	694.069
348.562	27.719	856.894	693.341
349.577	27.575	856.404	692.336
350.592	27.660	855.584	691.937
351.606	27.451	855.238	690.802
352.621	27.442	854.553	690.153
353.635	27.272	853.395	688.513
354.650	26.788	851.715	685.269
355.665	25.740	850.152	679.993
356.679	26.263	850.031	681.811
357.694	26.628	849.855	682.986
358.708	26.677	848.972	682.402
359.723	26.924	849.043	683.330
360.738	27.242	848.670	684.166
361.752	27.448	848.133	684.445
362.767	27.762	847.827	685.318
363.781	27.905	847.700	685.691
364.796	28.211	846.683	685.952
365.810	28.036	846.992	685.486
366.825	27.927	846.665	684.754
367.840	27.771	845.558	683.212
368.854	27.314	844.360	680.478
369.869	27.346	843.932	680.191
370.883	27.444	843.828	680.413
371.898	27.343	843.046	679.347
372.913	27.453	843.200	679.821
373.927	27.445	842.825	679.429
374.942	27.473	842.729	679.395
375.956	27.683	842.010	679.538
376.971	27.819	841.728	679.757
377.986	28.159	841.032	680.399
379.000	27.921	840.518	679.038
380.015	27.892	839.668	678.182
381.029	27.884	839.163	677.688
382.044	27.818	839.005	677.255
383.059	28.072	838.083	677.390
384.073	28.027	837.618	676.788
385.088	28.050	836.788	676.142
386.102	27.691	836.565	674.574
387.117	27.583	835.894	673.575
388.132	27.158	834.948	671.186
389.146	27.034	833.242	669.295
390.161	27.281	833.541	670.389
391.175	27.598	833.838	671.737
392.190	27.413	832.401	669.837
393.205	25.915	830.631	662.852
394.219	24.460	828.652	655.872
395.234	24.307	828.509	655.138
396.248	25.964	829.623	662.051
397.263	27.543	830.605	668.575
398.278	27.400	830.349	667.784
399.292	27.155	829.707	666.310
400.307	27.157	828.798	665.531
401.321	27.285	828.646	665.817
402.336	27.775	828.301	667.273
403.350	28.086	828.888	668.826
404.365	28.307	828.450	669.220
405.380	28.670	828.127	670.223
406.394	28.734	827.483	669.877
407.409	28.589	826.848	668.775
408.423	28.589	826.623	668.534
409.438	28.717	826.221	668.616
410.453	28.669	825.921	668.139
411.467	28.581	825.123	667.114
412.482	28.677	824.799	667.142
413.496	28.778	824.181	666.952
414.511	28.708	824.105	666.575
415.526	28.912	823.590	666.840
416.540	28.684	822.517	665.087
417.555	28.340	822.298	663.606
418.569	28.520	821.403	663.477
419.584	28.304	821.217	662.485
420.599	28.270	820.430	661.668
421.613	95.043	1266.173	1376.306
422.628	81.909	1331.128	1376.426
