DTS Sentinel unit serial number:	SN413079Multiplexer serial number:	ORYXHardware model number:	OX4-SRSoftware version number:	ORYX F/W v4.00 Oryx Data Collector v3.7.2.0data status	okinstallation	princeton_trtdifferential loss correction	single-endedforward channel	channel 1reverse channel	N/Adate	2019/09/16time	16:18:35forward acquisition time	60.00reverse acquisition time	0.00gamma	496.2192k internal	0.2293k external	0.2293temperature offset calibration	0.9961default loss term (dB/km)	0.3790temperature slope calibration	1.0000multiplexer offset coefficient	1.0000multiplexer slope coefficient	1.0000fibre end	0.00T internal ref (°C)	40.56T ext. ref 1 (°C)	15.01T ext. ref 2 (°C)	34.56length (m)	temperature (°C)	Stokes	anti-Stokes-747.200	-40.564	-0.263	-0.140
-746.185	474.358	-0.088	0.204
-745.171	-80.291	0.233	-0.080
-744.156	-35.321	-0.137	0.076
-743.142	-2.173	-0.227	-0.163
-742.127	-34.596	0.182	0.102
-741.112	800.000	-0.044	-0.131
-740.098	-96.174	0.333	-0.090
-739.083	192.827	-0.083	-0.128
-738.069	800.000	0.076	0.253
-737.054	-200.000	-0.004	0.030
-736.039	46.669	-0.124	0.118
-735.025	-125.289	0.321	0.050
-734.010	44.892	0.091	-0.086
-732.996	80.937	0.131	-0.144
-731.981	-200.000	-0.035	0.160
-730.966	-119.334	-0.186	-0.033
-729.952	71.446	-0.056	0.059
-728.937	60.163	-0.132	-0.134
-727.923	-200.000	0.024	-0.140
-726.908	123.844	0.219	-0.281
-725.894	-31.354	-0.378	-0.217
-724.879	205.400	0.197	-0.312
-723.864	629.229	0.102	0.263
-722.850	-200.000	-0.025	-0.226
-721.835	-124.890	-0.299	-0.047
-720.821	800.000	-0.070	0.272
-719.806	-101.529	-0.172	0.043
-718.791	3.067	-0.206	0.153
-717.777	-28.410	0.154	0.091
-716.762	102.593	-0.179	-0.214
-715.748	489.095	0.168	-0.392
-714.733	-45.094	-0.205	0.104
-713.718	53.782	0.180	0.177
-712.704	-200.000	0.001	0.241
-711.689	769.580	0.056	0.155
-710.675	-200.000	0.023	-0.146
-709.660	251.189	-0.117	-0.204
-708.645	-156.482	-0.177	0.011
-707.631	-166.410	-0.280	0.012
-706.616	104.959	-0.161	-0.195
-705.602	-1.006	-0.230	-0.166
-704.587	-66.154	0.172	0.070
-703.572	800.000	-0.084	-0.300
-702.558	-200.000	0.022	-0.156
-701.543	800.000	-0.001	-0.003
-700.529	-154.663	-0.424	-0.029
-699.514	-137.002	-0.139	0.016
-698.499	-96.332	-0.269	-0.073
-697.485	-200.000	-0.049	-0.239
-696.470	174.698	0.074	-0.109
-695.456	-104.775	-0.119	0.028
-694.441	316.099	-0.052	-0.100
-693.426	800.000	0.048	0.164
-692.412	-36.421	0.271	0.149
-691.397	-99.474	-0.350	-0.090
-690.383	71.270	-0.040	-0.042
-689.368	-84.565	-0.293	-0.094
-688.354	323.020	0.057	-0.110
-687.339	-134.234	0.319	-0.040
-686.324	-131.156	-0.358	0.049
-685.310	12.321	-0.102	-0.080
-684.295	-62.040	0.135	-0.057
-683.281	-79.964	0.128	-0.044
-682.266	-200.000	-0.018	-0.208
-681.251	224.803	-0.151	0.249
-680.237	800.000	-0.112	0.389
-679.222	39.733	-0.325	0.298
-678.208	677.171	-0.135	-0.359
-677.193	33.514	0.090	-0.080
-676.178	-77.930	-0.127	-0.045
-675.164	19.338	-0.042	-0.034
-674.149	134.627	-0.210	-0.278
-673.135	36.772	-0.153	-0.138
-672.120	18.867	-0.168	-0.137
-671.105	97.305	0.143	-0.168
-670.091	800.000	0.134	-0.452
-669.076	-200.000	0.014	-0.064
-668.062	-200.000	-0.074	-0.335
-667.047	800.000	-0.057	-0.161
-666.032	-200.000	0.008	-0.133
-665.018	338.841	-0.138	0.275
-664.003	-115.588	-0.043	-0.008
-662.989	-82.261	-0.272	-0.090
-661.974	-200.000	0.015	0.146
-660.959	-73.276	0.029	0.011
-659.945	-19.935	-0.247	-0.156
-658.930	481.783	-0.121	0.280
-657.916	95.641	0.179	-0.208
-656.901	264.805	0.034	-0.060
-655.886	-51.701	-0.219	-0.104
-654.872	-200.000	0.022	0.147
-653.857	619.682	0.064	-0.165
-652.843	800.000	-0.163	-0.498
-651.828	-177.502	-0.333	-0.008
-650.814	223.404	-0.170	-0.279
-649.799	-200.000	-0.062	0.297
-648.784	-84.387	-0.063	-0.020
-647.770	800.000	0.125	0.361
-646.755	-131.146	-0.196	-0.027
-645.741	-48.446	-0.345	-0.169
-644.726	37.550	0.185	0.167
-643.711	800.000	-0.060	-0.170
-642.697	-49.340	0.080	0.039
-641.682	70.556	-0.134	0.142
-640.668	-69.753	0.182	0.071
-639.653	437.923	-0.045	-0.099
-638.638	-64.341	0.305	-0.127
-637.624	-121.619	-0.189	0.032
-636.609	-119.753	-0.059	-0.010
-635.595	-89.688	-0.049	-0.015
-634.580	-138.285	-0.076	0.009
-633.565	-200.000	0.003	-0.038
-632.551	129.772	0.022	0.029
-631.536	-65.903	-0.358	-0.146
-630.522	220.021	-0.149	0.243
-629.507	-200.000	-0.026	0.283
-628.492	35.846	0.281	0.252
-627.478	-200.000	-0.023	-0.281
-626.463	161.142	-0.240	-0.342
-625.449	40.668	-0.123	-0.113
-624.434	-200.000	-0.019	0.212
-623.419	-165.286	0.212	0.010
-622.405	726.497	0.017	-0.045
-621.390	-124.548	0.190	0.030
-620.376	-165.577	-0.080	0.004
-619.361	253.982	0.219	-0.381
-618.346	80.766	-0.121	-0.133
-617.332	60.579	0.109	0.110
-616.317	-200.000	0.004	0.055
-615.303	-66.654	-0.119	0.048
-614.288	-200.000	-0.010	-0.144
-613.273	-26.367	0.408	-0.244
-612.259	-200.000	-0.022	0.143
-611.244	800.000	-0.133	0.404
-610.230	-200.000	0.019	0.097
-609.215	-56.924	0.154	-0.069
-608.201	230.225	-0.111	0.185
-607.186	366.268	-0.056	-0.115
-606.171	-17.383	0.213	-0.136
-605.157	-73.282	-0.019	-0.007
-604.142	50.542	0.188	0.181
-603.128	81.964	-0.135	-0.148
-602.113	-91.357	-0.141	-0.041
-601.098	371.195	-0.074	-0.152
-600.084	-56.867	0.229	0.103
-599.069	-114.297	0.151	-0.030
-598.055	-104.410	0.151	-0.036
-597.040	353.563	0.073	-0.147
-596.025	-34.150	0.146	-0.082
-595.011	-71.297	0.274	-0.105
-593.996	800.000	-0.013	-0.058
-592.982	-57.414	0.596	0.266
-591.967	112.735	-0.121	0.148
-590.952	-158.815	-0.455	-0.026
-589.938	-200.000	-0.017	0.223
-588.923	44.000	-0.188	0.175
-587.909	16.616	-0.285	0.229
-586.894	-49.569	-0.245	0.118
-585.879	-200.000	-0.016	0.244
-584.865	-151.789	0.151	-0.011
-583.850	-200.000	-0.003	-0.022
-582.836	131.563	-0.175	-0.229
-581.821	27.719	-0.199	0.170
-580.806	-52.310	-0.202	-0.095
-579.792	279.095	-0.065	-0.119
-578.777	-126.787	-0.220	0.033
-577.763	-158.835	-0.136	-0.008
-576.748	-74.635	0.406	0.148
-575.733	-32.310	-0.137	-0.078
-574.719	800.000	0.099	0.280
-573.704	211.682	-0.226	0.362
-572.690	-106.257	-0.113	0.026
-571.675	-200.000	-0.033	-0.176
-570.661	-5.288	0.112	0.078
-569.646	197.259	0.061	-0.095
-568.631	-31.905	0.334	0.190
-567.617	188.974	-0.183	0.278
-566.602	433.900	0.099	-0.218
-565.588	83.651	0.204	0.226
-564.573	800.000	-0.090	-0.372
-563.558	-75.427	-0.215	-0.078
-562.544	-127.022	0.380	0.057
-561.529	532.066	-0.083	0.199
-560.515	355.281	0.168	-0.339
-559.500	281.194	-0.071	-0.130
-558.485	-56.293	0.382	-0.173
-557.471	-33.009	-0.122	-0.069
-556.456	-111.831	-0.121	0.025
-555.442	800.000	0.093	0.291
-554.427	-174.185	-0.060	0.002
-553.412	-200.000	-0.016	-0.364
-552.398	-35.248	-0.276	0.153
-551.383	182.997	0.032	-0.047
-550.369	-19.549	0.148	-0.093
-549.354	-117.000	-0.196	-0.036
-548.339	620.390	-0.062	-0.157
-547.325	85.327	-0.240	0.268
-546.310	-200.000	0.027	-0.155
-545.296	-63.827	0.276	-0.115
-544.281	-78.941	-0.214	-0.074
-543.266	127.271	0.313	0.403
-542.252	800.000	-0.058	0.169
-541.237	-200.000	0.017	-0.140
-540.223	528.329	-0.077	0.184
-539.208	-101.970	-0.101	0.025
-538.193	-157.582	0.232	0.014
-537.179	57.825	-0.073	-0.072
-536.164	146.249	0.171	0.233
-535.150	-147.519	0.258	0.022
-534.135	500.581	-0.078	-0.183
-533.121	-107.163	-0.166	-0.037
-532.106	-200.000	0.007	-0.144
-531.091	-200.000	0.023	-0.143
-530.077	499.226	-0.106	0.248
-529.062	-130.595	-0.281	-0.038
-528.048	259.827	0.081	-0.142
-527.033	-200.000	-0.028	-0.199
-526.018	-96.912	-0.168	0.045
-525.004	5.233	0.186	0.139
-523.989	-200.000	-0.003	-0.217
-522.975	800.000	-0.030	0.105
-521.960	-170.805	0.192	0.007
-520.945	800.000	0.031	-0.116
-519.931	-17.923	-0.536	0.341
-518.916	-17.869	0.397	-0.252
-517.902	800.000	0.113	-0.326
-516.887	114.561	-0.163	-0.201
-515.872	-134.072	0.163	-0.020
-514.858	-66.175	0.144	-0.058
-513.843	-89.092	-0.289	0.087
-512.829	-59.936	0.311	0.135
-511.814	396.838	0.182	0.385
-510.799	-23.484	-0.272	0.165
-509.785	-200.000	-0.008	-0.197
-508.770	-104.955	-0.479	-0.111
-507.756	-83.300	-0.182	-0.059
-506.741	-141.423	0.140	0.014
-505.726	3.866	0.139	-0.103
-504.712	-38.327	0.150	-0.081
-503.697	-200.000	0.010	0.241
-502.683	-49.016	0.074	-0.036
-501.668	289.311	0.057	-0.105
-500.653	-25.750	0.202	0.121
-499.639	100.014	-0.130	0.153
-498.624	-156.971	0.046	-0.003
-497.610	-200.000	0.007	0.139
-496.595	262.856	-0.086	0.151
-495.581	265.424	-0.096	0.170
-494.566	92.320	-0.093	-0.106
-493.551	-94.953	0.200	-0.055
-492.537	114.741	-0.074	-0.091
-491.522	-47.381	0.414	-0.204
-490.508	377.189	0.044	-0.091
-489.493	38.275	0.253	-0.228
-488.478	205.828	-0.158	0.249
-487.464	-89.937	0.347	0.103
-486.449	101.751	0.213	-0.252
-485.435	391.160	0.228	0.479
-484.420	-8.542	-0.270	-0.183
-483.405	409.063	0.036	-0.078
-482.391	-34.947	-0.070	0.039
-481.376	3.795	0.291	-0.215
-480.362	144.235	-0.081	0.110
-479.347	238.520	-0.128	0.215
-478.332	800.000	-0.028	0.100
-477.318	-160.641	-0.171	-0.009
-476.303	-200.000	0.054	-0.299
-475.289	77.427	-0.244	0.263
-474.274	-44.012	0.241	-0.122
-473.259	-13.832	-0.083	-0.054
-472.245	-17.142	-0.331	-0.211
-471.230	70.526	-0.139	-0.146
-470.216	41.843	-0.305	0.280
-469.201	71.143	0.148	-0.155
-468.186	346.504	-0.086	-0.171
-467.172	-33.176	-0.151	0.085
-466.157	-50.113	-0.030	-0.014
-465.143	-152.139	0.402	0.030
-464.128	621.836	0.035	-0.089
-463.113	377.295	0.106	0.220
-462.099	-7.703	0.483	0.330
-461.084	225.896	-0.099	0.163
-460.070	-41.783	-0.077	0.040
-459.055	800.000	-0.006	-0.019
-458.040	-200.000	-0.050	0.255
-457.026	-32.979	-0.083	0.047
-456.011	-67.601	0.231	-0.091
-454.997	-95.023	-0.247	-0.068
-453.982	800.000	0.039	-0.118
-452.968	492.418	0.073	0.168
-451.953	261.779	-0.082	0.144
-450.938	44.370	0.226	0.210
-449.924	-200.000	-0.066	-0.000
-448.909	-114.460	-0.288	0.056
-447.895	-24.716	-0.181	0.109
-446.880	-18.974	-0.116	-0.073
-445.865	632.448	0.021	-0.053
-444.851	-11.258	-0.337	0.225
-443.836	71.106	-0.053	0.055
-442.822	361.337	0.036	0.072
-441.807	800.000	-0.140	0.450
-440.792	116.518	0.207	0.257
-439.778	-56.302	-0.018	-0.008
-438.763	13.434	0.079	-0.062
-437.749	-200.000	-0.038	0.200
-436.734	-200.000	-0.010	0.116
-435.719	-200.000	-0.014	0.175
-434.705	288.293	-0.105	0.192
-433.690	538.317	0.173	-0.416
-432.676	277.080	-0.061	0.110
-431.661	-162.223	0.170	0.009
-430.646	-99.289	0.344	-0.088
-429.632	-125.000	0.176	-0.027
-428.617	421.479	-0.043	-0.093
-427.603	220.106	-0.195	0.315
-426.588	-200.000	-0.004	0.338
-425.573	800.000	0.006	-0.018
-424.559	-151.968	0.403	-0.030
-423.544	-39.311	-0.269	-0.143
-422.530	564.817	0.127	0.311
-421.515	52.216	-0.268	-0.258
-420.500	-151.614	0.207	0.015
-419.486	-178.162	0.226	-0.005
-418.471	-52.122	0.168	0.079
-417.457	-60.362	0.121	-0.052
-416.442	-200.000	-0.026	-0.271
-415.428	-200.000	-0.030	0.390
-414.413	-200.000	-0.038	-0.205
-413.398	-41.531	0.185	0.096
-412.384	800.000	-0.063	0.203
-411.369	155.026	-0.254	0.352
-410.355	-172.848	-0.326	-0.010
-409.340	-66.036	-0.242	-0.098
-408.325	-48.344	-0.051	-0.025
-407.311	-18.360	0.219	0.138
-406.296	-63.574	-0.233	0.097
-405.282	244.816	0.060	0.101
-404.267	-40.160	0.239	0.126
-403.252	5.438	-0.159	-0.119
-402.238	-200.000	0.005	0.132
-401.223	-187.383	0.369	0.005
-400.209	-162.493	0.467	0.023
-399.194	800.000	-0.040	0.160
-398.179	-200.000	0.022	-0.210
-397.165	-6.794	-0.246	0.169
-396.150	175.454	0.101	0.148
-395.136	132.718	0.147	0.192
-394.121	689.471	-0.093	0.245
-393.106	-111.997	-0.255	0.052
-392.092	-4.490	-0.145	0.101
-391.077	33.581	-0.318	-0.279
-390.063	-89.154	-0.324	-0.097
-389.048	-16.658	-0.099	0.064
-388.033	355.908	0.144	0.289
-387.019	226.226	0.031	-0.050
-386.004	-26.973	-0.219	0.129
-384.990	43.435	-0.163	-0.150
-383.975	800.000	0.037	-0.151
-382.960	35.455	0.139	-0.123
-381.946	-200.000	-0.011	0.069
-380.931	88.520	0.239	0.268
-379.917	-200.000	0.017	-0.134
-378.902	-95.522	0.110	0.030
-377.888	136.032	0.197	0.259
-376.873	-200.000	0.004	0.089
-375.858	103.318	-0.202	-0.239
-374.844	-200.000	-0.003	-0.036
-373.829	-78.085	-0.125	-0.043
-372.815	-177.024	0.298	0.008
-371.800	47.902	-0.172	0.162
-370.785	-20.364	-0.319	-0.198
-369.771	134.092	0.254	0.331
-368.756	50.556	-0.172	-0.164
-367.742	-81.185	-0.225	-0.075
-366.727	-40.846	-0.081	0.042
-365.712	-28.090	-0.071	-0.042
-364.698	-124.556	0.130	0.020
-363.683	139.994	-0.140	-0.186
-362.669	-200.000	0.481	0.000
-361.654	35.232	-0.169	-0.149
-360.639	800.000	0.024	0.084
-359.625	-200.000	-0.006	0.453
-358.610	628.122	0.063	0.160
-357.596	-118.225	-0.300	-0.054
-356.581	-200.000	0.013	0.439
-355.566	-125.301	-0.475	0.073
-354.552	-59.894	0.159	0.068
-353.537	0.490	0.180	-0.130
-352.523	-114.053	0.186	0.036
-351.508	193.647	0.068	-0.103
-350.493	800.000	-0.054	0.166
-349.479	111.217	0.090	-0.110
-348.464	-28.492	0.262	0.152
-347.450	257.846	0.137	-0.238
-346.435	-30.041	0.030	-0.017
-345.420	-200.000	-0.002	0.090
-344.406	-117.623	-0.170	-0.031
-343.391	763.161	-0.030	0.083
-342.377	800.000	-0.074	-0.263
-341.362	-167.032	0.260	0.011
-340.348	-140.158	0.161	0.017
-339.333	-112.125	0.087	-0.018
-338.318	13.590	0.277	-0.217
-337.304	800.000	0.052	-0.153
-336.289	648.781	-0.044	0.114
-335.275	19.522	0.068	0.055
-334.260	-200.000	-0.003	0.032
-333.245	43.224	0.101	0.093
-332.231	-200.000	0.006	0.124
-331.216	452.356	0.079	0.175
-330.202	231.397	-0.129	0.212
-329.187	800.000	0.036	-0.145
-328.172	-5.809	0.122	0.084
-327.158	-183.503	-0.102	-0.002
-326.143	255.466	-0.201	0.347
-325.129	-58.911	0.205	-0.089
-324.114	525.010	0.069	-0.164
-323.099	-200.000	-0.027	0.185
-322.085	130.377	-0.206	0.265
-321.070	56.148	-0.273	0.267
-320.056	-200.000	0.015	-0.067
-319.041	174.441	-0.062	0.090
-318.026	-35.041	0.289	-0.159
-317.012	150.870	0.041	-0.056
-315.997	523.186	0.074	-0.174
-314.983	51.872	0.101	0.097
-313.968	800.000	0.039	-0.148
-312.953	-137.993	-0.028	-0.003
-311.939	-169.915	0.267	0.010
-310.924	-200.000	0.011	-0.242
-309.910	-21.180	0.192	-0.118
-308.895	800.000	-0.049	0.161
-307.880	95.458	-0.186	0.213
-306.866	127.200	-0.372	0.475
-305.851	-200.000	0.028	-0.144
-304.837	41.605	0.306	-0.279
-303.822	-80.254	0.210	0.070
-302.807	60.222	-0.141	-0.140
-301.793	-18.925	0.267	-0.167
-300.778	800.000	0.092	-0.353
-299.764	-39.344	-0.153	0.081
-298.749	800.000	-0.019	0.059
-297.735	135.408	-0.221	0.288
-296.720	139.834	0.110	-0.146
-295.705	-191.704	-0.242	-0.002
-294.691	-200.000	-0.013	-0.223
-293.676	800.000	-0.031	-0.096
-292.662	-52.845	-0.270	-0.125
-291.647	-129.201	0.317	-0.044
-290.632	-126.027	-0.200	0.030
-289.618	156.374	-0.146	-0.203
-288.603	-88.535	-0.085	0.026
-287.589	-200.000	0.007	-0.170
-286.574	-200.000	-0.050	-0.452
-285.559	-196.191	-0.165	0.001
-284.545	-6.859	0.089	0.061
-283.530	476.034	0.091	0.206
-282.516	12.467	-0.195	-0.151
-281.501	-200.000	-0.014	-0.179
-280.486	-87.409	0.280	0.085
-279.472	-200.000	-0.066	-0.335
-278.457	-200.000	-0.022	-0.363
-277.443	322.805	-0.127	-0.243
-276.428	-57.252	-0.113	0.050
-275.413	2.972	0.190	-0.138
-274.399	-200.000	0.017	0.094
-273.384	-200.000	-0.022	0.124
-272.370	-200.000	0.007	-0.067
-271.355	-50.500	-0.440	-0.209
-270.340	800.000	-0.123	-0.438
-269.326	-40.792	0.190	0.099
-268.311	-200.000	-0.016	0.185
-267.297	-200.000	-0.013	0.059
-266.282	92.447	-0.120	0.136
-265.267	-52.223	0.161	-0.075
-264.253	800.000	0.007	0.019
-263.238	311.796	-0.080	0.150
-262.224	15.152	0.129	-0.101
-261.209	-92.530	-0.238	0.067
-260.195	-138.186	0.101	0.011
-259.180	209.050	0.160	-0.251
-258.165	296.851	-0.035	0.065
-257.151	-105.530	-0.291	-0.066
-256.136	-58.449	-0.129	-0.056
-255.122	-200.000	-0.019	0.170
-254.107	-130.318	-0.372	-0.051
-253.092	21.275	0.064	0.052
-252.078	-200.000	-0.012	-0.117
-251.063	-200.000	-0.010	0.119
-250.049	-200.000	0.087	-0.474
-249.034	132.123	0.160	-0.207
-248.019	81.817	-0.098	0.106
-247.005	-200.000	0.016	-0.237
-245.990	64.959	0.148	-0.150
-244.976	20.797	-0.396	0.321
-243.961	-200.000	0.171	0.001
-242.946	-0.359	0.165	-0.118
-241.932	-152.907	-0.069	-0.005
-240.917	-72.983	-0.170	0.063
-239.903	14.719	0.187	-0.147
-238.888	-99.510	0.290	-0.073
-237.873	29.478	-0.093	0.079
-236.859	-5.195	-0.151	-0.104
-235.844	-24.945	-0.171	-0.102
-234.830	800.000	0.033	-0.139
-233.815	-128.499	0.235	0.033
-232.800	-96.103	-0.307	-0.082
-231.786	178.841	0.150	0.220
-230.771	-45.152	0.229	-0.114
-229.757	0.739	-0.379	-0.272
-228.742	-109.342	0.196	-0.042
-227.727	137.736	0.269	-0.353
-226.713	-200.000	-0.050	-0.597
-225.698	800.000	0.038	-0.150
-224.684	185.582	0.304	-0.452
-223.669	364.502	0.125	-0.252
-222.655	-200.000	0.029	-0.136
-221.640	-200.000	-0.021	-0.200
-220.625	800.000	-0.082	-0.233
-219.611	-200.000	-0.001	0.141
-218.596	-162.507	0.277	-0.014
-217.582	-43.137	0.241	0.122
-216.567	3.671	0.182	0.133
-215.552	74.521	0.125	-0.132
-214.538	-200.000	-0.014	-0.090
-213.523	-200.000	0.001	0.033
-212.509	-183.444	0.190	-0.003
-211.494	-68.073	-0.174	-0.068
-210.479	-200.000	0.027	0.180
-209.465	110.239	-0.236	0.284
-208.450	-200.000	-0.019	-0.185
-207.436	-51.435	0.074	0.035
-206.421	-80.308	-0.211	0.070
-205.406	21.469	-0.123	-0.100
-204.392	322.314	-0.079	-0.151
-203.377	-200.000	0.009	0.168
-202.363	206.033	-0.050	0.078
-201.348	108.497	0.111	0.133
-200.333	193.669	-0.109	-0.166
-199.319	-99.708	-0.167	-0.042
-198.304	318.903	-0.214	-0.406
-197.290	-34.623	0.310	-0.170
-196.275	302.027	0.141	0.261
-195.260	146.201	-0.010	-0.014
-194.246	12.848	-0.315	0.244
-193.231	-149.309	0.279	0.022
-192.217	-200.000	-0.014	0.137
-191.202	-86.946	0.157	-0.048
-190.187	234.906	0.060	0.100
-189.173	-37.711	0.169	-0.090
-188.158	-80.957	0.343	0.114
-187.144	-185.819	-0.179	0.003
-186.129	800.000	0.071	-0.221
-185.114	-200.000	-0.026	0.210
-184.100	162.660	-0.132	-0.185
-183.085	277.853	0.246	0.438
-182.071	352.503	-0.025	0.049
-181.056	256.199	-0.100	-0.171
-180.042	106.013	-0.096	0.113
-179.027	205.557	-0.110	-0.170
-178.012	-62.091	-0.271	0.113
-176.998	34.089	0.033	0.029
-175.983	28.894	0.116	-0.099
-174.969	-60.159	0.202	0.086
-173.954	800.000	-0.056	-0.187
-172.939	186.220	-0.151	-0.224
-171.925	-200.000	-0.036	0.213
-170.910	-40.249	-0.212	-0.110
-169.896	800.000	-0.042	-0.142
-168.881	800.000	0.079	-0.226
-167.866	800.000	0.032	-0.109
-166.852	553.426	-0.037	0.090
-165.837	-4.222	0.052	-0.036
-164.823	260.043	-0.108	0.187
-163.808	-85.882	0.150	-0.046
-162.793	-15.421	-0.156	-0.100
-161.779	-76.627	0.085	0.030
-160.764	-200.000	-0.031	0.307
-159.750	800.000	0.128	-0.355
-158.735	52.584	-0.308	-0.294
-157.720	11.540	0.176	-0.135
-156.706	-140.750	-0.022	-0.002
-155.691	800.000	-0.100	-0.399
-154.677	-16.701	-0.111	0.070
-153.662	103.049	-0.078	0.091
-152.647	-87.732	-0.269	0.081
-151.633	514.004	0.058	0.136
-150.618	108.839	-0.041	0.049
-149.604	-43.368	0.323	-0.163
-148.589	93.354	0.034	0.039
-147.574	-119.634	-0.216	0.037
-146.560	-200.000	0.016	-0.079
-145.545	261.461	-0.153	-0.266
-144.531	-200.000	0.006	0.186
-143.516	-200.000	0.003	-0.260
-142.502	-83.944	-0.251	-0.080
-141.487	-87.600	-0.268	-0.081
-140.472	79.369	-0.185	-0.198
-139.458	-48.112	-0.091	0.044
-138.443	800.000	0.050	-0.214
-137.429	-16.491	-0.158	-0.100
-136.414	-96.723	0.107	-0.028
-135.399	800.000	-0.002	-0.008
-134.385	-151.355	0.132	0.010
-133.370	70.942	-0.173	-0.179
-132.356	766.934	-0.082	0.224
-131.341	539.311	0.071	0.168
-130.326	-85.227	0.256	-0.080
-129.312	-45.637	0.176	-0.087
-128.297	800.000	-0.011	0.041
-127.283	-100.854	-0.422	0.104
-126.268	800.000	0.051	0.216
-125.253	215.039	-0.104	0.164
-124.239	105.330	0.183	-0.216
-123.224	707.631	0.070	-0.185
-122.210	18.861	-0.119	-0.095
-121.195	333.808	-0.133	-0.256
-120.180	-18.571	-0.143	-0.089
-119.166	-200.000	0.032	-0.220
-118.151	114.986	0.055	0.067
-117.137	-19.459	-0.083	-0.051
-116.122	96.593	0.146	-0.166
-115.107	-134.329	-0.128	0.016
-114.093	-131.526	-0.217	-0.029
-113.078	168.882	-0.194	-0.276
-112.064	-200.000	-0.020	0.259
-111.049	7.509	0.211	0.158
-110.034	42.946	0.281	0.256
-109.020	-18.389	-0.168	0.104
-108.005	800.000	0.120	0.343
-106.991	-79.150	0.229	0.077
-105.976	515.269	0.038	0.090
-104.962	800.000	-0.045	-0.134
-103.947	-147.733	0.046	-0.004
-102.932	-188.881	-0.414	0.005
-101.918	800.000	0.069	-0.265
-100.903	800.000	0.070	-0.287
-99.889	8.329	0.114	-0.085
-98.874	485.916	0.151	-0.344
-97.859	-60.727	0.096	-0.041
-96.845	800.000	-0.021	-0.063
-95.830	-102.651	0.265	0.063
-94.816	8.882	-0.078	-0.058
-93.801	-200.000	0.000	-0.030
-92.786	-200.000	-0.018	-0.097
-91.772	-99.178	-0.013	-0.003
-90.757	744.006	0.032	-0.086
-89.743	-175.616	-0.176	-0.005
-88.728	-27.606	0.070	0.040
-87.713	233.005	-0.257	0.422
-86.699	-104.646	-0.276	0.063
-85.684	-11.001	0.056	-0.037
-84.670	-123.601	0.267	-0.042
-83.655	45.194	0.154	0.141
-82.640	-200.000	-0.006	-0.129
-81.626	-138.888	-0.267	-0.029
-80.611	58.100	-0.111	-0.108
-79.597	-102.228	-0.285	0.068
-78.582	-27.265	0.195	0.113
-77.567	11.587	-0.245	0.187
-76.553	629.982	0.049	-0.125
-75.538	-98.029	0.466	0.120
-74.524	-200.000	0.043	-0.348
-73.509	-140.517	-0.057	0.006
-72.494	-200.000	0.039	-0.362
-71.480	93.052	-0.242	-0.273
-70.465	-120.488	0.331	-0.056
-69.451	-200.000	-0.057	0.324
-68.436	582.553	0.113	0.275
-67.422	-200.000	0.009	0.254
-66.407	-140.182	0.426	0.045
-65.392	105.928	0.055	-0.065
-64.378	-164.873	0.062	0.003
-63.363	728.399	-0.094	0.251
-62.349	-47.698	0.118	0.057
-61.334	25.511	-0.767	-0.636
-60.319	-96.698	0.063	-0.017
-59.305	-200.000	0.073	-0.811
-58.290	800.000	0.232	0.962
-57.276	497.091	0.762	1.745
-56.261	-200.000	77.964	519.667
-55.246	529.055	1309.481	3078.213
-54.232	151.247	2530.079	3428.986
-53.217	115.758	2221.734	2706.261
-52.203	51.943	1677.719	1590.760
-51.188	44.185	1406.612	1284.801
-50.173	40.721	1361.370	1222.151
-49.159	58.945	1398.079	1368.808
-48.144	64.920	1416.886	1424.287
-47.130	44.644	1378.336	1261.620
-46.115	40.646	1361.862	1221.939
-45.100	40.303	1357.602	1215.962
-44.086	40.269	1355.071	1213.437
-43.071	40.266	1352.673	1211.227
-42.057	40.333	1350.006	1209.198
-41.042	40.348	1348.826	1208.188
-40.027	40.456	1346.922	1207.092
-39.013	40.429	1345.117	1205.260
-37.998	40.420	1343.159	1203.405
-36.984	40.497	1341.265	1202.123
-35.969	40.570	1339.475	1200.918
-34.954	40.710	1337.366	1199.825
-33.940	40.569	1336.380	1198.037
-32.925	40.662	1335.289	1197.575
-31.911	40.759	1333.392	1196.409
-30.896	40.669	1332.159	1194.717
-29.881	40.614	1330.834	1193.147
-28.867	40.643	1329.240	1191.844
-27.852	40.575	1327.730	1190.035
-26.838	40.751	1325.695	1189.223
-25.823	40.665	1324.507	1187.592
-24.809	40.576	1323.677	1186.271
-23.794	40.615	1322.038	1184.984
-22.779	40.647	1320.713	1183.944
-21.765	40.667	1319.161	1182.622
-20.750	40.648	1317.684	1181.136
-19.736	40.650	1316.000	1179.598
-18.721	40.529	1315.015	1177.948
-17.706	40.479	1314.436	1177.086
-16.692	40.493	1312.982	1175.819
-15.677	40.523	1312.077	1175.139
-14.663	40.538	1310.811	1174.051
-13.648	40.489	1309.936	1172.929
-12.633	40.511	1308.666	1171.876
-11.619	40.506	1307.989	1171.190
-10.604	40.533	1307.044	1170.460
-9.590	40.511	1306.150	1169.482
-8.575	40.510	1305.207	1168.585
-7.560	40.554	1304.283	1167.969
-6.546	40.395	1303.545	1166.329
-5.531	40.453	1302.859	1166.010
-4.517	40.407	1301.938	1164.866
-3.502	40.502	1300.753	1164.317
-2.487	40.549	1299.365	1163.307
-1.473	40.504	1295.695	1159.710
-0.458	38.976	1279.835	1136.633
0.556	32.799	1259.250	1088.909
1.571	28.095	1263.212	1064.924
2.586	26.665	1277.950	1068.822
3.600	25.548	1268.627	1054.383
4.615	22.814	1198.952	981.213
5.629	17.906	1126.343	896.018
6.644	15.276	1105.110	865.491
7.659	15.040	1102.232	861.941
8.673	14.841	1101.370	860.167
9.688	14.894	1099.593	858.975
10.702	15.286	1098.258	859.866
11.717	18.285	1102.419	878.465
12.731	21.223	1106.032	896.370
13.746	20.064	1102.247	887.293
14.761	17.795	1098.990	872.992
15.775	16.465	1096.910	864.466
16.790	15.434	1094.342	857.102
17.804	14.611	1092.994	851.771
18.819	14.233	1091.416	848.539
19.834	13.892	1090.623	846.114
20.848	13.672	1089.289	843.880
21.863	13.408	1088.588	841.920
22.877	13.210	1087.845	840.264
23.892	13.198	1087.205	839.638
24.907	13.141	1086.332	838.598
25.921	13.127	1085.351	837.696
26.936	13.272	1083.652	837.045
27.950	13.367	1082.852	836.835
28.965	13.518	1080.642	835.813
29.980	13.388	1079.490	834.192
30.994	13.500	1078.232	833.711
32.009	13.454	1077.376	832.745
33.023	13.543	1075.880	831.960
34.038	13.410	1074.803	830.389
35.053	13.299	1074.305	829.373
36.067	13.429	1073.002	828.943
37.082	13.223	1073.217	828.007
38.096	13.456	1071.837	828.032
39.111	13.522	1070.823	827.507
40.126	13.327	1069.862	825.719
41.140	13.313	1068.587	824.588
42.155	13.245	1067.056	822.999
43.169	13.226	1066.090	822.082
44.184	13.250	1065.074	821.346
45.199	13.190	1064.229	820.323
46.213	13.206	1062.983	819.372
47.228	13.305	1061.947	818.993
48.242	13.388	1060.718	818.382
49.257	13.352	1060.069	817.629
50.271	13.361	1059.453	817.127
51.286	13.442	1058.345	816.602
52.301	13.481	1057.176	815.816
53.315	13.308	1056.059	814.031
54.330	13.251	1054.901	812.787
55.344	13.324	1054.113	812.468
56.359	13.298	1053.147	811.522
57.374	13.189	1052.441	810.372
58.388	13.182	1051.446	809.502
59.403	13.071	1051.061	808.589
60.417	13.049	1050.501	807.977
61.432	13.100	1049.294	807.226
62.447	13.220	1048.141	806.855
63.461	13.095	1047.330	805.549
64.476	13.099	1046.442	804.815
65.490	13.026	1045.362	803.559
66.505	13.172	1045.022	803.938
67.520	13.214	1044.367	803.564
68.534	13.269	1043.742	803.280
69.549	13.027	1043.122	801.560
70.563	13.096	1042.008	800.965
71.578	13.055	1041.306	800.155
72.593	12.995	1040.369	799.076
73.607	12.983	1039.566	798.330
74.622	13.073	1039.119	798.352
75.636	13.063	1038.234	797.554
76.651	13.102	1037.358	796.995
77.666	13.106	1036.787	796.504
78.680	13.089	1036.103	795.830
79.695	13.144	1035.854	795.834
80.709	13.194	1034.721	795.133
81.724	13.099	1034.508	794.440
82.739	13.300	1033.678	794.699
83.753	13.415	1032.632	794.379
84.768	13.310	1031.801	793.165
85.782	13.383	1031.040	792.859
86.797	13.470	1030.069	792.459
87.812	13.186	1029.241	790.392
88.826	13.295	1028.299	790.118
89.841	13.415	1027.033	789.649
90.855	13.425	1025.959	788.800
91.870	13.444	1025.390	788.387
92.884	13.409	1024.662	787.588
93.899	13.471	1023.667	787.047
94.914	13.476	1022.846	786.373
95.928	13.485	1021.830	785.565
96.943	13.473	1021.095	784.872
97.957	13.392	1020.435	783.914
98.972	13.375	1019.622	783.139
99.987	13.403	1018.494	782.337
101.001	13.486	1017.096	781.583
102.016	13.554	1016.317	781.237
103.030	13.450	1015.885	780.347
104.045	13.479	1014.694	779.496
105.060	13.457	1013.864	778.689
106.074	13.235	1013.141	777.019
107.089	13.230	1011.948	776.013
108.103	13.206	1010.870	775.006
109.118	13.213	1010.060	774.349
110.133	13.166	1009.524	773.647
111.147	13.191	1008.295	772.757
112.162	13.201	1007.396	772.043
113.176	13.359	1006.193	771.790
114.191	13.371	1005.468	771.222
115.206	13.347	1005.062	770.732
116.220	13.327	1004.410	770.068
117.235	13.225	1003.832	769.087
118.249	13.325	1002.881	768.750
119.264	13.189	1002.266	767.583
120.279	13.296	1001.189	767.185
121.293	13.340	1000.075	766.469
122.308	13.205	999.515	765.345
123.322	13.279	998.156	764.580
124.337	13.360	997.016	764.010
125.352	13.207	996.378	762.751
126.366	13.386	994.869	762.354
127.381	13.230	994.204	761.057
128.395	13.222	993.558	760.456
129.410	13.398	992.332	760.260
130.424	13.345	991.944	759.654
131.439	13.417	990.551	758.851
132.454	13.399	990.265	758.483
133.468	13.331	989.448	757.475
134.483	13.414	988.045	756.714
135.497	13.465	987.638	756.570
136.512	13.461	986.522	755.630
137.527	13.498	985.385	754.860
138.541	13.449	984.924	754.216
139.556	13.486	984.295	753.837
140.570	13.598	983.521	753.687
141.585	13.604	982.795	753.092
142.600	13.608	981.835	752.309
143.614	13.622	981.068	751.717
144.629	13.684	980.203	751.270
145.643	13.685	979.176	750.419
146.658	13.556	978.300	749.098
147.673	13.474	977.029	747.687
148.687	13.576	975.793	747.136
149.702	13.444	975.618	746.340
150.716	13.470	974.604	745.615
151.731	13.466	973.509	744.695
152.746	13.465	972.941	744.191
153.760	13.474	972.433	743.778
154.775	13.586	971.847	743.763
155.789	13.502	971.185	742.815
156.804	13.645	970.373	742.768
157.819	13.612	969.832	742.140
158.833	13.800	968.774	742.107
159.848	13.749	967.920	741.158
160.862	13.685	967.118	740.195
161.877	13.557	966.122	738.798
162.892	13.375	965.658	737.564
163.906	13.441	964.496	736.904
164.921	13.527	963.471	736.440
165.935	13.607	962.176	735.741
166.950	13.665	961.493	735.408
167.964	13.608	961.025	734.735
168.979	13.511	960.054	733.498
169.994	13.602	958.932	732.977
171.008	13.600	958.814	732.814
172.023	13.585	957.960	732.031
173.037	13.731	956.906	731.802
174.052	13.762	956.293	731.407
175.067	13.600	955.957	730.369
176.081	13.559	955.328	729.647
177.096	13.581	954.949	729.387
178.110	13.693	953.914	729.027
179.125	13.739	953.419	728.786
180.140	13.838	952.840	728.715
181.154	13.787	952.252	727.976
182.169	13.853	951.574	727.680
183.183	13.871	951.254	727.453
184.198	13.971	950.099	726.942
185.213	13.938	949.680	726.412
186.227	13.893	948.680	725.386
187.242	13.948	947.824	724.908
188.256	13.941	947.518	724.577
189.271	13.964	946.754	724.032
190.286	13.756	945.990	722.476
191.300	13.595	945.274	721.164
192.315	13.624	944.656	720.756
193.329	13.694	943.962	720.467
194.344	13.898	943.152	720.671
195.359	13.839	942.695	720.000
196.373	13.896	942.275	719.865
197.388	13.915	942.011	719.683
198.402	13.977	941.396	719.414
199.417	14.133	940.609	719.426
200.432	14.102	940.069	718.813
201.446	14.172	939.857	718.893
202.461	14.250	938.814	718.365
203.475	14.263	938.453	718.085
204.490	14.111	938.019	717.034
205.504	14.000	936.692	715.478
206.519	14.009	936.162	715.045
207.534	14.069	935.429	714.681
208.548	14.192	934.695	714.586
209.563	14.239	934.035	714.220
210.577	14.183	933.556	713.550
211.592	14.299	932.650	713.293
212.607	14.321	931.930	712.771
213.621	14.301	931.243	712.097
214.636	14.308	930.657	711.617
215.650	14.311	929.331	710.553
216.665	14.309	929.095	710.299
217.680	14.394	928.595	710.218
218.694	14.296	927.967	709.257
219.709	14.414	927.049	708.997
220.723	14.482	926.232	708.599
221.738	14.403	925.531	707.664
222.753	14.330	925.073	706.940
223.767	14.376	924.635	706.739
224.782	14.458	923.900	706.458
225.796	14.465	923.371	706.025
226.811	14.366	922.491	704.871
227.826	14.443	921.969	704.733
228.840	14.432	921.250	704.075
229.855	14.443	920.344	703.369
230.869	14.466	919.682	702.897
231.884	14.412	918.965	702.058
232.899	14.377	918.379	701.402
233.913	14.460	917.858	701.292
234.928	14.369	916.998	700.190
235.942	14.484	916.270	700.054
236.957	14.419	915.590	699.201
237.972	14.398	915.348	698.863
238.986	14.525	914.492	698.681
240.001	14.508	913.748	697.980
241.015	14.494	913.173	697.421
242.030	14.448	912.774	696.861
243.045	14.600	911.775	696.673
244.059	14.559	911.399	696.150
245.074	14.653	910.596	695.871
246.088	14.761	910.073	695.858
247.103	14.760	909.417	695.291
248.117	14.830	908.704	694.975
249.132	14.750	908.539	694.455
250.147	14.920	907.768	694.512
251.161	14.831	907.185	693.634
252.176	15.051	906.535	693.986
253.190	14.963	905.814	693.008
254.205	14.992	905.110	692.530
255.220	14.980	904.506	691.954
256.234	15.072	903.564	691.553
257.249	15.047	903.091	691.028
258.263	15.001	902.427	690.268
259.278	15.104	901.586	689.989
260.293	15.181	900.848	689.680
261.307	15.106	900.821	689.291
262.322	15.115	900.053	688.676
263.336	15.225	899.189	688.407
264.351	15.273	898.534	688.044
265.366	15.327	897.563	687.458
266.380	15.128	897.118	686.243
267.395	15.110	896.388	685.551
268.409	15.137	895.680	685.058
269.424	15.169	895.092	684.677
270.439	15.217	893.706	683.752
271.453	15.190	893.273	683.251
272.468	15.325	892.525	683.169
273.482	15.156	892.617	682.490
274.497	15.216	891.371	681.723
275.512	15.247	890.977	681.488
276.526	15.300	890.607	681.357
277.541	15.320	889.931	680.863
278.555	15.371	889.270	680.501
279.570	15.393	888.663	680.067
280.585	15.321	888.221	679.378
281.599	15.249	887.542	678.505
282.614	15.305	886.868	678.157
283.628	15.445	885.905	677.928
284.643	15.354	885.475	677.170
285.657	15.328	884.499	676.260
286.672	15.476	883.927	676.359
287.687	15.400	883.498	675.664
288.701	15.441	882.799	675.233
289.716	15.506	882.299	675.054
290.730	15.482	881.367	674.183
291.745	15.489	880.894	673.792
292.760	15.474	880.630	673.468
293.774	15.529	880.066	673.201
294.789	15.525	879.488	672.680
295.803	15.500	878.846	672.030
296.818	15.566	877.783	671.421
297.833	15.573	876.907	670.722
298.847	15.538	876.736	670.393
299.862	15.669	876.140	670.397
300.876	15.718	875.382	669.953
301.891	15.708	874.955	669.526
302.906	15.703	874.707	669.258
303.920	15.694	874.124	668.720
304.935	15.864	873.397	668.776
305.949	15.885	872.687	668.257
306.964	15.669	872.400	667.123
307.979	15.808	871.593	666.999
308.993	15.695	870.998	666.036
310.008	15.926	870.140	666.235
311.022	15.900	869.573	665.638
312.037	15.750	868.972	664.526
313.052	15.721	868.493	663.989
314.066	15.790	867.703	663.596
315.081	15.781	867.289	663.188
316.095	15.741	866.777	662.578
317.110	15.669	866.254	661.838
318.125	15.825	865.900	662.123
319.139	15.839	865.243	661.616
320.154	15.714	865.027	660.901
321.168	15.917	864.119	660.945
322.183	15.825	863.762	660.253
323.197	15.696	863.321	659.352
324.212	15.867	862.853	659.605
325.227	15.863	862.269	659.085
326.241	15.995	861.297	658.801
327.256	15.979	860.747	658.258
328.270	15.812	860.874	657.645
329.285	15.923	859.811	657.209
330.300	15.900	859.101	656.517
331.314	15.918	858.522	656.087
332.329	15.966	857.801	655.666
333.343	16.040	857.584	655.730
334.358	16.078	857.276	655.582
335.373	16.148	856.731	655.379
336.387	16.063	856.447	654.774
337.402	16.224	856.059	655.046
338.416	16.136	855.838	654.477
339.431	16.170	854.965	653.884
340.446	16.169	855.098	653.922
341.460	16.245	854.078	653.379
342.475	16.249	853.808	653.129
343.489	16.219	853.685	652.863
344.504	16.293	853.048	652.604
345.519	16.285	852.517	652.110
346.533	16.304	852.251	651.923
347.548	16.268	851.465	651.121
348.562	16.410	850.853	651.145
349.577	16.296	850.125	650.091
350.592	16.122	849.915	649.202
351.606	16.285	849.312	649.313
352.621	16.233	848.581	648.498
353.635	16.267	847.852	648.011
354.650	16.292	847.472	647.761
355.665	16.322	846.254	646.885
356.679	16.391	845.704	646.674
357.694	16.497	845.060	646.528
358.708	16.413	844.389	645.638
359.723	16.489	844.126	645.670
360.738	16.533	843.174	645.051
361.752	16.527	842.801	644.687
362.767	16.556	842.284	644.347
363.781	16.682	841.669	644.295
364.796	16.562	841.576	643.712
365.810	16.771	841.146	644.120
366.825	16.738	840.946	643.787
367.840	16.719	840.172	643.064
368.854	16.628	840.086	642.593
369.869	16.730	839.521	642.492
370.883	16.754	838.829	641.998
371.898	16.711	838.400	641.449
372.913	16.649	838.139	640.957
373.927	16.809	837.328	640.885
374.942	16.790	837.198	640.661
375.956	16.820	836.604	640.262
376.971	16.988	835.741	640.177
377.986	16.900	835.693	639.752
379.000	16.842	835.149	639.061
380.015	16.879	834.558	638.690
381.029	16.942	834.097	638.518
382.044	16.830	833.543	637.615
383.059	16.970	832.696	637.440
384.073	16.868	832.159	636.588
385.088	16.952	831.679	636.482
386.102	16.932	831.192	635.977
387.117	16.882	830.781	635.417
388.132	16.888	830.133	634.888
389.146	16.920	829.432	634.417
390.161	17.056	829.205	634.696
391.175	17.152	828.619	634.548
392.190	17.087	827.788	633.612
393.205	16.961	827.351	632.753
394.219	16.969	827.202	632.614
395.234	16.842	827.095	632.003
396.248	16.949	826.373	631.792
397.263	17.111	825.686	631.815
398.278	16.882	825.690	630.910
399.292	16.962	825.086	630.689
400.307	16.920	824.941	630.368
401.321	17.013	824.324	630.183
402.336	17.098	823.595	629.889
403.350	17.104	823.220	629.567
404.365	17.207	822.444	629.298
405.380	17.351	821.652	629.169
406.394	17.363	821.510	629.051
407.409	17.299	821.249	628.557
408.423	17.270	821.177	628.340
409.438	17.320	820.656	628.071
410.453	17.433	819.923	627.872
411.467	17.330	819.589	627.180
412.482	17.471	818.937	627.146
413.496	17.633	818.847	627.617
414.511	17.544	818.195	626.735
415.526	17.638	817.806	626.726
416.540	17.565	817.403	626.096
417.555	17.599	816.776	625.683
418.569	17.462	816.921	625.237
419.584	17.500	816.123	624.709
420.599	17.407	815.885	624.132
421.613	92.949	1269.196	1380.957
422.628	79.779	1335.256	1381.055
