DTS Sentinel unit serial number:	SN413079Multiplexer serial number:	ORYXHardware model number:	OX4-SRSoftware version number:	ORYX F/W v4.00 Oryx Data Collector v3.7.2.0data status	okinstallation	princeton_trtdifferential loss correction	single-endedforward channel	channel 1reverse channel	N/Adate	2019/09/11time	00:04:11forward acquisition time	60.00reverse acquisition time	0.00gamma	496.2192k internal	0.2331k external	0.2331temperature offset calibration	0.9938default loss term (dB/km)	0.3790temperature slope calibration	1.0000multiplexer offset coefficient	1.0000multiplexer slope coefficient	1.0000fibre end	0.00T internal ref (°C)	29.37T ext. ref 1 (°C)	-0.29T ext. ref 2 (°C)	22.93length (m)	temperature (°C)	Stokes	anti-Stokes-747.200	-91.128	0.372	0.108
-746.185	-74.115	-0.303	-0.110
-745.171	-100.937	0.210	-0.052
-744.156	-59.570	0.128	0.055
-743.142	1.221	-0.078	0.056
-742.127	105.807	0.131	0.156
-741.112	173.703	-0.069	-0.100
-740.098	-87.962	0.102	0.031
-739.083	-66.516	0.066	0.026
-738.069	800.000	0.090	0.381
-737.054	198.765	0.147	0.227
-736.039	-101.587	0.106	0.026
-735.025	66.530	0.142	0.145
-734.010	90.474	-0.376	-0.423
-732.996	-200.000	-0.025	-0.396
-731.981	-62.761	-0.015	0.006
-730.966	-200.000	0.045	-0.254
-729.952	618.651	0.093	-0.235
-728.937	70.784	-0.078	0.082
-727.923	27.675	-0.171	-0.145
-726.908	547.322	0.092	0.222
-725.894	-67.097	-0.113	0.045
-724.879	99.028	-0.184	0.213
-723.864	204.698	-0.089	-0.139
-722.850	-200.000	-0.004	0.128
-721.835	22.078	-0.235	-0.193
-720.821	-73.901	-0.242	0.088
-719.806	-16.975	0.189	0.120
-718.791	471.886	-0.062	-0.140
-717.777	-125.822	0.173	-0.026
-716.762	-200.000	-0.008	-0.035
-715.748	800.000	-0.081	-0.277
-714.733	200.050	0.111	-0.171
-713.718	-37.323	-0.047	-0.025
-712.704	279.377	0.107	-0.192
-711.689	-86.052	0.173	-0.054
-710.675	800.000	-0.022	0.062
-709.660	36.939	-0.142	0.126
-708.645	275.907	-0.028	-0.049
-707.631	-91.543	-0.194	0.055
-706.616	-200.000	0.008	-0.297
-705.602	-27.932	0.022	0.013
-704.587	-73.034	0.199	0.073
-703.572	-200.000	-0.020	0.168
-702.558	-200.000	-0.024	0.204
-701.543	800.000	-0.047	0.136
-700.529	-159.721	0.237	-0.013
-699.514	-68.252	-0.413	-0.162
-698.499	78.922	0.256	0.275
-697.485	29.657	-0.153	0.131
-696.470	-10.350	0.194	0.129
-695.456	-200.000	0.006	0.202
-694.441	-94.884	-0.264	0.072
-693.426	-96.980	0.192	-0.051
-692.412	-129.122	0.274	0.038
-691.397	-56.298	-0.146	0.065
-690.383	-40.541	-0.101	-0.052
-689.368	-95.661	-0.511	-0.137
-688.354	46.372	-0.181	-0.168
-687.339	-64.958	0.116	0.047
-686.324	481.358	0.019	0.043
-685.310	800.000	-0.045	-0.134
-684.295	-93.610	-0.032	0.009
-683.281	332.608	-0.080	0.155
-682.266	-105.826	0.181	-0.041
-681.251	-32.680	0.213	0.119
-680.237	-108.645	-0.389	0.084
-679.222	304.361	0.171	-0.319
-678.208	-38.187	0.319	-0.170
-677.193	225.499	-0.135	-0.220
-676.178	712.690	-0.031	-0.083
-675.164	569.711	0.202	-0.494
-674.149	-200.000	0.004	-0.052
-673.135	-49.889	-0.275	-0.131
-672.120	-200.000	0.029	-0.175
-671.105	70.193	-0.173	-0.179
-670.091	67.195	-0.178	0.182
-669.076	-108.298	0.044	0.010
-668.062	28.585	0.113	-0.096
-667.047	-111.966	-0.164	-0.033
-666.032	-85.777	0.121	-0.038
-665.018	-81.539	-0.192	-0.063
-664.003	-121.544	0.353	-0.059
-662.989	-200.000	0.000	-0.326
-661.974	-200.000	0.070	0.330
-660.959	-29.744	-0.118	-0.067
-659.945	-2.864	-0.142	0.099
-658.930	-200.000	0.033	-0.229
-657.916	-160.457	0.314	-0.017
-656.901	746.776	0.015	0.041
-655.886	178.899	0.127	0.186
-654.872	-63.246	0.443	0.183
-653.857	-92.104	-0.329	-0.093
-652.843	98.406	0.119	0.137
-651.828	-200.000	-0.012	0.072
-650.814	-66.231	-0.216	-0.086
-649.799	-200.000	0.006	-0.282
-648.784	103.056	-0.074	-0.087
-647.770	-200.000	0.021	0.305
-646.755	241.543	-0.125	-0.209
-645.741	-200.000	0.007	-0.406
-644.726	-96.740	0.071	0.019
-643.711	-200.000	-0.016	0.291
-642.697	-129.014	-0.158	0.022
-641.682	-92.337	-0.066	-0.019
-640.668	45.105	0.144	-0.133
-639.653	654.149	0.134	-0.345
-638.638	-67.452	-0.047	0.019
-637.624	-174.347	-0.044	-0.001
-636.609	-48.287	0.293	-0.141
-635.595	467.699	-0.100	-0.225
-634.580	-65.552	-0.296	-0.119
-633.565	-200.000	-0.031	0.526
-632.551	-200.000	-0.028	-0.239
-631.536	-84.355	0.352	-0.112
-630.522	800.000	-0.072	-0.257
-629.507	290.396	0.066	0.120
-628.492	-46.339	0.379	-0.187
-627.478	-91.342	-0.157	-0.045
-626.463	800.000	-0.108	0.341
-625.449	800.000	0.028	0.119
-624.434	-200.000	0.007	-0.206
-623.419	-116.463	0.176	-0.032
-622.405	-85.241	-0.151	-0.047
-621.390	-141.524	-0.418	-0.042
-620.376	-47.281	-0.255	0.125
-619.361	800.000	-0.140	-0.410
-618.346	-98.598	-0.156	-0.040
-617.332	-110.608	-0.169	0.035
-616.317	-16.999	0.240	0.152
-615.303	800.000	0.026	0.075
-614.288	46.334	0.373	-0.346
-613.273	-114.937	0.204	0.039
-612.259	-159.871	0.200	-0.011
-611.244	-33.447	-0.180	-0.100
-610.230	46.607	0.196	-0.182
-609.215	-200.000	-0.006	0.044
-608.201	62.077	-0.055	-0.054
-607.186	-200.000	-0.025	0.251
-606.171	31.465	-0.187	0.161
-605.157	88.159	0.252	0.280
-604.142	65.909	-0.202	-0.205
-603.128	470.097	-0.127	-0.285
-602.113	-43.026	0.365	0.185
-601.098	-28.145	-0.217	-0.126
-600.084	86.079	0.185	-0.204
-599.069	-77.057	0.218	-0.076
-598.055	-137.496	-0.327	-0.037
-597.040	29.013	-0.156	0.132
-596.025	670.774	-0.026	0.066
-595.011	127.266	0.085	0.108
-593.996	-13.884	-0.289	-0.187
-592.982	55.532	-0.123	-0.119
-591.967	800.000	-0.086	-0.326
-590.952	256.071	-0.136	0.233
-589.938	-164.103	0.387	0.018
-588.923	20.378	0.087	-0.070
-587.909	-200.000	-0.031	-0.147
-586.894	51.537	-0.342	-0.325
-585.879	82.294	0.239	0.259
-584.865	497.578	0.047	-0.107
-583.850	101.960	0.287	-0.335
-582.836	-168.855	0.384	0.014
-581.821	-81.661	0.124	0.041
-580.806	-200.000	0.030	0.393
-579.792	-200.000	-0.010	0.316
-578.777	-200.000	-0.067	-0.331
-577.763	379.780	-0.090	-0.184
-576.748	-200.000	0.032	-0.172
-575.733	146.646	0.077	-0.103
-574.719	76.208	0.196	-0.207
-573.704	-119.767	-0.320	-0.055
-572.690	800.000	0.093	-0.335
-571.675	74.354	-0.234	-0.246
-570.661	-200.000	-0.029	-0.151
-569.646	-200.000	0.019	0.282
-568.631	800.000	0.042	0.176
-567.617	-178.812	-0.162	0.004
-566.602	-190.685	-0.162	-0.002
-565.588	-66.558	0.031	-0.012
-564.573	205.278	-0.063	0.098
-563.558	-200.000	-0.040	0.488
-562.544	-200.000	-0.020	0.299
-561.529	-79.269	0.345	-0.117
-560.515	-58.236	0.193	-0.084
-559.500	-99.486	0.403	0.101
-558.485	37.456	0.288	0.255
-557.471	-200.000	-0.002	0.156
-556.456	-200.000	0.083	0.456
-555.442	343.952	0.081	0.159
-554.427	-48.051	-0.185	0.090
-553.412	-200.000	-0.039	-0.335
-552.398	-140.102	0.347	-0.036
-551.383	800.000	-0.022	-0.090
-550.369	223.859	0.070	0.113
-549.354	-89.688	-0.198	0.058
-548.339	-53.141	-0.128	-0.059
-547.325	-200.000	0.030	0.325
-546.310	-132.099	-0.136	0.018
-545.296	139.549	-0.330	0.434
-544.281	-61.121	-0.226	0.095
-543.266	-129.256	0.081	0.011
-542.252	-6.314	0.179	-0.122
-541.237	28.130	-0.121	-0.102
-540.223	671.578	-0.026	-0.068
-539.208	284.904	0.157	-0.283
-538.193	657.606	0.092	-0.236
-537.179	66.843	0.027	-0.027
-536.164	164.744	-0.267	0.376
-535.150	43.187	0.087	-0.079
-534.135	800.000	0.075	-0.271
-533.121	-66.791	-0.087	-0.034
-532.106	405.469	-0.058	0.123
-531.091	141.963	-0.023	-0.031
-530.077	-48.680	-0.181	-0.087
-529.062	225.915	-0.088	0.142
-528.048	-200.000	0.020	0.165
-527.033	-133.915	0.048	-0.006
-526.018	68.724	-0.419	-0.430
-525.004	53.064	-0.275	0.262
-523.989	800.000	0.047	-0.170
-522.975	-146.910	-0.050	-0.004
-521.960	-117.095	-0.198	-0.036
-520.945	-200.000	0.071	-0.377
-519.931	345.048	-0.081	-0.158
-518.916	800.000	0.112	0.355
-517.902	-19.412	-0.398	0.246
-516.887	-78.558	-0.229	-0.078
-515.872	518.513	-0.039	-0.091
-514.858	10.329	-0.237	-0.180
-513.843	22.885	-0.089	0.073
-512.829	-200.000	0.004	0.019
-511.814	506.268	0.029	-0.067
-510.799	224.905	0.104	-0.167
-509.785	800.000	-0.079	-0.343
-508.770	-200.000	-0.018	0.316
-507.756	800.000	-0.061	-0.267
-506.741	-114.252	-0.170	0.033
-505.726	-57.496	0.207	0.090
-504.712	-126.108	-0.073	0.011
-503.697	-200.000	-0.001	-0.109
-502.683	-68.338	-0.154	-0.060
-501.668	156.376	0.177	0.243
-500.653	-200.000	-0.013	0.205
-499.639	800.000	-0.078	0.323
-498.624	450.092	-0.021	0.046
-497.610	440.610	0.033	0.071
-496.595	218.762	0.238	-0.379
-495.581	-19.237	0.199	0.123
-494.566	254.245	0.027	0.046
-493.551	-200.000	-0.037	-0.162
-492.537	317.581	-0.188	-0.354
-491.522	-54.461	0.272	0.123
-490.508	292.404	0.078	0.141
-489.493	-181.281	-0.153	0.003
-488.478	130.038	0.079	0.100
-487.464	65.079	0.173	0.175
-486.449	-51.491	0.261	-0.122
-485.435	-200.000	0.068	0.336
-484.420	-12.758	-0.267	-0.173
-483.405	800.000	0.060	0.198
-482.391	16.645	0.124	0.098
-481.376	-95.519	-0.188	0.050
-480.362	130.907	-0.205	-0.262
-479.347	32.839	-0.277	-0.239
-478.332	363.369	-0.027	0.054
-477.318	800.000	0.045	-0.180
-476.303	70.296	-0.113	0.116
-475.289	67.998	-0.218	0.222
-474.274	180.735	-0.104	0.152
-473.259	249.038	-0.203	0.342
-472.245	-65.043	-0.214	0.086
-471.230	-200.000	-0.062	-0.388
-470.216	170.969	-0.172	0.246
-469.201	217.991	-0.050	0.079
-468.186	170.713	-0.112	0.160
-467.172	89.144	-0.147	-0.164
-466.157	-39.808	0.193	0.100
-465.143	109.462	-0.262	-0.312
-464.128	-200.000	0.027	-0.145
-463.113	-34.210	-0.218	0.119
-462.099	-200.000	0.008	0.137
-461.084	-9.338	0.218	-0.145
-460.070	51.562	-0.315	-0.298
-459.055	295.688	-0.167	0.305
-458.040	1.471	0.326	-0.233
-457.026	-71.440	-0.268	0.100
-456.011	-105.431	-0.163	-0.037
-454.997	-60.645	0.262	0.110
-453.982	331.504	-0.104	0.200
-452.968	-5.808	0.074	0.051
-451.953	-141.684	-0.191	0.019
-450.938	-200.000	0.018	-0.250
-449.924	-200.000	-0.004	-0.126
-448.909	-200.000	-0.060	-0.486
-447.895	-200.000	-0.013	-0.372
-446.880	157.330	-0.079	0.109
-445.865	-91.837	-0.085	-0.024
-444.851	-154.546	0.182	-0.012
-443.836	-186.307	-0.322	-0.005
-442.822	800.000	-0.096	0.267
-441.807	156.139	-0.094	-0.129
-440.792	575.951	0.097	0.236
-439.778	-95.929	-0.286	0.076
-438.763	231.689	0.172	0.281
-437.749	-200.000	-0.053	-0.280
-436.734	-122.629	0.267	-0.043
-435.719	800.000	0.046	0.171
-434.705	272.030	-0.075	0.132
-433.690	354.474	-0.194	-0.384
-432.676	-200.000	-0.050	-0.359
-431.661	180.402	-0.036	-0.053
-430.646	310.251	-0.132	0.245
-429.632	23.243	-0.119	-0.098
-428.617	30.916	-0.034	0.029
-427.603	0.491	0.159	0.113
-426.588	-95.071	0.217	0.058
-425.573	-135.086	0.413	-0.049
-424.559	-37.536	-0.185	0.098
-423.544	-79.337	-0.210	-0.071
-422.530	-200.000	0.021	-0.186
-421.515	106.334	0.097	0.115
-420.500	341.942	-0.170	0.330
-419.486	-93.193	0.199	0.055
-418.471	-98.923	-0.194	-0.049
-417.457	-17.650	-0.264	-0.165
-416.442	177.380	0.143	0.207
-415.428	-170.642	0.329	-0.011
-414.413	-200.000	-0.015	0.102
-413.398	100.855	-0.088	-0.102
-412.384	-84.625	0.363	-0.114
-411.369	-200.000	-0.034	0.241
-410.355	-4.045	0.314	-0.217
-409.340	-200.000	-0.031	0.156
-408.325	-97.074	0.206	0.053
-407.311	-200.000	0.089	0.433
-406.296	-30.514	-0.345	-0.194
-405.282	800.000	-0.029	0.087
-404.267	800.000	-0.036	0.115
-403.252	393.057	0.121	-0.249
-402.238	-200.000	0.074	-0.378
-401.223	-20.061	-0.297	0.182
-400.209	9.711	0.325	0.245
-399.194	-200.000	-0.000	0.185
-398.179	800.000	-0.082	-0.265
-397.165	-190.486	0.246	0.003
-396.150	26.690	-0.180	0.149
-395.136	-200.000	-0.012	-0.074
-394.121	800.000	-0.035	-0.119
-393.106	6.477	-0.303	0.224
-392.092	-69.757	-0.273	0.104
-391.077	459.488	-0.057	-0.126
-390.063	-125.525	0.480	-0.072
-389.048	-110.452	-0.191	0.039
-388.033	-101.801	-0.241	0.058
-387.019	-136.931	-0.294	-0.033
-386.004	-200.000	0.011	-0.067
-384.990	97.719	0.102	-0.117
-383.975	97.813	0.099	0.113
-382.960	800.000	-0.054	0.152
-381.946	-59.552	-0.376	-0.160
-380.931	-87.278	-0.116	-0.035
-379.917	800.000	-0.051	-0.156
-378.902	-3.473	0.129	-0.089
-377.888	-163.573	0.305	0.014
-376.873	98.886	-0.059	-0.067
-375.858	334.373	0.128	-0.245
-374.844	158.355	-0.084	0.116
-373.829	194.239	0.026	0.040
-372.815	-200.000	0.046	0.288
-371.800	800.000	-0.041	0.157
-370.785	-200.000	-0.002	-0.092
-369.771	269.101	0.168	-0.293
-368.756	800.000	-0.065	0.252
-367.742	25.234	-0.055	-0.046
-366.727	-31.744	-0.123	-0.069
-365.712	800.000	-0.063	0.222
-364.698	434.152	-0.149	0.322
-363.683	331.170	-0.210	-0.401
-362.669	-200.000	-0.049	-0.314
-361.654	-34.625	0.210	0.114
-360.639	-113.584	0.131	-0.025
-359.625	-136.035	-0.208	0.024
-358.610	-200.000	0.013	-0.180
-357.596	-109.470	-0.153	0.032
-356.581	-200.000	0.370	0.001
-355.566	-71.851	-0.144	-0.053
-354.552	25.985	0.260	-0.215
-353.537	95.059	-0.212	0.240
-352.523	123.710	0.086	-0.107
-351.508	69.295	0.062	-0.063
-350.493	-103.040	-0.062	0.015
-349.479	800.000	-0.059	-0.181
-348.464	-200.000	-0.008	0.063
-347.450	301.271	-0.061	-0.111
-346.435	-167.428	0.257	0.010
-345.420	94.616	0.082	-0.093
-344.406	502.785	-0.090	-0.206
-343.391	-115.905	0.191	0.035
-342.377	-200.000	-0.024	0.125
-341.362	-131.931	-0.432	-0.056
-340.348	-190.113	0.110	-0.001
-339.333	-200.000	-0.044	-0.301
-338.318	-54.427	-0.237	0.107
-337.304	-12.816	0.242	-0.156
-336.289	-98.664	-0.098	-0.025
-335.275	-200.000	-0.004	0.172
-334.260	-113.004	0.256	-0.050
-333.245	-96.690	0.183	0.048
-332.231	-200.000	0.020	-0.256
-331.216	7.722	0.214	-0.159
-330.202	446.414	0.057	0.125
-329.187	60.719	-0.151	-0.148
-328.172	-147.783	0.350	-0.029
-327.158	800.000	0.018	0.076
-326.143	-16.823	-0.191	-0.120
-325.129	85.129	-0.169	0.184
-324.114	800.000	-0.073	0.247
-323.099	238.560	-0.101	-0.166
-322.085	133.977	0.047	0.060
-321.070	598.606	0.057	0.140
-320.056	17.417	-0.137	-0.107
-319.041	319.232	-0.183	0.343
-318.026	-111.714	0.052	0.011
-317.012	-59.595	0.156	-0.066
-315.997	36.103	-0.221	-0.193
-314.983	-4.115	-0.146	0.100
-313.968	9.339	-0.019	-0.014
-312.953	406.476	0.059	-0.124
-311.939	619.591	-0.067	-0.166
-310.924	-30.140	0.292	0.164
-309.910	-65.190	0.105	0.042
-308.895	-153.142	0.188	-0.013
-307.880	-169.502	0.042	-0.002
-306.866	-112.875	0.318	-0.062
-305.851	575.618	0.199	-0.481
-304.837	800.000	-0.059	0.174
-303.822	75.572	-0.133	0.139
-302.807	300.575	0.038	-0.069
-301.793	-54.747	0.236	-0.105
-300.778	23.047	0.212	-0.172
-299.764	-42.449	0.281	0.142
-298.749	97.744	-0.121	0.138
-297.735	-163.845	0.328	-0.015
-296.720	800.000	-0.053	0.183
-295.705	367.685	-0.046	0.093
-294.691	-73.432	0.079	0.029
-293.676	-30.861	0.257	0.143
-292.662	-200.000	-0.021	0.341
-291.647	-34.334	0.123	-0.067
-290.632	-50.690	0.166	0.077
-289.618	-19.123	-0.263	-0.162
-288.603	-66.813	0.487	-0.191
-287.589	33.280	0.182	0.156
-286.574	132.945	0.267	0.341
-285.559	434.287	0.093	0.199
-284.545	-31.827	0.188	0.104
-283.530	-97.646	0.169	-0.043
-282.516	68.842	0.108	0.109
-281.501	157.087	-0.220	0.301
-280.486	800.000	-0.060	-0.187
-279.472	-90.357	-0.109	-0.031
-278.457	131.911	0.290	0.369
-277.443	-19.168	-0.245	-0.150
-276.428	-53.511	0.137	-0.062
-275.413	-200.000	0.094	0.499
-274.399	-200.000	0.077	-0.399
-273.384	-139.875	0.254	-0.027
-272.370	-21.163	-0.213	0.129
-271.355	117.407	0.209	0.254
-270.340	-71.488	0.205	0.076
-269.326	-68.073	-0.301	-0.116
-268.311	-69.564	0.354	0.134
-267.297	-36.934	0.065	-0.035
-266.282	-200.000	-0.038	-0.174
-265.267	95.351	0.032	-0.036
-264.253	27.154	0.258	0.214
-263.238	800.000	0.057	0.228
-262.224	-200.000	0.011	-0.253
-261.209	318.466	-0.162	-0.303
-260.195	-10.974	0.192	0.125
-259.180	800.000	0.106	0.371
-258.165	-200.000	-0.044	-0.377
-257.151	602.393	-0.155	-0.381
-256.136	-47.239	0.465	0.224
-255.122	49.574	0.208	0.193
-254.107	-11.346	-0.345	-0.224
-253.092	800.000	-0.048	-0.190
-252.078	-45.348	-0.060	-0.029
-251.063	-200.000	0.007	-0.185
-250.049	119.693	-0.148	0.181
-249.034	403.389	-0.129	0.269
-248.019	-200.000	0.043	-0.263
-247.005	17.213	0.085	0.067
-245.990	2.265	0.159	-0.113
-244.976	-200.000	0.026	0.247
-243.961	-64.197	-0.043	-0.017
-242.946	-41.708	-0.242	0.123
-241.932	185.449	0.088	0.128
-240.917	334.374	-0.122	0.234
-239.903	-112.431	0.298	0.059
-238.888	23.646	0.329	0.267
-237.873	313.087	-0.049	0.090
-236.859	-200.000	-0.024	0.557
-235.844	-63.391	-0.231	0.094
-234.830	800.000	0.018	0.068
-233.815	27.981	0.205	-0.170
-232.800	113.702	-0.176	0.211
-231.786	144.223	-0.023	0.031
-230.771	149.007	-0.077	-0.103
-229.757	-200.000	-0.007	-0.340
-228.742	-105.812	-0.183	-0.041
-227.727	-55.146	-0.273	0.121
-226.713	55.147	0.035	-0.033
-225.698	800.000	0.099	-0.426
-224.684	-20.035	-0.072	-0.044
-223.669	800.000	0.033	0.133
-222.655	-39.531	-0.074	-0.038
-221.640	185.287	-0.184	-0.270
-220.625	89.300	-0.083	0.091
-219.611	-41.982	-0.241	0.122
-218.596	269.625	0.040	-0.069
-217.582	-200.000	0.007	0.115
-216.567	539.610	0.056	0.130
-215.552	377.115	0.264	-0.533
-214.538	-56.230	0.219	0.096
-213.523	800.000	-0.111	0.426
-212.509	25.290	0.090	0.073
-211.494	-200.000	-0.102	-0.457
-210.479	-155.609	0.195	-0.012
-209.465	-98.644	0.363	0.091
-208.450	22.132	-0.038	-0.030
-207.436	-200.000	-0.160	-0.001
-206.421	707.396	0.010	-0.027
-205.406	-200.000	0.034	0.200
-204.392	35.571	0.168	-0.145
-203.377	-175.330	-0.393	-0.011
-202.363	278.570	-0.157	0.276
-201.348	-160.435	-0.069	-0.004
-200.333	-123.784	0.216	-0.034
-199.319	35.852	-0.199	0.173
-198.304	800.000	0.020	-0.058
-197.290	576.869	-0.086	-0.207
-196.275	-7.869	0.193	-0.128
-195.260	-132.463	0.172	0.022
-194.246	156.881	-0.086	-0.117
-193.231	1.178	0.098	0.069
-192.217	15.151	0.047	0.036
-191.202	115.664	-0.099	0.120
-190.187	-74.210	0.249	0.089
-189.173	66.502	-0.149	-0.150
-188.158	-50.192	0.165	0.077
-187.144	64.992	-0.250	0.249
-186.129	-200.000	-0.015	0.192
-185.114	-105.078	-0.216	0.049
-184.100	-200.000	-0.015	0.165
-183.085	-200.000	-0.025	-0.158
-182.071	-43.554	-0.201	-0.100
-181.056	212.829	-0.106	0.165
-180.042	358.267	0.180	0.354
-179.027	178.102	0.210	0.301
-178.012	513.013	-0.037	0.085
-176.998	-71.231	-0.335	-0.124
-175.983	-200.000	-0.017	-0.153
-174.969	394.790	0.111	-0.228
-173.954	-200.000	0.005	-0.035
-172.939	-101.115	-0.067	0.016
-171.925	-108.782	0.247	-0.052
-170.910	-165.591	0.110	-0.005
-169.896	-22.166	-0.245	0.146
-168.881	-65.986	0.087	-0.034
-167.866	781.024	-0.084	-0.225
-166.852	19.169	0.174	0.138
-165.837	-64.856	-0.130	0.052
-164.823	-106.333	-0.326	0.072
-163.808	-106.406	0.263	0.058
-162.793	-131.206	0.075	0.010
-161.779	371.067	0.018	0.036
-160.764	800.000	0.118	0.380
-159.750	80.038	0.149	-0.158
-158.735	-60.617	-0.433	0.181
-157.720	-62.537	0.210	-0.086
-156.706	-155.277	0.187	-0.012
-155.691	-200.000	-0.272	0.001
-154.677	216.406	0.115	0.180
-153.662	-200.000	0.072	-0.366
-152.647	-200.000	0.014	-0.253
-151.633	-82.394	0.100	-0.032
-150.618	800.000	-0.055	0.158
-149.604	27.636	-0.218	-0.180
-148.589	-13.967	-0.155	0.098
-147.574	-200.000	-0.022	-0.147
-146.560	52.132	0.092	-0.086
-145.545	166.230	0.056	0.078
-144.531	-200.000	-0.002	0.194
-143.516	-41.146	0.236	0.120
-142.502	-65.442	-0.034	-0.013
-141.487	-87.406	0.089	-0.026
-140.472	53.389	0.021	0.020
-139.458	-77.205	-0.176	0.060
-138.443	-54.813	0.358	0.159
-137.429	292.200	-0.049	0.087
-136.414	-4.282	-0.210	-0.143
-135.399	-97.473	0.211	0.054
-134.385	-200.000	0.044	-0.361
-133.370	-200.000	-0.020	0.102
-132.356	394.208	-0.129	-0.263
-131.341	-22.638	-0.214	-0.127
-130.326	-18.640	-0.205	-0.126
-129.312	800.000	0.060	-0.217
-128.297	-133.635	-0.075	0.009
-127.283	-200.000	0.027	0.203
-126.268	637.361	0.094	-0.235
-125.253	-200.000	0.019	-0.150
-124.239	-102.812	0.080	0.019
-123.224	-200.000	-0.005	-0.262
-122.210	9.116	-0.064	-0.047
-121.195	474.238	-0.148	0.327
-120.180	251.256	0.146	0.244
-119.166	800.000	0.082	-0.284
-118.151	-200.000	0.010	0.114
-117.137	-171.143	-0.093	0.003
-116.122	-2.610	-0.112	-0.077
-115.107	-200.000	0.036	0.233
-114.093	-200.000	0.033	0.172
-113.078	800.000	0.087	-0.247
-112.064	41.214	0.185	0.164
-111.049	-3.609	0.187	-0.128
-110.034	-92.925	-0.289	0.079
-109.020	48.088	0.143	-0.131
-108.005	327.770	0.138	-0.260
-106.991	80.851	0.134	-0.141
-105.976	-97.440	-0.189	-0.048
-104.962	91.809	0.165	0.182
-103.947	-200.000	0.026	-0.174
-102.932	-63.095	0.208	0.084
-101.918	-200.000	-0.049	0.215
-100.903	-200.000	-0.038	0.383
-99.889	-55.458	-0.418	0.184
-98.874	205.523	0.149	0.228
-97.859	-200.000	-0.061	-0.262
-96.845	58.988	-0.262	-0.253
-95.830	84.607	-0.347	-0.373
-94.816	800.000	-0.132	-0.366
-93.801	70.697	-0.098	-0.100
-92.786	-124.037	-0.236	-0.036
-91.772	800.000	0.102	0.302
-90.757	-23.012	0.174	0.103
-89.743	75.281	-0.132	0.137
-88.728	-17.110	0.014	-0.009
-87.713	-200.000	-0.047	0.380
-86.699	-151.168	-0.331	0.024
-85.684	-200.000	-0.084	-0.393
-84.670	-200.000	-0.011	-0.497
-83.655	101.152	-0.108	-0.124
-82.640	14.932	-0.326	-0.250
-81.626	800.000	-0.067	0.257
-80.611	-150.554	-0.120	0.009
-79.597	-47.866	0.088	0.042
-78.582	-200.000	-0.010	0.127
-77.567	85.635	0.224	0.241
-76.553	475.876	-0.092	-0.203
-75.538	47.538	0.139	0.127
-74.524	-200.000	-0.015	0.303
-73.509	-77.062	-0.215	0.073
-72.494	99.077	0.171	-0.194
-71.480	-165.920	-0.289	-0.012
-70.465	800.000	-0.069	0.251
-69.451	-93.435	0.110	0.030
-68.436	22.548	0.083	0.066
-67.422	800.000	0.066	0.229
-66.407	-62.318	-0.190	0.077
-65.392	-144.300	-0.473	-0.043
-64.378	161.767	-0.168	0.230
-63.363	-200.000	0.009	0.180
-62.349	-22.915	0.430	-0.254
-61.334	-17.114	-1.272	-0.786
-60.319	229.433	0.171	0.273
-59.305	636.019	-0.449	-1.117
-58.290	309.413	0.689	1.262
-57.276	800.000	0.428	1.591
-56.261	-200.000	106.203	623.389
-55.246	525.004	1505.482	3470.440
-54.232	177.177	2696.125	3844.883
-53.217	112.284	2157.261	2555.394
-52.203	41.304	1596.534	1414.193
-51.188	32.871	1333.535	1130.920
-50.173	29.824	1291.973	1077.907
-49.159	54.061	1346.857	1268.586
-48.144	54.169	1362.665	1284.063
-47.130	32.962	1316.736	1117.033
-46.115	29.513	1299.239	1081.977
-45.100	29.369	1293.935	1076.673
-44.086	29.179	1292.035	1073.942
-43.071	29.219	1289.486	1072.014
-42.057	29.169	1287.350	1069.908
-41.042	29.151	1286.072	1068.696
-40.027	29.271	1284.155	1067.758
-39.013	29.212	1282.289	1065.824
-37.998	29.264	1280.519	1064.607
-36.984	29.317	1278.813	1063.455
-35.969	29.335	1276.982	1061.994
-34.954	29.359	1275.030	1060.462
-33.940	29.281	1274.119	1059.218
-32.925	29.553	1272.262	1059.191
-31.911	29.385	1271.509	1057.558
-30.896	29.397	1269.781	1056.149
-29.881	29.494	1268.354	1055.473
-28.867	29.550	1266.842	1054.491
-27.852	29.553	1265.127	1053.044
-26.838	29.384	1263.820	1050.949
-25.823	29.509	1262.874	1050.835
-24.809	29.394	1261.390	1048.902
-23.794	29.362	1260.719	1048.121
-22.779	29.448	1259.098	1047.219
-21.765	29.562	1257.056	1046.128
-20.750	29.499	1256.026	1044.873
-19.736	29.335	1254.974	1043.028
-18.721	29.415	1253.835	1042.492
-17.706	29.298	1252.195	1040.423
-16.692	29.339	1251.342	1039.904
-15.677	29.296	1250.547	1038.965
-14.663	29.383	1249.277	1038.355
-13.648	29.346	1248.370	1037.354
-12.633	29.357	1247.463	1036.621
-11.619	29.264	1246.417	1035.184
-10.604	29.301	1246.075	1035.070
-9.590	29.382	1244.681	1034.324
-8.575	29.333	1243.487	1033.014
-7.560	29.333	1242.859	1032.452
-6.546	29.333	1242.386	1032.019
-5.531	29.418	1241.457	1031.683
-4.517	29.343	1240.992	1030.836
-3.502	29.295	1239.675	1029.431
-2.487	29.364	1238.701	1028.968
-1.473	29.338	1234.675	1025.437
-0.458	27.776	1220.143	1004.738
0.556	22.048	1202.854	966.704
1.571	18.510	1208.320	951.415
2.586	17.870	1222.681	959.039
3.600	17.614	1211.760	948.963
4.615	12.810	1141.239	868.402
5.629	4.117	1066.968	768.826
6.644	-0.062	1047.334	734.227
7.659	-0.367	1045.203	731.182
8.673	-0.357	1043.468	729.952
9.688	-0.394	1042.177	728.803
10.702	-0.086	1040.246	728.883
11.717	5.526	1048.427	761.929
12.731	14.605	1061.132	815.656
13.746	19.115	1066.979	842.193
14.761	19.932	1067.535	846.553
15.775	19.975	1066.781	846.092
16.790	19.662	1066.338	844.135
17.804	19.640	1065.564	843.342
18.819	19.652	1065.061	842.927
19.834	19.806	1064.776	843.376
20.848	19.875	1064.270	843.236
21.863	19.887	1063.464	842.583
22.877	19.765	1062.750	841.351
23.892	19.658	1062.281	840.381
24.907	19.731	1061.863	840.336
25.921	19.824	1060.250	839.434
26.936	19.748	1059.365	838.290
27.950	19.774	1057.194	836.626
28.965	19.661	1055.548	834.703
29.980	19.617	1053.909	833.121
30.994	19.901	1052.486	833.287
32.009	19.919	1051.444	832.479
33.023	19.656	1050.271	830.210
34.038	19.762	1049.852	830.313
35.053	19.810	1049.170	829.931
36.067	19.880	1048.569	829.719
37.082	19.940	1047.870	829.383
38.096	20.018	1046.925	828.934
39.111	20.069	1046.556	828.810
40.126	19.977	1044.325	826.533
41.140	19.503	1043.366	823.438
42.155	19.551	1041.638	822.231
43.169	19.478	1040.617	821.005
44.184	19.551	1039.661	820.525
45.199	19.515	1038.622	819.461
46.213	19.571	1037.425	818.711
47.228	19.604	1036.626	818.163
48.242	19.653	1035.548	817.474
49.257	19.746	1034.530	817.037
50.271	19.832	1034.164	817.081
51.286	19.882	1032.864	816.219
52.301	19.835	1032.827	815.893
53.315	19.741	1031.406	814.255
54.330	19.693	1030.990	813.629
55.344	19.914	1030.031	813.839
56.359	19.823	1028.844	812.404
57.374	19.607	1027.581	810.321
58.388	19.696	1026.762	810.021
59.403	19.587	1025.933	808.785
60.417	19.563	1024.846	807.744
61.432	19.539	1024.364	807.180
62.447	19.691	1023.941	807.488
63.461	19.575	1023.203	806.293
64.476	19.571	1021.775	805.074
65.490	19.473	1021.056	803.983
66.505	19.646	1020.176	804.023
67.520	19.604	1019.917	803.550
68.534	19.484	1018.797	802.041
69.549	19.222	1017.374	799.632
70.563	19.218	1017.025	799.267
71.578	19.106	1015.944	797.829
72.593	19.138	1014.712	796.941
73.607	19.275	1014.445	797.292
74.622	19.576	1014.108	798.351
75.636	19.365	1013.459	796.794
76.651	19.335	1012.289	795.665
77.666	19.411	1011.026	794.951
78.680	19.384	1010.952	794.701
79.695	19.497	1010.224	794.577
80.709	19.499	1009.618	794.038
81.724	19.392	1008.832	792.861
82.739	19.547	1008.191	792.998
83.753	19.872	1007.486	793.865
84.768	20.047	1006.258	793.629
85.782	20.207	1005.383	793.599
86.797	20.005	1004.392	791.824
87.812	19.929	1003.695	790.858
88.826	19.932	1002.548	789.896
89.841	19.975	1001.909	789.520
90.855	20.082	1000.802	789.066
91.870	20.154	999.492	788.291
92.884	19.818	998.589	785.979
93.899	19.895	997.373	785.304
94.914	20.075	996.565	785.415
95.928	19.889	995.919	783.994
96.943	19.681	994.398	781.784
97.957	19.511	993.031	779.873
98.972	19.240	992.437	778.115
99.987	19.637	991.339	778.976
101.001	19.690	990.838	778.752
102.016	19.976	989.594	778.991
103.030	19.680	988.650	776.849
104.045	19.478	987.742	775.160
105.060	19.235	986.976	773.398
106.074	19.533	986.295	774.136
107.089	19.896	985.198	774.828
108.103	19.927	984.301	774.196
109.118	19.612	983.411	772.017
110.133	19.782	981.962	771.570
111.147	19.401	981.273	769.264
112.162	19.334	979.876	767.802
113.176	19.686	979.038	768.642
114.191	19.429	978.290	766.843
115.206	19.015	977.562	764.366
116.220	19.302	976.028	764.373
117.235	19.344	975.767	764.286
118.249	19.329	974.437	763.109
119.264	19.201	974.157	762.259
120.279	19.367	973.072	762.074
121.293	19.427	972.458	761.792
122.308	19.417	971.768	761.140
123.322	19.466	970.130	760.005
124.337	19.260	969.075	758.205
125.352	18.922	966.862	754.924
126.366	18.796	966.443	753.978
127.381	19.501	966.388	756.957
128.395	19.829	965.598	757.709
129.410	19.845	965.016	757.259
130.424	19.954	963.566	756.528
131.439	19.877	962.406	755.213
132.454	19.754	961.735	754.087
133.468	19.782	960.865	753.459
134.483	19.991	960.057	753.667
135.497	20.051	959.412	753.355
136.512	19.914	958.847	752.248
137.527	19.931	957.966	751.566
138.541	20.077	956.663	751.109
139.556	20.079	955.993	750.525
140.570	20.118	955.347	750.120
141.585	20.124	954.039	749.054
142.600	20.039	953.253	748.003
143.614	20.226	952.349	748.035
144.629	20.334	951.698	747.925
145.643	20.153	950.117	745.834
146.658	19.966	949.456	744.445
147.673	19.899	948.170	743.083
148.687	19.914	946.925	742.109
149.702	19.808	946.502	741.256
150.716	19.820	945.191	740.215
151.731	19.947	944.764	740.360
152.746	20.153	944.427	740.909
153.760	20.262	943.517	740.593
154.775	20.264	943.234	740.317
155.789	20.295	941.473	739.001
156.804	20.123	940.842	737.708
157.819	20.264	939.851	737.466
158.833	20.218	939.387	736.843
159.848	20.336	938.117	736.281
160.862	20.297	936.890	735.088
161.877	20.275	936.196	734.386
162.892	20.322	935.676	734.109
163.906	20.184	934.782	732.758
164.921	20.154	934.037	731.985
165.935	20.289	932.777	731.500
166.950	20.160	932.086	730.351
167.964	20.174	931.129	729.595
168.979	20.279	929.193	728.456
169.994	20.119	928.666	727.308
171.008	20.269	928.531	727.765
172.023	20.270	927.836	727.159
173.037	20.002	926.669	725.061
174.052	19.923	925.737	723.937
175.067	19.970	925.260	723.696
176.081	20.110	924.608	723.707
177.096	19.996	923.900	722.611
178.110	19.782	922.663	720.691
179.125	19.657	921.707	719.356
180.140	19.772	921.150	719.337
181.154	19.806	921.348	719.571
182.169	20.084	920.941	720.345
183.183	20.277	920.059	720.393
184.198	20.028	919.489	718.850
185.213	20.223	918.567	718.875
186.227	20.173	917.655	717.890
187.242	20.149	917.328	717.471
188.256	20.235	916.515	717.127
189.271	20.289	915.757	716.692
190.286	20.040	914.817	714.868
191.300	19.510	913.571	711.647
192.315	18.956	911.427	707.633
193.329	18.738	911.719	706.897
194.344	19.607	911.534	710.270
195.359	20.030	911.995	712.306
196.373	20.243	911.262	712.543
197.388	19.898	910.857	710.748
198.402	20.003	910.125	710.546
199.417	20.037	909.217	709.910
200.432	19.748	908.121	707.812
201.446	19.645	907.304	706.691
202.461	19.516	907.029	705.885
203.475	18.856	904.880	701.458
204.490	18.249	903.645	697.964
205.504	19.050	904.197	701.595
206.519	19.656	904.180	703.990
207.534	19.818	903.216	703.837
208.548	20.272	903.163	705.580
209.563	19.954	901.982	703.304
210.577	19.781	901.671	702.296
211.592	20.279	901.392	704.039
212.607	20.204	900.256	702.782
213.621	20.291	899.506	702.487
214.636	20.181	899.195	701.738
215.650	20.301	897.545	700.872
216.665	20.368	897.501	701.049
217.680	20.324	896.869	700.313
218.694	19.882	895.606	697.484
219.709	19.632	894.644	695.669
220.723	19.967	894.444	696.800
221.738	20.003	894.074	696.595
222.753	19.968	893.335	695.815
223.767	20.162	892.886	696.184
224.782	20.240	892.989	696.513
225.796	20.311	891.966	695.942
226.811	19.739	890.367	692.339
227.826	19.041	889.378	688.717
228.840	19.356	889.125	689.722
229.855	19.540	887.770	689.344
230.869	19.094	886.905	686.834
231.884	19.512	887.053	688.555
232.899	20.204	886.808	691.061
233.913	20.091	886.098	689.998
234.928	20.148	885.223	689.482
235.942	20.090	884.417	688.562
236.957	19.788	883.624	686.685
237.972	19.747	883.399	686.286
238.986	19.999	882.572	686.582
240.001	19.862	882.268	685.742
241.015	20.062	881.221	685.660
242.030	20.134	880.800	685.555
243.045	20.235	880.287	685.494
244.059	20.269	880.163	685.473
245.074	19.959	879.433	683.618
246.088	19.814	877.891	681.789
247.103	20.036	877.671	682.432
248.117	20.496	877.493	684.043
249.132	20.677	877.039	684.341
250.147	20.737	876.759	684.300
251.161	20.921	876.353	684.643
252.176	20.844	875.631	683.717
253.190	21.049	874.823	683.831
254.205	21.062	874.471	683.543
255.220	21.057	873.481	682.692
256.234	20.898	872.788	681.469
257.249	20.787	872.260	680.561
258.263	20.955	871.126	680.270
259.278	21.030	870.427	679.959
260.293	20.968	870.241	679.510
261.307	20.899	869.319	678.464
262.322	20.769	867.951	676.829
263.336	19.882	866.126	671.904
264.351	18.998	864.075	666.828
265.366	19.132	864.213	667.395
266.380	20.142	864.753	671.667
267.395	20.566	864.481	673.039
268.409	20.331	864.374	671.985
269.424	20.869	863.262	673.143
270.439	20.813	862.813	672.515
271.453	20.917	862.268	672.433
272.468	20.836	862.204	672.012
273.482	21.114	861.537	672.502
274.497	20.583	860.715	669.757
275.512	20.385	859.394	667.907
276.526	20.712	859.817	669.437
277.541	21.027	858.916	669.885
278.555	20.636	857.860	667.502
279.570	20.456	857.247	666.278
280.585	20.631	856.949	666.658
281.599	20.719	855.730	665.984
282.614	20.052	854.418	662.355
283.628	20.177	854.149	662.569
284.643	20.458	854.073	663.524
285.657	19.944	852.945	660.627
286.672	19.595	852.175	658.641
287.687	20.259	851.858	660.867
288.701	20.496	850.970	661.022
289.716	20.050	850.376	658.809
290.730	20.158	849.507	658.486
291.745	19.805	848.822	656.558
292.760	20.237	848.906	658.205
293.774	21.038	849.226	661.432
294.789	21.271	848.925	662.021
295.803	21.347	848.360	661.812
296.818	21.358	847.975	661.494
297.833	21.011	846.126	658.683
298.847	20.900	845.887	658.018
299.862	21.217	845.110	658.551
300.876	21.259	845.127	658.664
301.891	21.223	844.147	657.706
302.906	20.629	843.382	654.818
303.920	20.925	842.919	655.514
304.935	21.109	842.994	656.206
305.949	21.146	842.285	655.735
306.964	21.008	841.668	654.680
307.979	21.078	840.887	654.277
308.993	21.371	840.932	655.351
310.008	21.310	840.354	654.614
311.022	21.178	839.259	653.210
312.037	21.069	838.519	652.167
313.052	20.773	837.814	650.457
314.066	20.083	836.225	646.592
315.081	19.783	835.714	645.021
316.095	20.638	835.651	648.101
317.110	20.995	835.726	649.433
318.125	20.096	834.497	645.076
319.139	19.272	832.845	640.679
320.154	19.316	832.611	640.607
321.168	20.225	832.902	644.153
322.183	20.794	832.787	646.119
323.197	20.887	832.465	646.156
324.212	21.080	831.922	646.391
325.227	21.132	831.661	646.323
326.241	21.009	831.185	645.442
327.256	20.940	830.299	644.443
328.270	21.010	829.545	644.057
329.285	20.842	828.474	642.549
330.300	20.514	827.702	640.686
331.314	20.841	827.687	641.821
332.329	21.057	827.514	642.428
333.343	21.214	826.938	642.501
334.358	21.024	826.810	641.644
335.373	21.226	826.162	641.827
336.387	21.605	825.714	642.814
337.402	21.653	825.997	643.153
338.416	21.617	825.490	642.571
339.431	21.730	824.850	642.429
340.446	21.783	824.663	642.420
341.460	21.539	824.127	641.054
342.475	21.558	823.440	640.531
343.489	21.509	823.163	640.081
344.504	21.725	823.195	640.840
345.519	21.918	822.507	640.952
346.533	22.063	822.045	641.065
347.548	22.052	821.654	640.664
348.562	21.886	821.193	639.640
349.577	21.844	820.555	638.936
350.592	21.928	819.920	638.691
351.606	21.912	819.475	638.227
352.621	21.793	818.481	636.967
353.635	21.710	817.507	635.851
354.650	20.944	816.019	631.859
355.665	20.134	814.715	627.861
356.679	20.693	814.426	629.608
357.694	20.911	814.003	630.012
358.708	20.979	813.325	629.678
359.723	21.417	813.671	631.471
360.738	21.670	813.200	631.963
361.752	21.611	813.003	631.540
362.767	22.065	812.363	632.624
363.781	22.143	811.906	632.494
364.796	22.333	811.412	632.737
365.810	22.298	810.976	632.213
366.825	22.351	810.460	631.945
367.840	22.067	809.450	630.085
368.854	21.610	809.044	628.072
369.869	21.745	808.632	628.183
370.883	21.769	808.335	627.981
371.898	21.582	807.852	626.883
372.913	21.498	807.578	626.313
373.927	21.902	806.622	626.960
374.942	21.980	805.980	626.684
375.956	22.007	806.235	626.921
376.971	22.176	805.605	626.980
377.986	22.323	805.452	627.328
379.000	22.143	804.830	626.150
380.015	22.110	803.914	625.263
381.029	22.150	803.572	625.086
382.044	22.052	803.444	624.580
383.059	22.101	802.558	624.012
384.073	22.331	801.816	624.194
385.088	22.204	801.560	623.490
386.102	22.093	800.964	622.579
387.117	22.027	800.309	621.780
388.132	21.888	798.554	619.869
389.146	21.234	797.911	617.005
390.161	21.557	797.965	618.136
391.175	21.886	798.373	619.559
392.190	21.656	797.069	617.680
393.205	20.256	795.013	611.103
394.219	18.958	793.587	605.388
395.234	19.267	792.935	605.925
396.248	20.822	794.373	612.441
397.263	22.016	795.221	617.241
398.278	21.911	794.733	616.440
399.292	21.648	794.224	615.066
400.307	21.673	793.638	614.647
401.321	21.714	793.296	614.471
402.336	22.109	793.007	615.577
403.350	22.508	793.020	616.928
404.365	22.768	792.835	617.640
405.380	22.970	792.471	618.008
406.394	22.950	791.949	617.476
407.409	22.768	791.453	616.400
408.423	22.897	790.970	616.421
409.438	22.993	790.488	616.324
410.453	23.050	790.369	616.377
411.467	22.897	789.640	615.220
412.482	22.855	789.204	614.678
413.496	23.139	788.567	615.117
414.511	23.037	788.442	614.609
415.526	23.075	787.973	614.324
416.540	22.821	787.055	612.671
417.555	22.549	786.590	611.312
418.569	22.608	786.576	611.450
419.584	22.641	785.645	610.789
420.599	22.465	784.881	609.532
421.613	158.917	1363.305	1798.769
422.628	137.517	1447.575	1798.846
