DTS Sentinel unit serial number:	SN413079Multiplexer serial number:	ORYXHardware model number:	OX4-SRSoftware version number:	ORYX F/W v4.00 Oryx Data Collector v3.7.2.0data status	okinstallation	princeton_trtdifferential loss correction	single-endedforward channel	channel 1reverse channel	N/Adate	2019/09/18time	21:14:35forward acquisition time	60.00reverse acquisition time	0.00gamma	496.2192k internal	0.2341k external	0.2341temperature offset calibration	1.0023default loss term (dB/km)	0.3790temperature slope calibration	1.0000multiplexer offset coefficient	1.0000multiplexer slope coefficient	1.0000fibre end	0.00T internal ref (°C)	25.89T ext. ref 1 (°C)	0.84T ext. ref 2 (°C)	18.16length (m)	temperature (°C)	Stokes	anti-Stokes-747.200	-152.439	0.293	-0.021
-746.185	-200.000	-0.003	0.089
-745.171	551.603	-0.077	0.186
-744.156	-200.000	0.004	0.102
-743.142	96.054	-0.043	-0.050
-742.127	66.596	-0.357	0.364
-741.112	97.556	0.097	-0.112
-740.098	98.489	0.061	-0.070
-739.083	-145.586	-0.013	0.001
-738.069	30.688	-0.261	0.224
-737.054	-123.841	0.101	-0.016
-736.039	-22.343	-0.275	0.167
-735.025	288.651	0.169	0.306
-734.010	-200.000	-0.006	-0.284
-732.996	-42.241	-0.391	-0.200
-731.981	-200.000	-0.053	-0.249
-730.966	433.208	-0.109	-0.237
-729.952	91.620	0.125	0.141
-728.937	4.090	-0.208	-0.152
-727.923	631.702	-0.124	0.315
-726.908	-59.328	-0.108	-0.047
-725.894	-28.860	-0.385	-0.222
-724.879	-200.000	-0.027	-0.172
-723.864	-168.694	-0.406	0.015
-722.850	53.037	0.281	-0.269
-721.835	800.000	-0.056	-0.188
-720.821	-200.000	0.024	-0.149
-719.806	11.197	0.090	-0.069
-718.791	687.678	0.112	-0.294
-717.777	-200.000	-0.024	0.106
-716.762	-7.125	-0.223	0.152
-715.748	-21.654	-0.121	-0.074
-714.733	-188.093	-0.336	0.004
-713.718	234.076	0.103	-0.170
-712.704	235.438	-0.050	-0.083
-711.689	321.301	0.089	-0.170
-710.675	-79.339	0.268	-0.091
-709.660	-70.168	0.097	0.037
-708.645	136.278	0.094	-0.122
-707.631	-68.659	0.092	-0.036
-706.616	208.247	-0.099	0.155
-705.602	-136.328	-0.241	0.028
-704.587	800.000	0.077	-0.232
-703.572	554.601	-0.013	-0.031
-702.558	-200.000	0.006	0.062
-701.543	-200.000	-0.049	-0.317
-700.529	-71.381	-0.271	-0.102
-699.514	36.778	-0.242	-0.214
-698.499	-129.400	0.216	0.030
-697.485	-83.205	-0.212	-0.068
-696.470	5.655	-0.212	-0.156
-695.456	-91.094	0.084	-0.024
-694.441	800.000	0.115	-0.394
-693.426	-200.000	0.012	0.120
-692.412	-73.340	-0.442	-0.161
-691.397	800.000	-0.068	0.245
-690.383	-200.000	-0.010	0.049
-689.368	-181.393	-0.199	-0.004
-688.354	-96.140	-0.141	-0.038
-687.339	307.308	0.024	0.044
-686.324	-200.000	0.036	-0.342
-685.310	-35.708	-0.106	-0.058
-684.295	-101.511	0.037	-0.009
-683.281	53.430	-0.249	-0.238
-682.266	27.060	-0.350	-0.293
-681.251	-87.829	0.153	0.046
-680.237	-200.000	-0.007	-0.127
-679.222	-9.161	0.113	-0.076
-678.208	-82.365	-0.092	0.030
-677.193	-200.000	0.020	-0.235
-676.178	103.825	-0.277	-0.325
-675.164	-195.760	0.253	-0.002
-674.149	182.921	-0.107	-0.158
-673.135	-200.000	-0.044	0.251
-672.120	-99.872	-0.387	0.097
-671.105	-4.346	-0.123	0.085
-670.091	-1.662	-0.188	0.133
-669.076	-95.790	-0.122	0.033
-668.062	-104.365	-0.251	0.058
-667.047	-200.000	0.019	-0.387
-666.032	373.195	-0.042	0.086
-665.018	-200.000	-0.032	0.280
-664.003	800.000	-0.060	0.169
-662.989	135.075	-0.161	0.209
-661.974	149.132	0.231	0.312
-660.959	171.991	-0.166	0.238
-659.945	-21.396	-0.289	-0.176
-658.930	92.007	0.252	-0.283
-657.916	-75.735	-0.062	-0.022
-656.901	-102.218	-0.302	0.072
-655.886	98.024	-0.111	-0.127
-654.872	145.047	-0.239	0.320
-653.857	-102.311	-0.289	0.069
-652.843	5.329	-0.312	-0.230
-651.828	-123.666	0.120	-0.019
-650.814	-29.840	0.284	-0.162
-649.799	297.636	-0.075	0.138
-648.784	-200.000	0.024	-0.212
-647.770	106.987	-0.052	0.062
-646.755	252.989	0.174	0.296
-645.741	54.999	0.148	-0.143
-644.726	-79.456	0.158	0.053
-643.711	-33.541	-0.342	-0.189
-642.697	-200.000	0.004	-0.138
-641.682	-6.599	-0.064	-0.043
-640.668	800.000	-0.116	-0.380
-639.653	-6.486	-0.326	-0.222
-638.638	-40.002	-0.141	-0.074
-637.624	203.795	0.120	-0.186
-636.609	800.000	-0.008	0.027
-635.595	-200.000	-0.005	-0.211
-634.580	800.000	-0.039	-0.118
-633.565	186.861	0.099	0.148
-632.551	800.000	0.028	-0.120
-631.536	-200.000	-0.033	-0.192
-630.522	59.455	0.156	-0.154
-629.507	635.797	0.028	-0.071
-628.492	-200.000	-0.050	-0.302
-627.478	47.098	-0.140	-0.130
-626.463	98.779	0.057	-0.065
-625.449	-200.000	-0.016	0.147
-624.434	17.351	-0.242	0.192
-623.419	-61.548	-0.193	-0.081
-622.405	13.085	-0.124	-0.096
-621.390	64.931	0.153	-0.155
-620.376	-200.000	0.006	0.204
-619.361	83.098	-0.050	0.054
-618.346	-69.031	0.320	-0.123
-617.332	319.578	-0.225	0.426
-616.317	-146.807	-0.129	0.011
-615.303	-26.620	-0.130	-0.076
-614.288	-126.524	0.130	0.019
-613.273	-27.575	-0.169	0.098
-612.259	800.000	0.052	0.159
-611.244	-200.000	-0.005	0.218
-610.230	-77.096	-0.382	-0.133
-609.215	-139.212	-0.149	-0.016
-608.201	-200.000	-0.051	-0.225
-607.186	-69.851	-0.100	-0.038
-606.171	122.438	-0.166	0.206
-605.157	-36.245	-0.233	0.125
-604.142	617.104	-0.202	-0.505
-603.128	800.000	0.017	0.060
-602.113	-7.150	0.268	-0.181
-601.098	-29.275	0.278	-0.159
-600.084	438.135	0.142	0.309
-599.069	45.867	-0.183	0.169
-598.055	613.183	-0.030	-0.074
-597.040	-200.000	0.006	-0.236
-596.025	77.875	0.130	-0.139
-595.011	71.567	0.082	-0.085
-593.996	177.363	-0.042	-0.061
-592.982	387.242	0.182	-0.375
-591.967	-58.973	0.423	0.182
-590.952	-81.533	0.170	-0.056
-589.938	-182.567	0.348	0.006
-588.923	489.907	-0.195	-0.444
-587.909	25.046	0.143	0.118
-586.894	800.000	-0.027	0.091
-585.879	-66.326	-0.192	-0.076
-584.865	-78.111	-0.081	-0.028
-583.850	-200.000	0.049	0.279
-582.836	-30.478	0.269	0.152
-581.821	-40.988	-0.246	0.127
-580.806	2.047	0.320	-0.230
-579.792	-200.000	-0.037	-0.252
-578.777	275.806	-0.049	-0.087
-577.763	170.190	0.074	-0.106
-576.748	636.741	-0.017	-0.043
-575.733	-92.741	-0.570	0.159
-574.719	101.307	-0.224	-0.260
-573.704	-200.000	-0.009	-0.092
-572.690	143.569	0.063	-0.084
-571.675	-102.181	0.615	0.147
-570.661	128.295	0.141	0.178
-569.646	800.000	-0.048	-0.162
-568.631	-96.653	0.305	-0.080
-567.617	132.719	-0.075	0.096
-566.602	44.787	-0.040	0.036
-565.588	53.345	-0.089	0.085
-564.573	-200.000	-0.006	0.055
-563.558	800.000	-0.062	0.194
-562.544	-200.000	0.014	0.094
-561.529	187.978	0.202	0.301
-560.515	167.615	-0.197	0.279
-559.500	-200.000	0.012	0.207
-558.485	84.372	0.169	0.184
-557.471	113.258	0.061	0.074
-556.456	-200.000	0.012	-0.143
-555.442	-25.239	0.132	-0.078
-554.427	-54.012	0.100	0.045
-553.412	-180.112	-0.196	0.004
-552.398	208.587	0.203	-0.316
-551.383	-200.000	-0.045	0.208
-550.369	64.018	-0.176	-0.176
-549.354	-63.478	0.294	-0.120
-548.339	-200.000	0.028	0.132
-547.325	-200.000	0.034	0.180
-546.310	-23.897	-0.159	-0.094
-545.296	371.508	0.122	-0.246
-544.281	800.000	-0.049	-0.141
-543.266	70.802	-0.230	-0.237
-542.252	-200.000	0.012	0.184
-541.237	328.571	0.188	-0.359
-540.223	-103.914	0.091	-0.021
-539.208	-145.519	0.480	0.043
-538.193	-32.564	-0.347	0.192
-537.179	800.000	0.063	-0.173
-536.164	-37.429	-0.322	-0.171
-535.150	-200.000	-0.008	-0.051
-534.135	-200.000	0.002	-0.018
-533.121	48.248	-0.088	0.082
-532.106	403.722	0.082	0.171
-531.091	319.405	0.159	-0.300
-530.077	800.000	-0.024	-0.099
-529.062	-200.000	0.008	-0.048
-528.048	-19.300	-0.246	0.152
-527.033	-47.033	0.091	0.044
-526.018	-132.780	0.220	-0.028
-525.004	-34.497	0.339	-0.185
-523.989	-104.839	-0.226	0.052
-522.975	800.000	-0.012	-0.051
-521.960	-155.905	-0.183	-0.012
-520.945	-149.934	0.305	-0.024
-519.931	-65.354	-0.108	-0.043
-518.916	450.187	-0.237	-0.519
-517.902	320.557	0.112	0.211
-516.887	-149.870	-0.083	0.006
-515.872	207.356	0.090	-0.140
-514.858	-70.050	-0.140	0.053
-513.843	17.958	-0.493	0.390
-512.829	-41.210	-0.349	0.179
-511.814	-3.404	0.194	0.134
-510.799	150.538	0.073	-0.098
-509.785	800.000	0.086	-0.274
-508.770	33.831	0.189	0.163
-507.756	199.641	0.148	0.225
-506.741	129.758	-0.100	0.127
-505.726	401.454	0.141	-0.294
-504.712	-116.317	-0.408	-0.075
-503.697	-11.701	-0.193	-0.126
-502.683	104.398	-0.168	-0.196
-501.668	-131.716	-0.079	-0.010
-500.653	-90.193	-0.105	-0.030
-499.639	-147.687	-0.435	0.036
-498.624	409.999	0.021	0.043
-497.610	-200.000	0.024	0.452
-496.595	-200.000	-0.010	-0.226
-495.581	-111.254	0.365	0.074
-494.566	-133.684	0.311	0.039
-493.551	351.034	-0.094	-0.186
-492.537	-200.000	0.015	0.169
-491.522	321.150	0.170	0.322
-490.508	-27.928	-0.212	0.122
-489.493	532.491	0.062	-0.146
-488.478	-52.442	-0.159	0.073
-487.464	-157.637	-0.208	-0.012
-486.449	-44.157	-0.063	-0.032
-485.435	800.000	-0.063	0.178
-484.420	-161.171	-0.294	-0.015
-483.405	152.555	-0.091	0.124
-482.391	475.650	0.163	-0.366
-481.376	-200.000	0.016	-0.105
-480.362	-200.000	-0.014	0.231
-479.347	38.064	-0.059	-0.052
-478.332	-200.000	0.009	0.052
-477.318	333.184	-0.185	-0.354
-476.303	552.686	-0.071	-0.170
-475.289	-60.605	0.077	-0.032
-474.274	-103.898	-0.233	0.054
-473.259	-200.000	0.006	0.253
-472.245	-199.220	0.345	-0.002
-471.230	-200.000	0.012	0.110
-470.216	793.875	-0.083	-0.225
-469.201	-167.189	-0.225	0.009
-468.186	-87.309	-0.317	-0.095
-467.172	93.207	0.196	-0.220
-466.157	-200.000	-0.002	0.302
-465.143	39.598	0.184	-0.163
-464.128	137.714	-0.209	-0.272
-463.113	31.557	0.123	0.105
-462.099	-67.866	-0.190	0.073
-461.084	299.830	0.052	0.096
-460.070	-152.849	0.364	-0.026
-459.055	-25.577	-0.192	-0.112
-458.040	-131.899	-0.231	0.030
-457.026	-43.989	-0.101	-0.050
-456.011	-97.417	0.327	-0.084
-454.997	-18.206	-0.208	-0.129
-453.982	226.771	-0.102	-0.163
-452.968	-60.998	0.177	0.074
-451.953	-186.635	-0.135	0.002
-450.938	-56.286	-0.088	-0.039
-449.924	800.000	-0.064	-0.188
-448.909	-200.000	0.003	-0.170
-447.895	55.323	0.028	0.027
-446.880	-200.000	0.003	0.327
-445.865	17.419	-0.167	-0.132
-444.851	-132.514	0.418	-0.053
-443.836	-147.237	0.133	-0.011
-442.822	-175.766	0.291	0.008
-441.807	51.389	-0.217	0.204
-440.792	-200.000	-0.023	0.230
-439.778	-200.000	0.049	0.377
-438.763	26.685	-0.086	0.072
-437.749	-128.562	-0.174	0.024
-436.734	-200.000	0.012	-0.107
-435.719	-93.356	0.022	-0.006
-434.705	-72.777	-0.237	0.086
-433.690	-106.547	0.218	0.048
-432.676	505.556	0.014	-0.031
-431.661	-125.743	-0.396	0.059
-430.646	800.000	-0.071	0.251
-429.632	-200.000	-0.002	0.052
-428.617	196.216	0.058	0.087
-427.603	-190.710	0.123	0.001
-426.588	40.063	-0.185	-0.164
-425.573	114.316	0.090	0.109
-424.559	225.748	-0.096	0.154
-423.544	-25.509	-0.197	0.115
-422.530	-200.000	0.034	-0.321
-421.515	-109.827	-0.350	-0.073
-420.500	3.866	0.111	-0.080
-419.486	37.038	0.250	-0.219
-418.471	-80.363	0.240	0.079
-417.457	-28.718	0.270	-0.154
-416.442	-120.448	0.141	0.024
-415.428	-200.000	0.007	-0.143
-414.413	115.338	0.065	0.079
-413.398	-53.176	-0.248	0.113
-412.384	-56.922	0.263	0.115
-411.369	-119.763	-0.260	-0.044
-410.355	707.856	0.132	-0.346
-409.340	-117.321	-0.263	0.047
-408.325	800.000	0.008	-0.028
-407.311	-98.652	-0.073	0.019
-406.296	800.000	0.053	-0.150
-405.282	-32.684	-0.017	-0.009
-404.267	-200.000	0.004	0.424
-403.252	-12.871	-0.162	0.105
-402.238	-96.713	-0.169	0.044
-401.223	119.619	-0.047	-0.057
-400.209	-200.000	-0.016	0.335
-399.194	-5.959	0.065	0.044
-398.179	800.000	-0.070	0.229
-397.165	131.108	-0.186	0.237
-396.150	-200.000	0.013	0.418
-395.136	218.119	0.036	-0.057
-394.121	51.864	-0.094	-0.089
-393.106	800.000	-0.078	0.310
-392.092	-85.663	0.188	-0.058
-391.077	55.377	-0.081	0.077
-390.063	9.698	0.105	-0.078
-389.048	14.379	0.209	0.161
-388.033	-154.306	-0.094	0.006
-387.019	-200.000	-0.030	-0.213
-386.004	800.000	0.031	0.119
-384.990	217.321	-0.050	0.079
-383.975	-200.000	-0.063	-0.299
-382.960	185.722	0.199	-0.292
-381.946	75.368	0.096	-0.100
-380.931	-89.073	0.318	-0.093
-379.917	-38.090	-0.133	0.070
-378.902	688.189	-0.051	-0.132
-377.888	-1.475	-0.162	0.113
-376.873	22.237	-0.086	-0.070
-375.858	733.586	-0.072	0.191
-374.844	-45.202	0.278	0.136
-373.829	-74.311	0.408	-0.146
-372.815	-200.000	-0.000	-0.004
-371.800	800.000	-0.015	-0.042
-370.785	60.402	-0.080	-0.078
-369.771	33.700	0.261	0.225
-368.756	800.000	0.087	0.251
-367.742	800.000	0.105	-0.360
-366.727	94.160	-0.296	-0.332
-365.712	-22.976	0.120	-0.072
-364.698	-200.000	-0.063	-0.338
-363.683	800.000	0.037	-0.125
-362.669	-83.506	0.156	0.049
-361.654	686.313	0.196	-0.507
-360.639	27.638	0.339	-0.281
-359.625	361.997	-0.076	0.150
-358.610	-28.952	-0.088	0.050
-357.596	-146.969	0.114	-0.010
-356.581	88.282	0.291	0.319
-355.566	70.154	0.234	-0.239
-354.552	800.000	0.062	0.261
-353.537	-44.326	-0.035	-0.017
-352.523	-35.187	-0.147	-0.079
-351.508	-137.852	-0.104	0.011
-350.493	-141.877	-0.381	-0.038
-349.479	-68.253	0.135	-0.052
-348.464	37.262	0.260	0.227
-347.450	430.613	-0.138	-0.295
-346.435	304.861	0.028	0.051
-345.420	599.252	0.021	0.051
-344.406	-21.456	0.210	-0.127
-343.391	-107.989	-0.091	0.019
-342.377	47.073	0.042	0.038
-341.362	-91.168	0.210	-0.060
-340.348	213.462	-0.107	0.167
-339.333	286.084	-0.125	-0.222
-338.318	800.000	-0.051	-0.185
-337.304	-62.723	-0.325	0.133
-336.289	-83.515	0.061	-0.019
-335.275	-200.000	-0.055	0.387
-334.260	-64.611	0.168	-0.067
-333.245	244.461	-0.180	-0.299
-332.231	-200.000	-0.023	0.188
-331.216	-150.617	-0.098	-0.007
-330.202	-53.335	-0.249	-0.113
-329.187	-89.862	0.072	-0.021
-328.172	-70.676	-0.170	0.063
-327.158	17.219	-0.161	0.126
-326.143	-200.000	-0.001	0.370
-325.129	-200.000	0.047	0.218
-324.114	-200.000	-0.045	0.534
-323.099	-200.000	0.055	0.280
-322.085	-153.658	-0.348	-0.024
-321.070	800.000	-0.193	-0.584
-320.056	113.768	-0.171	-0.205
-319.041	-151.320	-0.121	-0.009
-318.026	-7.281	-0.182	-0.121
-317.012	800.000	-0.067	-0.198
-315.997	85.974	-0.058	-0.063
-314.983	75.537	0.199	0.207
-313.968	-200.000	0.001	-0.173
-312.953	-159.056	0.181	-0.010
-311.939	597.593	0.077	0.188
-310.924	-147.390	0.238	-0.020
-309.910	-139.038	-0.415	-0.044
-308.895	-47.374	-0.157	0.075
-307.880	-168.245	0.227	-0.009
-306.866	552.807	-0.117	-0.276
-305.851	800.000	0.072	-0.226
-304.837	336.099	0.209	0.399
-303.822	-163.635	0.197	0.009
-302.807	800.000	0.056	0.233
-301.793	89.212	0.142	0.156
-300.778	172.276	0.149	-0.212
-299.764	-74.902	0.090	-0.032
-298.749	-4.680	0.242	0.165
-297.735	-113.448	0.192	0.037
-296.720	668.449	0.139	-0.353
-295.705	-200.000	-0.001	-0.040
-294.691	-200.000	0.036	-0.303
-293.676	-200.000	0.040	0.238
-292.662	314.209	-0.163	0.303
-291.647	101.896	-0.320	0.368
-290.632	-14.655	0.445	-0.282
-289.618	800.000	0.116	0.366
-288.603	193.221	0.049	0.073
-287.589	-200.000	0.080	-0.468
-286.574	800.000	0.029	0.103
-285.559	800.000	0.070	0.227
-284.545	198.941	-0.081	-0.123
-283.530	375.781	-0.020	0.040
-282.516	-11.014	-0.369	0.240
-281.501	-27.962	0.239	-0.136
-280.486	-78.752	-0.261	-0.088
-279.472	-95.832	-0.190	-0.050
-278.457	88.860	-0.101	0.110
-277.443	20.032	-0.248	0.197
-276.428	-47.242	-0.367	-0.176
-275.413	22.486	0.182	-0.147
-274.399	-46.413	-0.175	-0.085
-273.384	-113.663	0.087	-0.017
-272.370	-136.396	0.126	0.014
-271.355	40.388	0.112	0.099
-270.340	12.377	-0.106	0.081
-269.326	367.302	0.061	0.122
-268.311	-118.304	-0.245	0.043
-267.297	685.121	-0.176	-0.452
-266.282	438.116	0.063	-0.136
-265.267	-180.884	0.509	-0.010
-264.253	559.473	-0.076	-0.180
-263.238	-6.006	0.071	-0.048
-262.224	-63.240	0.183	-0.074
-261.209	388.608	0.229	0.465
-260.195	-200.000	0.033	0.170
-259.180	11.911	0.070	0.053
-258.165	-200.000	0.095	0.450
-257.151	442.379	-0.128	0.275
-256.136	-26.152	0.260	0.150
-255.122	577.280	0.079	-0.191
-254.107	239.188	0.144	0.236
-253.092	-190.695	0.202	-0.002
-252.078	111.500	-0.324	-0.384
-251.063	560.091	0.028	-0.066
-250.049	630.295	0.068	-0.168
-249.034	-174.127	0.180	0.005
-248.019	-106.083	0.151	0.033
-247.005	-46.794	-0.206	0.099
-245.990	-200.000	0.048	0.342
-244.976	-200.000	0.057	0.286
-243.961	13.762	0.036	-0.027
-242.946	312.235	-0.096	-0.177
-241.932	163.692	0.220	-0.304
-240.917	422.509	-0.190	0.401
-239.903	-64.371	0.138	0.055
-238.888	-145.233	-0.340	0.030
-237.873	104.503	-0.039	0.045
-236.859	800.000	0.069	0.264
-235.844	-200.000	-0.024	0.259
-234.830	511.098	0.107	0.246
-233.815	-19.796	0.067	-0.041
-232.800	800.000	0.048	0.149
-231.786	254.831	-0.107	-0.180
-230.771	215.509	0.028	0.044
-229.757	-112.854	0.179	-0.035
-228.742	-95.487	0.105	0.028
-227.727	-91.873	-0.194	0.054
-226.713	1.174	0.132	0.093
-225.698	-166.868	-0.460	0.019
-224.684	270.982	0.184	0.318
-223.669	57.808	0.063	-0.060
-222.655	-200.000	0.004	-0.269
-221.640	-72.665	-0.338	-0.122
-220.625	-0.352	-0.162	-0.113
-219.611	-42.222	-0.276	0.138
-218.596	-71.064	-0.144	-0.053
-217.582	14.459	0.131	-0.100
-216.567	-200.000	0.050	-0.260
-215.552	-89.074	0.289	0.084
-214.538	129.806	0.058	0.072
-213.523	83.312	0.016	-0.017
-212.509	311.981	-0.168	-0.309
-211.494	-64.000	0.173	0.069
-210.479	-31.981	0.352	0.193
-209.465	-89.644	0.205	-0.059
-208.450	-55.390	-0.316	-0.139
-207.436	129.739	0.177	0.223
-206.421	32.597	0.294	-0.250
-205.406	23.637	0.319	-0.258
-204.392	182.142	-0.164	-0.237
-203.377	-200.000	-0.018	0.306
-202.363	-85.224	-0.175	-0.054
-201.348	800.000	0.085	-0.288
-200.333	-113.730	0.113	-0.022
-199.319	205.450	-0.139	-0.211
-198.304	-110.919	-0.232	0.047
-197.290	-26.936	0.053	-0.031
-196.275	18.090	0.292	0.228
-195.260	-123.668	-0.173	0.027
-194.246	-21.964	0.133	0.080
-193.231	800.000	-0.039	-0.109
-192.217	-29.117	-0.092	-0.052
-191.202	-200.000	0.174	0.000
-190.187	-200.000	0.016	0.198
-189.173	163.146	-0.193	-0.265
-188.158	-95.864	-0.159	0.042
-187.144	293.624	0.113	0.202
-186.129	19.408	-0.178	0.140
-185.114	800.000	0.026	0.088
-184.100	-86.852	-0.050	0.015
-183.085	16.061	-0.067	0.052
-182.071	-200.000	-0.014	-0.302
-181.056	800.000	0.062	0.187
-180.042	-67.349	0.416	0.160
-179.027	439.459	-0.117	-0.250
-178.012	-200.000	-0.000	-0.080
-176.998	-89.210	0.245	-0.071
-175.983	-200.000	0.027	-0.218
-174.969	-146.984	0.221	0.019
-173.954	94.880	0.047	-0.053
-172.939	360.665	0.044	-0.087
-171.925	-178.748	0.250	0.006
-170.910	-66.182	0.185	-0.072
-169.896	-5.100	-0.228	0.154
-168.881	-145.626	-0.267	-0.023
-167.866	-200.000	0.003	-0.286
-166.852	800.000	0.172	0.541
-165.837	324.887	0.048	0.091
-164.823	-200.000	-0.016	0.192
-163.808	78.588	0.210	0.220
-162.793	-49.462	0.134	0.062
-161.779	-5.478	-0.208	-0.140
-160.764	321.264	-0.154	0.286
-159.750	97.005	0.294	-0.331
-158.735	-71.678	0.246	0.090
-157.720	-32.941	0.191	0.104
-156.706	460.393	0.153	0.334
-155.691	306.116	-0.291	0.529
-154.677	12.725	-0.170	-0.128
-153.662	-190.950	-0.097	0.001
-152.647	43.239	-0.351	0.314
-151.633	-108.357	-0.274	-0.058
-150.618	-121.468	0.358	0.058
-149.604	-81.783	0.134	0.043
-148.589	440.672	0.098	0.210
-147.574	304.344	0.105	-0.190
-146.560	-105.449	-0.068	0.015
-145.545	800.000	-0.105	0.319
-144.531	-36.700	0.078	0.041
-143.516	-200.000	-0.010	0.178
-142.502	-150.484	0.156	0.012
-141.487	149.345	0.159	-0.211
-140.472	-112.437	0.215	-0.042
-139.458	72.728	0.121	-0.124
-138.443	16.129	0.085	-0.065
-137.429	800.000	0.118	0.369
-136.414	-87.891	-0.177	0.052
-135.399	42.995	0.159	-0.142
-134.385	-127.411	-0.082	-0.012
-133.370	7.777	-0.298	-0.218
-132.356	-200.000	-0.035	0.378
-131.341	-110.783	0.061	-0.012
-130.326	216.007	-0.062	0.096
-129.312	25.566	0.219	0.178
-128.297	-50.051	0.232	0.107
-127.283	-44.370	-0.251	0.123
-126.268	259.253	0.068	-0.115
-125.253	800.000	0.043	0.149
-124.239	800.000	-0.024	-0.099
-123.224	-14.137	0.179	0.113
-122.210	-181.772	-0.245	0.005
-121.195	35.215	0.086	0.074
-120.180	-91.161	0.566	-0.159
-119.166	800.000	-0.022	-0.078
-118.151	122.931	-0.219	0.268
-117.137	306.112	-0.117	0.212
-116.122	-200.000	-0.036	0.339
-115.107	-58.455	-0.174	0.074
-114.093	-200.000	-0.066	-0.433
-113.078	-36.609	-0.138	0.073
-112.064	-89.313	0.223	-0.064
-111.049	149.775	-0.310	0.410
-110.034	74.977	0.116	-0.120
-109.020	-94.704	0.258	0.069
-108.005	-180.738	-0.111	-0.002
-106.991	800.000	-0.027	-0.077
-105.976	800.000	0.051	-0.197
-104.962	-200.000	0.011	-0.221
-103.947	31.572	0.164	0.138
-102.932	-163.483	0.362	-0.017
-101.918	-87.535	-0.238	-0.070
-100.903	-200.000	0.029	0.225
-99.889	-98.282	0.206	-0.052
-98.874	800.000	0.041	-0.160
-97.859	346.544	-0.079	-0.151
-96.845	-14.410	-0.185	0.116
-95.830	105.495	0.100	0.116
-94.816	769.230	0.081	0.215
-93.801	-92.781	-0.188	-0.051
-92.786	319.613	0.133	0.247
-91.772	-88.362	-0.375	0.109
-90.757	800.000	-0.079	0.255
-89.743	71.930	-0.096	0.098
-88.728	-52.667	0.230	-0.104
-87.713	-47.793	0.353	-0.167
-86.699	227.463	0.123	0.195
-85.684	457.150	-0.032	-0.070
-84.670	-113.515	0.296	0.057
-83.655	36.864	0.364	0.314
-82.640	127.466	-0.146	0.180
-81.626	-71.536	-0.164	0.060
-80.611	-109.837	-0.085	0.017
-79.597	318.319	0.186	0.344
-78.582	104.590	-0.089	0.103
-77.567	-17.610	0.321	-0.197
-76.553	-200.000	0.023	0.261
-75.538	486.979	0.125	0.278
-74.524	403.703	0.064	-0.132
-73.509	-19.201	0.137	0.083
-72.494	4.421	0.294	0.210
-71.480	-127.540	-0.273	-0.039
-70.465	-200.000	-0.001	-0.130
-69.451	-33.007	-0.257	0.139
-68.436	-189.718	0.203	-0.002
-67.422	-200.000	-0.036	-0.172
-66.407	-200.000	-0.048	-0.262
-65.392	105.891	0.157	0.181
-64.378	58.629	-0.198	0.190
-63.363	51.781	-0.134	-0.125
-62.349	74.163	-0.177	0.182
-61.334	-4.279	-1.360	-0.918
-60.319	292.066	0.425	0.755
-59.305	118.914	-0.919	-1.108
-58.290	223.305	0.999	1.572
-57.276	556.898	0.715	1.680
-56.261	-200.000	119.043	631.210
-55.246	416.177	1535.989	3196.572
-54.232	148.027	2685.834	3534.395
-53.217	98.437	2127.740	2392.506
-52.203	36.816	1573.023	1356.298
-51.188	29.185	1318.857	1092.077
-50.173	26.428	1281.105	1044.871
-49.159	50.757	1345.915	1243.112
-48.144	49.013	1359.012	1244.792
-47.130	29.235	1309.345	1084.320
-46.115	26.058	1290.449	1050.170
-45.100	25.830	1285.378	1044.685
-44.086	25.727	1282.995	1042.109
-43.071	25.621	1280.851	1039.714
-42.057	25.643	1279.063	1038.349
-41.042	25.718	1277.423	1037.409
-40.027	25.719	1275.691	1035.963
-39.013	25.847	1273.459	1034.846
-37.998	25.859	1272.162	1033.819
-36.984	25.871	1270.126	1032.194
-35.969	25.891	1268.605	1031.033
-34.954	25.994	1266.577	1029.932
-33.940	25.857	1265.563	1028.284
-32.925	25.996	1263.902	1027.684
-31.911	25.878	1262.552	1025.876
-30.896	26.010	1261.320	1025.586
-29.881	26.007	1260.107	1024.539
-28.867	26.000	1258.657	1023.278
-27.852	26.059	1257.313	1022.479
-26.838	25.949	1256.112	1020.839
-25.823	26.031	1254.827	1020.219
-24.809	25.886	1253.759	1018.493
-23.794	25.950	1252.438	1017.741
-22.779	25.954	1250.892	1016.466
-21.765	25.958	1249.627	1015.418
-20.750	25.960	1248.367	1014.368
-19.736	25.920	1247.476	1013.379
-18.721	25.822	1246.077	1011.652
-17.706	25.941	1244.605	1011.083
-16.692	25.865	1244.079	1010.189
-15.677	25.834	1242.995	1009.094
-14.663	25.818	1241.583	1007.817
-13.648	25.745	1240.825	1006.753
-12.633	25.806	1239.609	1006.073
-11.619	25.775	1239.452	1005.729
-10.604	25.875	1238.326	1005.336
-9.590	25.857	1236.879	1004.022
-8.575	25.788	1235.635	1002.587
-7.560	25.907	1234.743	1002.484
-6.546	25.796	1234.296	1001.465
-5.531	25.798	1233.526	1000.810
-4.517	25.847	1232.311	1000.058
-3.502	25.874	1231.317	999.361
-2.487	25.796	1230.737	998.416
-1.473	25.716	1226.219	994.272
-0.458	23.755	1211.087	971.254
0.556	18.640	1194.805	929.834
1.571	14.582	1200.765	912.245
2.586	13.578	1216.003	918.176
3.600	13.493	1204.084	908.630
4.615	10.311	1134.283	839.407
5.629	4.113	1064.838	757.710
6.644	1.109	1047.427	730.786
7.659	0.708	1045.610	727.524
8.673	0.782	1044.543	727.074
9.688	0.772	1043.840	726.474
10.702	1.079	1041.221	726.054
11.717	4.744	1045.877	746.851
12.731	11.741	1054.489	786.689
13.746	16.473	1060.050	813.598
14.761	17.482	1060.978	819.094
15.775	16.722	1059.349	814.110
16.790	15.789	1057.462	808.109
17.804	15.081	1055.973	803.504
18.819	14.799	1054.894	801.259
19.834	14.412	1054.118	798.744
20.848	14.229	1053.254	797.141
21.863	14.066	1051.828	795.215
22.877	13.739	1051.720	793.496
23.892	13.878	1050.822	793.413
24.907	13.700	1050.262	792.068
25.921	13.841	1049.226	791.892
26.936	13.820	1048.808	791.405
27.950	14.007	1047.386	791.154
28.965	13.864	1046.509	789.741
29.980	14.058	1044.893	789.372
30.994	14.102	1044.121	788.930
32.009	14.158	1042.808	788.131
33.023	14.113	1042.240	787.421
34.038	14.050	1041.062	786.163
35.053	13.963	1040.452	785.218
36.067	14.048	1039.920	785.151
37.082	13.963	1038.729	783.781
38.096	14.129	1037.451	783.529
39.111	14.014	1037.463	782.930
40.126	13.980	1036.108	781.678
41.140	13.857	1034.851	780.081
42.155	13.794	1033.928	779.021
43.169	13.796	1032.908	778.192
44.184	13.852	1031.894	777.620
45.199	13.840	1030.555	776.485
46.213	13.876	1029.577	775.851
47.228	13.889	1028.440	774.987
48.242	13.903	1027.261	774.093
49.257	13.900	1026.325	773.307
50.271	14.011	1025.419	773.070
51.286	13.974	1025.226	772.685
52.301	13.964	1024.464	771.997
53.315	13.910	1023.247	770.759
54.330	13.741	1022.240	769.147
55.344	13.858	1021.062	768.738
56.359	13.859	1020.166	767.999
57.374	13.828	1019.449	767.249
58.388	13.877	1018.586	766.758
59.403	13.669	1018.124	765.383
60.417	13.916	1016.570	765.284
61.432	13.887	1016.245	764.839
62.447	13.785	1015.398	763.665
63.461	13.887	1014.368	763.289
64.476	13.802	1013.783	762.390
65.490	13.737	1013.456	761.780
66.505	13.823	1012.387	761.304
67.520	13.837	1011.561	760.680
68.534	13.651	1011.226	759.510
69.549	13.818	1010.470	759.639
70.563	13.803	1009.509	758.777
71.578	13.883	1008.654	758.433
72.593	13.737	1007.918	757.146
73.607	13.733	1007.848	757.010
74.622	13.816	1006.526	756.330
75.636	13.858	1005.760	755.879
76.651	13.791	1005.149	755.044
77.666	13.717	1004.875	754.436
78.680	13.787	1004.067	754.083
79.695	13.733	1003.032	752.994
80.709	13.724	1002.921	752.800
81.724	13.879	1001.974	752.726
82.739	13.919	1001.326	752.357
83.753	13.890	1000.702	751.687
84.768	13.978	999.738	751.294
85.782	14.028	998.522	750.541
86.797	13.962	998.031	749.806
87.812	13.901	996.912	748.626
88.826	13.937	996.288	748.254
89.841	13.960	995.002	747.325
90.855	13.989	994.300	746.861
91.870	13.978	993.501	746.144
92.884	14.172	992.423	746.142
93.899	14.092	991.596	745.095
94.914	14.102	990.578	744.309
95.928	14.012	990.376	743.686
96.943	14.091	989.477	743.301
97.957	14.075	988.500	742.429
98.972	14.002	987.937	741.613
99.987	14.014	986.768	740.725
101.001	14.177	985.582	740.493
102.016	13.968	985.675	739.567
103.030	14.126	984.426	739.267
104.045	14.087	983.684	738.470
105.060	13.958	983.108	737.400
106.074	13.914	981.969	736.287
107.089	13.982	980.372	735.325
108.103	13.870	979.976	734.467
109.118	13.926	979.157	734.037
110.133	13.904	978.385	733.298
111.147	13.846	977.542	732.341
112.162	13.864	977.078	732.012
113.176	13.948	976.086	731.571
114.191	13.942	975.486	731.032
115.206	13.969	974.624	730.438
116.220	13.959	973.800	729.713
117.235	14.023	972.724	729.125
118.249	13.819	972.177	727.755
119.264	14.014	971.230	727.837
120.279	13.983	970.610	727.170
121.293	13.814	969.797	725.759
122.308	13.927	968.913	725.527
123.322	14.061	967.400	724.912
124.337	13.996	966.559	723.935
125.352	13.943	966.153	723.337
126.366	13.955	964.712	722.248
127.381	13.830	963.436	720.684
128.395	13.943	962.770	720.611
129.410	13.905	962.062	719.852
130.424	13.902	961.213	719.143
131.439	14.018	960.229	718.843
132.454	13.931	959.612	717.945
133.468	14.067	958.748	717.820
134.483	14.056	957.858	717.043
135.497	13.987	957.051	716.077
136.512	13.942	956.222	715.202
137.527	13.874	955.271	714.135
138.541	14.013	954.623	714.182
139.556	14.068	953.682	713.652
140.570	14.116	953.055	713.326
141.585	14.080	952.618	712.783
142.600	14.151	951.440	712.140
143.614	14.114	950.880	711.501
144.629	14.209	950.065	711.234
145.643	14.255	948.808	710.427
146.658	14.268	947.961	709.786
147.673	14.114	947.288	708.563
148.687	14.006	946.680	707.585
149.702	13.993	945.982	706.943
150.716	14.206	944.788	706.896
151.731	14.208	943.977	706.233
152.746	14.119	943.710	705.593
153.760	14.156	942.828	705.029
154.775	14.250	942.384	705.033
155.789	14.243	941.829	704.526
156.804	14.263	941.140	704.034
157.819	14.271	940.420	703.468
158.833	14.256	939.671	702.778
159.848	14.286	939.498	702.714
160.862	14.290	938.182	701.685
161.877	14.321	937.315	701.104
162.892	14.146	936.565	699.748
163.906	14.391	935.151	699.656
164.921	14.108	934.643	698.026
165.935	14.317	933.845	698.246
166.950	14.230	933.209	697.342
167.964	14.272	932.619	697.019
168.979	14.233	931.482	695.941
169.994	14.302	930.358	695.330
171.008	14.312	930.049	695.080
172.023	14.347	929.564	694.800
173.037	14.428	928.634	694.381
174.052	14.388	927.838	693.557
175.067	14.324	927.354	692.869
176.081	14.382	926.587	692.474
177.096	14.370	926.102	692.001
178.110	14.419	925.157	691.439
179.125	14.427	924.715	691.078
180.140	14.470	924.170	690.788
181.154	14.397	924.111	690.380
182.169	14.466	923.084	689.840
183.183	14.596	922.131	689.602
184.198	14.561	921.646	689.035
185.213	14.579	920.751	688.380
186.227	14.702	920.108	688.344
187.242	14.608	919.847	687.700
188.256	14.668	919.235	687.427
189.271	14.691	918.310	686.771
190.286	14.440	917.901	685.375
191.300	14.499	916.975	684.863
192.315	14.404	916.807	684.285
193.329	14.477	915.954	683.888
194.344	14.548	915.241	683.585
195.359	14.500	914.756	682.967
196.373	14.711	913.892	683.124
197.388	14.716	913.387	682.710
198.402	14.683	913.270	682.424
199.417	14.656	912.431	681.627
200.432	14.847	912.021	682.042
201.446	14.890	911.316	681.627
202.461	14.886	910.820	681.183
203.475	14.875	910.345	680.719
204.490	14.783	909.087	679.347
205.504	14.703	908.880	678.804
206.519	14.697	908.276	678.268
207.534	14.883	907.263	678.209
208.548	14.881	906.318	677.435
209.563	14.881	905.963	677.109
210.577	14.726	905.827	676.318
211.592	14.944	904.644	676.257
212.607	14.924	903.992	675.631
213.621	15.025	903.156	675.354
214.636	14.942	902.302	674.319
215.650	14.988	901.555	673.889
216.665	15.098	901.180	673.989
217.680	14.972	900.815	673.151
218.694	15.069	899.965	672.845
219.709	15.152	899.148	672.508
220.723	14.948	898.536	671.172
221.738	15.087	897.810	671.130
222.753	15.080	897.369	670.712
223.767	15.092	896.642	670.156
224.782	15.163	896.214	670.060
225.796	15.240	895.446	669.736
226.811	15.085	895.065	668.772
227.826	15.172	894.333	668.513
228.840	15.274	893.110	667.948
229.855	15.306	892.207	667.340
230.869	15.113	891.667	666.108
231.884	15.166	891.603	666.211
232.899	15.188	890.579	665.478
233.913	15.167	889.789	664.742
234.928	15.063	889.311	663.915
235.942	15.101	889.019	663.787
236.957	15.264	888.441	663.944
237.972	15.297	887.265	663.136
238.986	15.167	886.907	662.297
240.001	15.161	886.135	661.637
241.015	15.203	885.521	661.288
242.030	15.170	884.951	660.674
243.045	15.257	884.608	660.703
244.059	15.212	884.097	660.082
245.074	15.387	883.009	659.901
246.088	15.342	882.679	659.421
247.103	15.339	882.061	658.887
248.117	15.469	881.421	658.861
249.132	15.520	880.782	658.527
250.147	15.456	880.386	657.920
251.161	15.504	879.490	657.382
252.176	15.601	878.643	657.069
253.190	15.516	878.117	656.286
254.205	15.572	877.290	655.829
255.220	15.594	876.746	655.449
256.234	15.611	876.250	655.086
257.249	15.509	875.763	654.268
258.263	15.783	874.429	654.279
259.278	15.768	873.595	653.536
260.293	15.699	873.920	653.454
261.307	15.726	873.167	652.939
262.322	15.962	871.803	652.775
263.336	16.000	871.621	652.730
264.351	15.837	871.057	651.616
265.366	15.708	870.655	650.762
266.380	15.962	869.693	650.964
267.395	15.974	868.826	650.303
268.409	15.821	868.497	649.410
269.424	15.712	867.917	648.501
270.439	15.866	866.914	648.285
271.453	15.898	866.217	647.832
272.468	15.929	865.903	647.658
273.482	15.884	865.430	647.072
274.497	16.030	864.244	646.691
275.512	15.939	863.934	646.052
276.526	15.999	863.471	645.877
277.541	15.975	863.167	645.500
278.555	15.959	862.636	644.987
279.570	16.089	862.062	644.997
280.585	16.292	861.209	645.079
281.599	16.052	860.323	643.442
282.614	16.094	859.862	643.200
283.628	16.164	859.116	642.850
284.643	16.029	858.158	641.566
285.657	16.132	857.956	641.749
286.672	16.237	857.431	641.697
287.687	16.178	856.899	641.019
288.701	16.112	856.207	640.192
289.716	16.195	855.654	640.040
290.730	16.131	855.132	639.350
291.745	16.354	854.201	639.439
292.760	16.227	853.942	638.711
293.774	16.327	853.373	638.607
294.789	16.353	852.379	637.903
295.803	16.257	851.732	637.000
296.818	16.307	851.097	636.658
297.833	16.284	850.594	636.139
298.847	16.279	850.136	635.719
299.862	16.343	849.531	635.453
300.876	16.326	848.966	634.910
301.891	16.414	848.335	634.714
302.906	16.380	848.183	634.414
303.920	16.565	847.070	634.219
304.935	16.543	846.946	633.989
305.949	16.551	845.931	633.201
306.964	16.494	845.170	632.362
307.979	16.497	844.946	632.151
308.993	16.539	843.983	631.532
310.008	16.460	843.754	631.008
311.022	16.538	843.246	630.866
312.037	16.634	842.583	630.671
313.052	16.564	842.229	630.091
314.066	16.658	841.426	629.784
315.081	16.495	841.016	628.815
316.095	16.593	840.230	628.534
317.110	16.502	839.970	627.948
318.125	16.428	839.522	627.281
319.139	16.591	838.938	627.394
320.154	16.615	838.384	627.011
321.168	16.633	838.035	626.764
322.183	16.611	837.446	626.186
323.197	16.649	837.045	625.969
324.212	16.692	835.897	625.216
325.227	16.643	835.624	624.774
326.241	16.597	835.179	624.218
327.256	16.774	834.322	624.175
328.270	16.728	833.703	623.487
329.285	16.744	833.267	623.166
330.300	16.811	832.609	622.864
331.314	16.790	832.496	622.648
332.329	16.738	832.079	622.089
333.343	16.750	831.772	621.846
334.358	16.882	831.019	621.715
335.373	16.895	830.527	621.339
336.387	16.868	830.437	621.117
337.402	16.855	830.249	620.874
338.416	16.815	830.127	620.580
339.431	16.834	829.629	620.223
340.446	16.979	829.039	620.258
341.460	17.051	828.576	620.121
342.475	17.037	827.905	619.512
343.489	17.052	827.790	619.426
344.504	17.045	827.105	618.833
345.519	17.204	826.437	618.860
346.533	17.072	826.260	618.189
347.548	17.053	825.900	617.796
348.562	17.178	824.833	617.397
349.577	17.155	824.368	616.910
350.592	17.054	824.269	616.416
351.606	17.012	823.643	615.741
352.621	17.067	822.628	615.129
353.635	17.162	822.315	615.182
354.650	17.165	821.635	614.629
355.665	17.078	820.995	613.783
356.679	17.121	820.171	613.267
357.694	17.148	819.487	612.799
358.708	17.217	818.908	612.562
359.723	17.270	818.414	612.329
360.738	17.227	817.928	611.756
361.752	17.271	817.410	611.472
362.767	17.300	816.757	611.036
363.781	17.301	816.209	610.575
364.796	17.276	815.717	610.061
365.810	17.413	815.433	610.285
366.825	17.463	814.970	610.064
367.840	17.428	814.510	609.542
368.854	17.429	813.826	608.979
369.869	17.482	813.685	609.009
370.883	17.435	813.173	608.403
371.898	17.461	812.922	608.255
372.913	17.598	812.338	608.254
373.927	17.522	812.069	607.728
374.942	17.511	811.646	607.319
375.956	17.601	811.453	607.442
376.971	17.511	810.625	606.445
377.986	17.597	810.309	606.462
379.000	17.789	809.733	606.663
380.015	17.627	809.363	605.755
381.029	17.748	808.570	605.536
382.044	17.686	807.951	604.801
383.059	17.668	807.273	604.175
384.073	17.774	806.750	604.106
385.088	17.778	806.218	603.670
386.102	17.635	805.809	602.804
387.117	17.768	805.047	602.649
388.132	17.689	805.041	602.312
389.146	17.628	804.480	601.625
390.161	17.735	803.759	601.409
391.175	17.760	803.377	601.160
392.190	17.887	802.688	601.035
393.205	17.890	801.997	600.476
394.219	17.854	801.955	600.264
395.234	17.791	801.486	599.640
396.248	17.760	801.346	599.371
397.263	17.817	800.920	599.201
398.278	17.719	800.465	598.464
399.292	17.874	799.858	598.503
400.307	17.870	799.423	598.107
401.321	17.664	799.438	597.343
402.336	17.763	798.850	597.200
403.350	17.796	798.263	596.823
404.365	17.916	797.722	596.787
405.380	18.053	797.027	596.691
406.394	17.986	796.699	596.160
407.409	18.039	796.191	595.911
408.423	18.123	795.996	596.006
409.438	18.143	795.623	595.741
410.453	18.104	795.171	595.215
411.467	18.175	794.829	595.152
412.482	18.218	794.128	594.724
413.496	18.292	793.835	594.710
414.511	18.243	793.819	594.477
415.526	18.353	793.161	594.313
416.540	18.230	792.509	593.343
417.555	18.393	791.846	593.362
418.569	18.258	791.684	592.720
419.584	18.520	791.421	593.376
420.599	18.281	790.815	592.045
421.613	115.842	1296.395	1487.441
422.628	99.736	1370.040	1487.539
