DTS Sentinel unit serial number:	SN413079Multiplexer serial number:	ORYXHardware model number:	OX4-SRSoftware version number:	ORYX F/W v4.00 Oryx Data Collector v3.7.2.0data status	okinstallation	princeton_trtdifferential loss correction	single-endedforward channel	channel 1reverse channel	N/Adate	2019/09/13time	10:14:35forward acquisition time	60.00reverse acquisition time	0.00gamma	496.2192k internal	0.2324k external	0.2324temperature offset calibration	1.0163default loss term (dB/km)	0.3790temperature slope calibration	1.0000multiplexer offset coefficient	1.0000multiplexer slope coefficient	1.0000fibre end	0.00T internal ref (°C)	30.69T ext. ref 1 (°C)	4.53T ext. ref 2 (°C)	27.86length (m)	temperature (°C)	Stokes	anti-Stokes-747.200	800.000	-0.051	0.180
-746.185	-105.136	-0.255	-0.059
-745.171	-200.000	0.030	0.292
-744.156	320.678	-0.024	0.046
-743.142	-8.963	0.070	-0.047
-742.127	49.104	0.068	-0.064
-741.112	309.702	-0.058	0.109
-740.098	-200.000	-0.014	-0.152
-739.083	-122.762	0.120	-0.020
-738.069	800.000	-0.068	0.197
-737.054	-33.938	-0.194	0.108
-736.039	-14.015	-0.348	0.227
-735.025	296.583	0.186	0.345
-734.010	82.965	-0.210	-0.230
-732.996	103.936	-0.220	0.261
-731.981	-200.000	-0.032	0.311
-730.966	770.105	-0.026	-0.071
-729.952	-9.646	0.055	0.037
-728.937	-200.000	0.016	-0.314
-727.923	-152.236	-0.263	0.019
-726.908	45.221	0.113	0.105
-725.894	142.504	0.275	-0.368
-724.879	800.000	-0.027	-0.077
-723.864	-190.124	-0.393	-0.004
-722.850	155.563	-0.177	-0.246
-721.835	-78.116	0.435	-0.151
-720.821	18.519	0.089	-0.072
-719.806	-70.535	0.182	-0.069
-718.791	-111.318	-0.042	-0.009
-717.777	4.353	-0.122	-0.090
-716.762	-200.000	-0.064	-0.413
-715.748	-27.832	-0.515	-0.301
-714.733	180.416	-0.073	-0.108
-713.718	637.894	-0.091	0.232
-712.704	42.618	-0.079	0.073
-711.689	693.878	0.060	-0.159
-710.675	-11.901	-0.173	-0.114
-709.660	-68.095	-0.146	-0.057
-708.645	202.442	0.082	0.128
-707.631	-200.000	-0.032	-0.166
-706.616	-200.000	-0.075	-0.395
-705.602	30.164	-0.283	0.243
-704.587	-200.000	-0.024	-0.208
-703.572	498.499	-0.088	0.203
-702.558	66.261	-0.159	0.162
-701.543	230.002	0.158	-0.260
-700.529	401.791	-0.131	-0.277
-699.514	800.000	0.125	-0.525
-698.499	-200.000	-0.007	-0.039
-697.485	568.712	0.105	-0.256
-696.470	800.000	0.078	-0.343
-695.456	-83.447	-0.271	-0.088
-694.441	22.095	-0.236	-0.194
-693.426	114.190	-0.095	-0.117
-692.412	-117.717	0.153	0.028
-691.397	-200.000	0.035	-0.640
-690.383	-48.538	0.173	0.084
-689.368	-77.898	0.429	-0.149
-688.354	-200.000	-0.024	-0.209
-687.339	-98.279	-0.271	-0.070
-686.324	-106.860	0.058	-0.013
-685.310	-169.136	-0.165	-0.006
-684.295	-200.000	-0.004	-0.032
-683.281	-200.000	0.025	-0.273
-682.266	-38.167	-0.138	0.074
-681.251	800.000	-0.038	0.123
-680.237	800.000	-0.062	-0.177
-679.222	70.307	-0.257	-0.267
-678.208	203.373	-0.218	-0.340
-677.193	262.921	0.064	-0.111
-676.178	46.117	0.138	0.129
-675.164	-82.437	-0.045	-0.015
-674.149	102.848	-0.399	0.470
-673.135	17.301	-0.053	0.042
-672.120	85.429	0.182	0.201
-671.105	5.971	-0.141	0.105
-670.091	87.433	0.238	-0.265
-669.076	139.081	0.110	-0.145
-668.062	110.979	0.094	-0.114
-667.047	224.718	-0.153	-0.249
-666.032	-134.619	-0.144	-0.018
-665.018	330.275	-0.145	-0.281
-664.003	-54.047	0.189	0.086
-662.989	363.396	0.052	0.106
-661.974	-110.646	0.280	-0.058
-660.959	186.130	-0.084	0.126
-659.945	692.942	0.111	0.293
-658.930	800.000	-0.045	-0.179
-657.916	-127.585	0.284	0.041
-656.901	608.633	0.146	-0.367
-655.886	416.812	0.121	0.259
-654.872	13.101	-0.188	0.147
-653.857	125.317	-0.171	-0.217
-652.843	-200.000	0.037	-0.242
-651.828	120.466	-0.068	0.085
-650.814	137.284	0.195	-0.256
-649.799	-130.769	0.300	-0.041
-648.784	242.237	-0.041	-0.068
-647.770	242.438	-0.152	-0.256
-646.755	-200.000	0.054	-0.258
-645.741	-94.843	0.170	0.046
-644.726	-200.000	-0.033	-0.173
-643.711	-22.878	-0.290	-0.176
-642.697	-200.000	0.036	0.308
-641.682	431.619	-0.097	-0.212
-640.668	800.000	-0.045	0.137
-639.653	158.801	0.089	0.124
-638.638	-80.287	0.272	0.091
-637.624	-200.000	0.027	-0.599
-636.609	-200.000	-0.043	-0.415
-635.595	-200.000	-0.026	-0.118
-634.580	-29.599	-0.402	-0.231
-633.565	449.841	-0.128	0.284
-632.551	-191.387	-0.092	0.001
-631.536	-92.489	0.263	-0.074
-630.522	-107.071	0.307	-0.068
-629.507	-41.239	-0.200	0.104
-628.492	-29.894	0.090	0.052
-627.478	306.480	0.173	0.324
-626.463	-109.678	-0.304	-0.064
-625.449	-2.373	-0.172	-0.121
-624.434	-43.105	0.073	-0.037
-623.419	-47.385	0.179	0.087
-622.405	-5.177	-0.407	-0.281
-621.390	75.736	0.385	0.409
-620.376	67.998	0.236	-0.243
-619.361	90.459	0.113	0.127
-618.346	193.864	-0.161	-0.245
-617.332	163.185	0.232	0.327
-616.317	21.374	-0.126	0.103
-615.303	200.817	-0.073	-0.112
-614.288	25.415	0.158	0.132
-613.273	111.379	-0.111	-0.135
-612.259	1.969	0.149	-0.108
-611.244	800.000	-0.085	-0.369
-610.230	800.000	-0.100	0.348
-609.215	-18.893	-0.302	-0.189
-608.201	800.000	-0.032	-0.119
-607.186	221.455	-0.072	0.116
-606.171	-186.207	-0.129	-0.002
-605.157	115.487	0.041	0.050
-604.142	-200.000	-0.018	-0.251
-603.128	-44.102	0.248	-0.125
-602.113	363.965	-0.171	0.345
-601.098	356.870	-0.038	0.076
-600.084	-200.000	0.012	-0.192
-599.069	343.402	-0.043	0.086
-598.055	-68.360	-0.233	0.091
-597.040	-200.000	0.011	-0.289
-596.025	-148.075	0.181	0.015
-595.011	-51.140	0.242	-0.114
-593.996	132.754	-0.194	-0.251
-592.982	318.357	-0.107	0.203
-591.967	-200.000	0.014	0.100
-590.952	-162.392	-0.143	0.007
-589.938	-5.447	-0.150	0.103
-588.923	800.000	0.039	-0.157
-587.909	82.043	-0.244	0.265
-586.894	-110.602	-0.049	0.010
-585.879	-11.172	0.173	-0.115
-584.865	21.265	-0.110	0.089
-583.850	-100.592	-0.044	0.011
-582.836	-64.663	0.246	-0.100
-581.821	143.390	0.113	0.151
-580.806	-16.446	0.098	0.063
-579.792	143.453	-0.230	0.307
-578.777	-65.048	0.093	0.038
-577.763	-200.000	0.078	0.495
-576.748	70.294	-0.397	-0.412
-575.733	146.705	-0.133	0.179
-574.719	195.554	-0.050	0.076
-573.704	34.284	-0.087	0.076
-572.690	384.725	-0.100	-0.207
-571.675	800.000	0.110	-0.397
-570.661	43.889	0.144	0.132
-569.646	-11.949	0.229	-0.150
-568.631	107.863	0.044	-0.053
-567.617	551.542	-0.125	-0.300
-566.602	-122.397	0.381	0.062
-565.588	-16.013	0.037	0.023
-564.573	-74.009	0.140	0.051
-563.558	-44.569	-0.110	-0.055
-562.544	189.739	-0.073	0.110
-561.529	-47.697	0.257	-0.125
-560.515	-94.933	-0.322	0.087
-559.500	173.263	0.099	0.143
-558.485	-91.965	-0.246	-0.070
-557.471	-120.314	0.071	-0.012
-556.456	-5.402	-0.201	0.139
-555.442	-1.989	0.153	-0.108
-554.427	244.371	0.150	-0.253
-553.412	162.175	-0.102	0.143
-552.398	-25.294	-0.123	0.073
-551.383	-128.142	0.385	-0.055
-550.369	-144.342	-0.250	0.023
-549.354	348.173	-0.133	0.264
-548.339	124.468	-0.123	0.155
-547.325	-38.448	0.036	0.019
-546.310	800.000	0.028	0.081
-545.296	800.000	-0.060	-0.239
-544.281	-200.000	0.032	-0.166
-543.266	773.197	-0.073	0.199
-542.252	2.405	-0.015	-0.011
-541.237	-200.000	0.004	0.171
-540.223	-97.252	-0.054	-0.014
-539.208	-151.740	-0.038	-0.003
-538.193	-48.823	0.100	-0.048
-537.179	122.387	-0.084	0.105
-536.164	138.483	-0.040	0.052
-535.150	-59.423	-0.123	0.053
-534.135	-200.000	0.032	0.155
-533.121	-145.980	-0.245	0.022
-532.106	741.623	0.039	-0.106
-531.091	-162.006	-0.184	-0.009
-530.077	-121.225	-0.353	0.059
-529.062	191.029	0.206	0.311
-528.048	258.369	-0.182	-0.313
-527.033	191.635	-0.083	-0.126
-526.018	-166.936	-0.340	-0.014
-525.004	-31.524	0.022	-0.012
-523.989	-46.655	-0.024	-0.012
-522.975	-100.797	-0.212	0.052
-521.960	269.036	-0.081	-0.142
-520.945	-147.114	-0.206	-0.018
-519.931	-200.000	-0.002	-0.153
-518.916	-82.029	-0.288	-0.094
-517.902	-200.000	-0.027	0.188
-516.887	-200.000	-0.054	0.288
-515.872	95.512	0.181	-0.206
-514.858	-200.000	-0.004	-0.057
-513.843	316.409	0.164	-0.310
-512.829	-0.821	-0.189	-0.134
-511.814	-32.569	0.081	-0.045
-510.799	-41.068	0.024	0.012
-509.785	800.000	0.073	0.321
-508.770	-140.229	-0.114	-0.012
-507.756	-41.538	0.274	0.141
-506.741	322.069	0.057	0.109
-505.726	35.246	0.053	-0.047
-504.712	-200.000	-0.031	0.182
-503.697	-200.000	-0.100	0.523
-502.683	-130.229	-0.341	-0.046
-501.668	538.868	-0.066	0.157
-500.653	400.746	0.072	0.152
-499.639	316.651	0.041	-0.077
-498.624	-56.150	0.222	-0.099
-497.610	-112.384	0.257	-0.051
-496.595	-200.000	-0.023	-0.123
-495.581	486.272	-0.096	-0.218
-494.566	19.664	-0.172	-0.138
-493.551	226.119	0.087	0.142
-492.537	262.281	-0.116	-0.202
-491.522	-69.695	0.108	-0.041
-490.508	-200.000	0.021	0.170
-489.493	417.491	0.063	-0.135
-488.478	-80.626	0.169	-0.056
-487.464	-57.851	0.297	-0.130
-486.449	-127.212	-0.364	-0.053
-485.435	-20.822	-0.185	-0.113
-484.420	800.000	-0.051	-0.148
-483.405	40.709	-0.046	0.042
-482.391	134.081	-0.050	-0.065
-481.376	131.189	-0.188	0.242
-480.362	451.538	-0.105	-0.232
-479.347	-200.000	0.011	-0.140
-478.332	800.000	0.019	0.053
-477.318	-200.000	0.031	-0.176
-476.303	-200.000	-0.029	0.161
-475.289	14.801	0.181	-0.141
-474.274	202.922	-0.131	-0.203
-473.259	-59.087	-0.110	-0.047
-472.245	113.797	-0.171	-0.208
-471.230	-59.279	-0.107	-0.046
-470.216	103.142	0.208	0.243
-469.201	-132.022	0.302	0.039
-468.186	-200.000	-0.090	0.412
-467.172	9.317	-0.166	-0.125
-466.157	-153.962	-0.082	-0.006
-465.143	-10.213	-0.358	0.237
-464.128	800.000	0.073	0.224
-463.113	-200.000	0.051	-0.312
-462.099	800.000	0.007	0.025
-461.084	-127.910	-0.147	-0.021
-460.070	-130.985	-0.208	-0.028
-459.055	-200.000	0.029	-0.280
-458.040	-200.000	-0.010	0.336
-457.026	-17.151	0.091	0.057
-456.011	-30.732	0.125	-0.071
-454.997	-200.000	0.011	-0.055
-453.982	-200.000	-0.001	0.433
-452.968	800.000	-0.059	0.208
-451.953	-108.128	-0.153	0.033
-450.938	77.811	0.147	0.157
-449.924	-39.402	-0.116	-0.061
-448.909	224.175	-0.078	0.126
-447.895	148.656	-0.144	-0.194
-446.880	551.187	0.079	0.190
-445.865	800.000	-0.127	0.379
-444.851	-104.545	-0.276	-0.064
-443.836	196.299	-0.232	-0.353
-442.822	-200.000	-0.017	-0.146
-441.807	177.390	0.149	0.217
-440.792	-139.289	-0.282	0.030
-439.778	-15.249	-0.194	-0.124
-438.763	-200.000	-0.025	0.148
-437.749	42.509	0.154	0.140
-436.734	172.816	-0.196	0.281
-435.719	-99.311	0.255	-0.064
-434.705	-65.526	-0.308	0.123
-433.690	-98.531	0.550	-0.140
-432.676	51.855	-0.178	0.169
-431.661	191.960	-0.172	0.258
-430.646	85.817	0.133	-0.146
-429.632	800.000	0.033	-0.093
-428.617	277.272	-0.085	-0.150
-427.603	374.531	-0.110	0.223
-426.588	-132.623	0.173	-0.022
-425.573	800.000	0.041	-0.152
-424.559	-35.500	-0.318	0.172
-423.544	76.410	0.169	0.178
-422.530	-95.423	0.149	0.040
-421.515	103.975	-0.055	0.064
-420.500	-57.514	0.357	-0.156
-419.486	-48.578	0.257	0.123
-418.471	-78.908	-0.222	0.075
-417.457	-200.000	-0.007	-0.329
-416.442	-200.000	-0.034	-0.158
-415.428	112.822	0.045	-0.054
-414.413	202.961	-0.145	0.224
-413.398	-125.330	0.077	-0.012
-412.384	-107.882	-0.140	0.030
-411.369	800.000	-0.055	-0.165
-410.355	16.863	-0.166	0.131
-409.340	56.899	0.227	-0.220
-408.325	84.812	0.076	-0.083
-407.311	-86.759	-0.335	-0.102
-406.296	-89.088	0.219	0.065
-405.282	474.402	0.052	-0.118
-404.267	-90.930	0.205	-0.059
-403.252	15.341	0.133	-0.104
-402.238	215.935	-0.055	0.088
-401.223	-138.512	-0.091	0.010
-400.209	-97.458	-0.085	-0.022
-399.194	-200.000	0.019	-0.412
-398.179	-200.000	-0.015	0.110
-397.165	-18.709	-0.128	-0.079
-396.150	800.000	0.072	-0.258
-395.136	-17.725	0.269	0.168
-394.121	-200.000	0.010	-0.131
-393.106	-105.009	-0.151	-0.034
-392.092	-105.313	-0.358	-0.081
-391.077	191.343	0.102	-0.153
-390.063	-78.810	0.147	0.050
-389.048	81.395	-0.098	0.106
-388.033	261.368	0.067	-0.116
-387.019	-110.200	0.111	-0.023
-386.004	-200.000	0.077	0.365
-384.990	-133.064	0.413	0.052
-383.975	-200.000	0.021	0.171
-382.960	422.794	-0.028	0.059
-381.946	-57.889	-0.354	-0.154
-380.931	-200.000	0.136	-0.001
-379.917	-114.383	-0.079	-0.015
-378.902	440.841	0.064	-0.140
-377.888	-3.930	0.237	-0.164
-376.873	-65.676	0.234	0.093
-375.858	800.000	-0.104	-0.438
-374.844	-149.705	0.073	0.006
-373.829	800.000	-0.106	0.349
-372.815	-142.381	0.216	-0.021
-371.800	-200.000	0.040	-0.541
-370.785	-200.000	-0.024	-0.136
-369.771	185.122	0.064	-0.095
-368.756	-99.087	0.133	0.034
-367.742	-155.418	0.258	-0.017
-366.727	65.835	-0.122	-0.123
-365.712	-200.000	-0.007	0.177
-364.698	800.000	0.095	0.279
-363.683	-66.567	-0.324	0.128
-362.669	-200.000	0.033	0.233
-361.654	-200.000	-0.004	0.508
-360.639	-200.000	-0.038	-0.172
-359.625	-52.251	-0.257	-0.118
-358.610	-200.000	0.003	-0.278
-357.596	-106.259	0.399	0.089
-356.581	111.593	0.075	0.090
-355.566	-50.084	0.384	0.181
-354.552	-200.000	-0.004	0.104
-353.537	-200.000	-0.018	0.338
-352.523	-200.000	0.014	-0.075
-351.508	183.532	-0.089	0.131
-350.493	-56.590	-0.205	-0.090
-349.479	-50.184	0.264	0.124
-348.464	-200.000	0.030	0.202
-347.450	-200.000	-0.027	0.237
-346.435	-59.512	0.084	-0.036
-345.420	-173.112	-0.194	-0.006
-344.406	81.749	-0.257	0.277
-343.391	800.000	0.020	-0.080
-342.377	-200.000	-0.003	0.094
-341.362	-200.000	0.089	0.400
-340.348	8.658	-0.176	0.132
-339.333	-200.000	0.003	-0.020
-338.318	-200.000	-0.050	0.306
-337.304	271.879	-0.068	-0.118
-336.289	22.782	-0.079	0.065
-335.275	-96.861	0.392	0.102
-334.260	-98.400	-0.201	-0.051
-333.245	-51.470	0.319	-0.148
-332.231	-115.720	0.323	0.060
-331.216	-200.000	0.006	-0.030
-330.202	-200.000	0.007	-0.085
-329.187	78.973	0.323	0.344
-328.172	800.000	-0.069	-0.214
-327.158	-159.597	-0.461	0.025
-326.143	225.794	0.036	-0.057
-325.129	133.486	0.218	0.280
-324.114	777.983	-0.082	-0.224
-323.099	162.342	-0.120	0.168
-322.085	-200.000	0.117	-0.569
-321.070	461.215	-0.070	0.156
-320.056	0.044	-0.128	0.090
-319.041	265.220	-0.106	-0.184
-318.026	357.565	0.099	-0.196
-317.012	-200.000	-0.000	-0.058
-315.997	-73.809	0.150	-0.054
-314.983	145.176	-0.120	-0.160
-313.968	258.740	-0.077	0.131
-312.953	231.545	0.106	-0.173
-311.939	109.699	-0.039	-0.046
-310.924	463.005	0.161	0.357
-309.910	-28.994	0.106	-0.061
-308.895	800.000	0.065	-0.187
-307.880	98.686	-0.127	-0.145
-306.866	-200.000	-0.053	-0.298
-305.851	-94.291	0.239	0.065
-304.837	800.000	0.048	0.144
-303.822	738.632	0.057	-0.151
-302.807	-200.000	0.017	-0.219
-301.793	-44.395	-0.287	-0.143
-300.778	158.938	0.163	-0.224
-299.764	-2.160	-0.163	-0.114
-298.749	-200.000	-0.002	0.083
-297.735	-10.682	0.065	0.043
-296.720	45.014	-0.177	0.162
-295.705	18.571	-0.223	-0.177
-294.691	7.561	0.129	0.096
-293.676	480.990	0.031	-0.070
-292.662	101.421	-0.053	-0.062
-291.647	800.000	-0.141	-0.398
-290.632	-200.000	-0.011	-0.444
-289.618	800.000	0.035	0.112
-288.603	-200.000	0.003	-0.216
-287.589	324.029	0.028	0.053
-286.574	-157.634	0.113	0.007
-285.559	-57.625	0.075	-0.032
-284.545	243.493	0.036	-0.060
-283.530	-200.000	-0.074	0.612
-282.516	-148.173	-0.049	-0.004
-281.501	181.642	-0.172	0.250
-280.486	800.000	-0.059	0.198
-279.472	24.470	0.081	-0.067
-278.457	-200.000	-0.015	0.162
-277.443	60.649	-0.260	-0.256
-276.428	573.375	-0.124	-0.300
-275.413	-16.176	0.297	-0.187
-274.399	587.988	0.132	0.322
-273.384	418.705	0.111	0.236
-272.370	-173.230	-0.349	0.011
-271.355	70.027	-0.071	-0.073
-270.340	-177.712	0.080	-0.002
-269.326	292.400	0.101	-0.182
-268.311	729.025	0.108	-0.285
-267.297	32.699	-0.240	-0.206
-266.282	124.018	-0.049	-0.061
-265.267	-158.337	0.168	0.010
-264.253	-115.970	-0.137	0.025
-263.238	-200.000	0.007	-0.162
-262.224	-200.000	0.033	0.234
-261.209	-42.561	0.083	-0.042
-260.195	341.129	-0.134	0.260
-259.180	241.722	-0.076	0.127
-258.165	205.401	0.149	0.229
-257.151	26.086	0.218	-0.180
-256.136	66.789	-0.181	-0.183
-255.122	-129.133	0.488	0.068
-254.107	-42.072	-0.271	-0.137
-253.092	-107.096	0.269	-0.059
-252.078	191.852	-0.116	0.174
-251.063	-42.309	-0.024	0.012
-250.049	-195.306	0.098	-0.001
-249.034	-102.515	-0.194	-0.046
-248.019	38.948	-0.187	-0.165
-247.005	-200.000	0.020	0.271
-245.990	-114.653	0.151	0.029
-244.976	-149.661	-0.170	0.013
-243.961	106.639	-0.084	0.098
-242.946	230.826	0.159	0.257
-241.932	-104.716	-0.206	-0.047
-240.917	-1.228	0.154	-0.108
-239.903	-200.000	0.055	0.377
-238.888	30.642	0.026	-0.022
-237.873	772.353	0.085	0.228
-236.859	800.000	0.087	0.368
-235.844	-55.734	0.062	0.027
-234.830	-110.706	-0.194	-0.040
-233.815	45.525	0.213	0.195
-232.800	-81.053	0.453	0.148
-231.786	51.603	-0.152	0.143
-230.771	-10.942	0.329	-0.215
-229.757	482.248	0.071	0.160
-228.742	-200.000	-0.065	0.473
-227.727	353.864	0.128	-0.251
-226.713	-5.574	0.281	-0.191
-225.698	-104.275	-0.235	-0.054
-224.684	-67.187	-0.151	0.059
-223.669	-116.172	-0.229	-0.042
-222.655	-200.000	-0.087	0.442
-221.640	-200.000	-0.033	-0.331
-220.625	0.248	0.136	0.096
-219.611	-126.126	0.085	0.013
-218.596	800.000	-0.046	-0.158
-217.582	-71.353	0.191	-0.071
-216.567	-52.595	-0.258	-0.118
-215.552	385.867	0.062	0.126
-214.538	800.000	-0.060	0.172
-213.523	-72.923	0.152	0.055
-212.509	-200.000	0.002	-0.312
-211.494	-124.074	-0.267	-0.041
-210.479	-200.000	-0.017	0.088
-209.465	-125.068	0.409	-0.062
-208.450	-15.634	0.148	0.093
-207.436	19.898	-0.124	0.099
-206.421	7.326	-0.280	-0.207
-205.406	-200.000	0.003	-0.265
-204.392	-73.138	0.356	0.129
-203.377	59.079	0.120	-0.117
-202.363	781.255	-0.078	-0.212
-201.348	188.867	0.154	-0.228
-200.333	27.436	0.223	0.185
-199.319	309.675	0.025	0.045
-198.304	349.200	0.124	0.242
-197.290	-3.032	0.177	0.122
-196.275	-129.923	-0.200	0.027
-195.260	505.035	0.087	-0.199
-194.246	369.286	0.098	0.195
-193.231	84.256	0.191	0.206
-192.217	167.771	0.097	-0.136
-191.202	70.138	0.110	-0.112
-190.187	91.990	0.238	-0.264
-189.173	-153.937	0.191	-0.013
-188.158	133.960	0.142	0.182
-187.144	48.989	0.096	0.089
-186.129	36.337	0.032	-0.028
-185.114	117.740	0.046	-0.056
-184.100	292.641	0.038	0.068
-183.085	800.000	-0.016	-0.045
-182.071	-41.276	0.180	-0.092
-181.056	-97.140	0.125	-0.032
-180.042	800.000	-0.042	0.172
-179.027	22.049	0.042	-0.034
-178.012	-78.321	0.097	-0.033
-176.998	180.999	-0.091	0.132
-175.983	-37.938	0.193	-0.101
-174.969	386.336	-0.144	0.293
-173.954	123.470	-0.219	0.271
-172.939	-200.000	0.095	0.416
-171.925	-37.957	-0.248	0.130
-170.910	-200.000	-0.007	0.215
-169.896	12.175	0.247	0.188
-168.881	-138.573	-0.204	0.022
-167.866	-88.567	-0.214	-0.063
-166.852	33.961	0.158	-0.136
-165.837	-110.502	-0.024	-0.005
-164.823	-2.537	0.140	0.097
-163.808	-82.056	-0.280	0.090
-162.793	645.880	-0.082	-0.207
-161.779	-136.332	-0.222	-0.025
-160.764	800.000	-0.066	-0.279
-159.750	-72.006	0.080	-0.029
-158.735	-200.000	-0.049	-0.400
-157.720	50.640	-0.260	-0.243
-156.706	84.273	0.127	0.137
-155.691	-69.693	0.262	-0.099
-154.677	800.000	-0.156	-0.581
-153.662	-74.141	0.178	0.064
-152.647	-8.291	0.067	0.044
-151.633	-77.701	0.374	-0.127
-150.618	-200.000	-0.077	-0.449
-149.604	103.760	-0.145	0.168
-148.589	9.415	-0.075	-0.056
-147.574	-149.915	0.132	0.010
-146.560	182.870	0.114	0.166
-145.545	-179.611	-0.150	-0.003
-144.531	68.366	0.113	0.114
-143.516	102.384	-0.153	0.177
-142.502	481.353	0.004	-0.009
-141.487	-90.618	-0.200	0.057
-140.472	800.000	0.068	-0.292
-139.458	129.636	0.179	-0.226
-138.443	-40.614	0.220	-0.113
-137.429	402.281	0.162	0.337
-136.414	285.285	0.171	0.304
-135.399	-33.293	-0.146	0.080
-134.385	-200.000	-0.018	-0.120
-133.370	242.670	0.043	0.072
-132.356	24.360	-0.183	0.149
-131.341	-200.000	0.029	-0.162
-130.326	-200.000	-0.017	0.126
-129.312	40.428	0.312	-0.277
-128.297	-47.991	0.198	-0.094
-127.283	110.211	0.064	-0.076
-126.268	-200.000	-0.001	0.157
-125.253	-200.000	0.005	0.042
-124.239	-120.378	-0.182	0.031
-123.224	4.704	0.175	-0.127
-122.210	529.627	-0.061	0.141
-121.195	-164.242	0.139	0.006
-120.180	-200.000	-0.039	0.394
-119.166	-83.149	0.200	0.063
-118.151	-46.899	0.196	0.095
-117.137	626.616	-0.097	-0.241
-116.122	-200.000	-0.001	0.155
-115.107	46.939	-0.179	0.164
-114.093	-112.320	0.126	0.025
-113.078	800.000	-0.072	-0.225
-112.064	-61.427	0.212	-0.088
-111.049	800.000	0.049	0.198
-110.034	158.108	-0.158	0.216
-109.020	-200.000	0.046	-0.311
-108.005	-122.455	0.308	0.049
-106.991	-200.000	0.013	0.189
-105.976	800.000	0.099	-0.283
-104.962	-125.698	0.372	0.055
-103.947	239.217	0.113	-0.186
-102.932	125.981	0.105	0.130
-101.918	157.248	0.077	-0.104
-100.903	-44.393	-0.256	-0.126
-99.889	-32.796	-0.154	0.084
-98.874	-200.000	0.016	-0.249
-97.859	-75.852	0.226	-0.079
-96.845	173.484	0.138	-0.196
-95.830	36.359	0.243	0.211
-94.816	-114.024	0.422	-0.081
-93.801	676.802	-0.038	0.098
-92.786	-200.000	0.039	0.334
-91.772	-131.789	0.353	-0.046
-90.757	173.184	-0.120	-0.171
-89.743	-145.307	-0.166	0.015
-88.728	-200.000	0.033	0.400
-87.713	5.216	0.266	0.193
-86.699	-16.053	-0.095	-0.059
-85.684	-200.000	-0.050	-0.272
-84.670	170.037	0.156	0.219
-83.655	274.700	-0.059	0.103
-82.640	84.604	0.154	-0.165
-81.626	-41.789	-0.123	-0.062
-80.611	-86.292	-0.214	0.065
-79.597	198.561	0.209	0.315
-78.582	-200.000	-0.081	0.420
-77.567	-200.000	0.006	-0.141
-76.553	-200.000	0.003	0.205
-75.538	-28.080	-0.167	0.095
-74.524	587.654	0.102	-0.246
-73.509	800.000	-0.081	0.272
-72.494	51.334	-0.377	0.352
-71.480	-57.179	0.324	-0.140
-70.465	13.977	0.249	-0.191
-69.451	-200.000	0.006	0.081
-68.436	-135.482	0.178	0.021
-67.422	-155.316	0.328	0.021
-66.407	-45.483	0.057	-0.028
-65.392	-28.823	0.179	0.101
-64.378	-133.356	-0.216	-0.027
-63.363	14.845	-0.303	-0.233
-62.349	-115.951	0.254	0.047
-61.334	-6.245	-1.072	-0.719
-60.319	800.000	0.146	0.583
-59.305	308.206	-0.495	-0.908
-58.290	309.076	0.636	1.167
-57.276	-200.000	0.165	1.714
-56.261	-200.000	99.203	593.948
-55.246	574.096	1421.173	3406.885
-54.232	187.185	2622.750	3842.921
-53.217	117.525	2166.201	2618.856
-52.203	43.110	1608.029	1441.763
-51.188	34.178	1341.059	1148.751
-50.173	31.000	1298.348	1093.518
-49.159	54.598	1348.535	1277.309
-48.144	55.705	1364.666	1299.141
-47.130	34.478	1321.828	1133.885
-46.115	30.903	1304.566	1098.011
-45.100	30.675	1299.568	1092.419
-44.086	30.697	1297.168	1090.487
-43.071	30.623	1294.674	1087.918
-42.057	30.485	1292.812	1085.503
-41.042	30.573	1290.819	1084.298
-40.027	30.605	1289.447	1083.286
-39.013	30.690	1287.477	1082.086
-37.998	30.493	1286.032	1079.683
-36.984	30.676	1284.607	1079.504
-35.969	30.688	1282.453	1077.721
-34.954	30.653	1281.107	1076.344
-33.940	30.694	1279.784	1075.432
-32.925	30.766	1278.451	1074.681
-31.911	30.839	1276.733	1073.617
-30.896	30.809	1275.122	1072.046
-29.881	30.858	1274.036	1071.370
-28.867	30.830	1272.970	1070.274
-27.852	30.892	1271.402	1069.267
-26.838	30.909	1269.829	1067.998
-25.823	30.757	1268.756	1066.183
-24.809	30.727	1267.605	1065.003
-23.794	30.755	1266.508	1064.200
-22.779	30.771	1265.142	1063.100
-21.765	30.744	1263.790	1061.766
-20.750	30.691	1263.025	1060.784
-19.736	30.691	1260.631	1058.728
-18.721	30.758	1259.475	1058.095
-17.706	30.635	1259.006	1056.960
-16.692	30.619	1257.541	1055.600
-15.677	30.684	1255.893	1054.544
-14.663	30.466	1255.776	1053.165
-13.648	30.644	1253.639	1052.339
-12.633	30.647	1252.828	1051.634
-11.619	30.627	1252.671	1051.351
-10.604	30.703	1251.377	1050.651
-9.590	30.601	1250.729	1049.488
-8.575	30.533	1249.868	1048.342
-7.560	30.531	1248.704	1047.310
-6.546	30.594	1247.571	1046.673
-5.531	30.619	1246.524	1045.893
-4.517	30.544	1245.780	1044.807
-3.502	30.618	1245.146	1044.652
-2.487	30.586	1244.271	1043.693
-1.473	30.733	1240.190	1041.053
-0.458	29.512	1226.014	1022.355
0.556	28.028	1208.411	984.996
1.571	24.230	1213.953	968.823
2.586	23.228	1228.551	974.871
3.600	22.029	1216.274	958.503
4.615	16.657	1144.544	874.224
5.629	8.543	1070.981	778.600
6.644	4.769	1051.978	746.645
7.659	4.471	1049.197	743.176
8.673	4.437	1048.247	742.277
9.688	4.423	1046.314	740.776
10.702	4.894	1045.444	742.337
11.717	10.262	1052.453	772.941
12.731	18.385	1063.414	819.963
13.746	21.992	1066.928	839.889
14.761	21.950	1067.132	839.775
15.775	21.230	1065.323	834.837
16.790	20.276	1062.995	828.386
17.804	19.543	1062.191	824.187
18.819	19.200	1061.807	822.180
19.834	19.302	1060.572	821.636
20.848	19.116	1059.890	820.150
21.863	18.927	1058.698	818.257
22.877	18.812	1058.021	817.113
23.892	18.706	1057.541	816.166
24.907	18.793	1056.770	815.912
25.921	18.862	1055.260	815.001
26.936	18.744	1054.375	813.688
27.950	18.675	1053.375	812.518
28.965	18.845	1051.135	811.519
29.980	19.084	1050.088	811.765
30.994	19.075	1049.326	811.065
32.009	19.177	1047.919	810.384
33.023	19.093	1047.165	809.333
34.038	18.998	1045.650	807.646
35.053	18.856	1045.222	806.578
36.067	18.865	1044.178	805.744
37.082	18.793	1044.043	805.230
38.096	18.956	1042.668	804.862
39.111	18.991	1042.091	804.509
40.126	18.847	1040.898	802.843
41.140	18.435	1039.199	799.539
42.155	18.446	1037.671	798.345
43.169	18.356	1036.717	797.123
44.184	18.385	1035.621	796.343
45.199	18.428	1034.824	795.857
46.213	18.582	1034.402	796.179
47.228	18.715	1033.694	796.181
48.242	18.900	1032.644	796.157
49.257	18.788	1031.774	794.897
50.271	18.869	1030.884	794.518
51.286	18.983	1030.146	794.405
52.301	18.900	1029.077	793.125
53.315	18.683	1027.957	791.192
54.330	18.613	1026.814	789.923
55.344	18.551	1026.095	789.013
56.359	18.536	1025.438	788.369
57.374	18.541	1024.527	787.623
58.388	18.470	1023.504	786.443
59.403	18.354	1022.348	784.951
60.417	18.463	1021.691	784.876
61.432	18.292	1021.111	783.579
62.447	18.292	1020.455	783.007
63.461	18.174	1019.747	781.854
64.476	18.196	1018.652	781.045
65.490	18.145	1017.968	780.220
66.505	18.263	1017.220	780.117
67.520	18.189	1016.720	779.326
68.534	18.327	1015.725	779.123
69.549	18.280	1015.070	778.339
70.563	18.115	1014.184	776.837
71.578	17.994	1013.425	775.640
72.593	18.003	1012.725	775.077
73.607	17.922	1012.504	774.473
74.622	17.974	1012.195	774.401
75.636	18.123	1010.598	773.785
76.651	18.056	1010.311	773.193
77.666	18.033	1009.993	772.780
78.680	18.116	1008.977	772.309
79.695	18.185	1008.509	772.194
80.709	18.315	1008.239	772.507
81.724	18.441	1007.005	772.059
82.739	18.529	1006.967	772.356
83.753	18.868	1006.160	773.195
84.768	19.034	1005.364	773.261
85.782	19.273	1004.804	773.836
86.797	19.086	1003.673	772.057
87.812	18.854	1002.831	770.300
88.826	18.787	1002.088	769.361
89.841	19.108	1001.029	769.920
90.855	19.159	999.874	769.189
91.870	19.059	999.401	768.312
92.884	19.123	998.736	768.018
93.899	19.059	997.880	767.006
94.914	19.201	997.043	766.926
95.928	19.099	996.414	765.920
96.943	19.087	995.253	764.907
97.957	19.059	994.165	763.878
98.972	19.025	993.287	762.987
99.987	19.076	992.860	762.816
101.001	19.057	991.918	761.944
102.016	19.098	990.436	760.918
103.030	18.999	990.500	760.464
104.045	19.065	989.400	759.843
105.060	18.911	988.720	758.571
106.074	18.516	987.169	755.573
107.089	18.435	985.771	754.081
108.103	18.426	985.165	753.512
109.118	18.330	983.927	752.076
110.133	18.375	983.181	751.635
111.147	18.269	982.465	750.557
112.162	18.403	981.612	750.427
113.176	18.517	981.045	750.425
114.191	18.498	980.634	749.961
115.206	18.430	979.558	748.774
116.220	18.321	978.825	747.673
117.235	18.484	977.609	747.390
118.249	18.428	976.838	746.488
119.264	18.396	976.078	745.706
120.279	18.199	975.340	744.218
121.293	18.176	974.289	743.248
122.308	18.153	973.277	742.313
123.322	18.006	972.452	740.979
124.337	18.105	971.305	740.467
125.352	18.060	970.484	739.584
126.366	18.098	969.546	738.966
127.381	18.049	968.675	738.026
128.395	18.190	967.690	737.819
129.410	18.226	966.769	737.205
130.424	18.278	966.271	736.984
131.439	18.445	965.347	736.932
132.454	18.376	964.999	736.305
133.468	18.459	964.070	735.887
134.483	18.556	963.093	735.491
135.497	18.533	962.628	734.974
136.512	18.524	961.671	734.140
137.527	18.515	961.207	733.680
138.541	18.584	960.278	733.202
139.556	18.657	959.688	733.001
140.570	18.681	959.345	732.777
141.585	19.055	957.804	733.126
142.600	19.082	957.504	732.946
143.614	19.079	956.784	732.318
144.629	19.222	956.360	732.539
145.643	19.064	955.313	731.001
146.658	18.865	953.886	728.998
147.673	18.705	953.083	727.643
148.687	18.568	952.303	726.403
149.702	18.494	951.379	725.319
150.716	18.497	950.623	724.692
151.731	18.643	949.503	724.391
152.746	18.695	949.172	724.293
153.760	18.680	948.706	723.810
154.775	18.882	947.993	724.054
155.789	18.835	947.627	723.511
156.804	18.853	946.804	722.894
157.819	18.880	946.342	722.592
158.833	19.092	945.493	722.769
159.848	19.043	944.918	722.062
160.862	19.039	943.379	720.805
161.877	18.820	941.847	718.656
162.892	18.587	941.154	717.088
163.906	18.654	939.872	716.326
164.921	18.633	939.379	715.803
165.935	18.547	939.212	715.251
166.950	18.832	938.071	715.509
167.964	18.778	937.173	714.534
168.979	18.620	935.986	712.909
169.994	18.671	935.595	712.761
171.008	18.790	934.532	712.379
172.023	19.106	933.887	713.134
173.037	19.189	933.551	713.158
174.052	18.931	932.731	711.403
175.067	18.692	931.847	709.678
176.081	18.295	931.325	707.579
177.096	18.511	930.746	707.965
178.110	18.683	930.008	708.054
179.125	18.703	929.126	707.401
180.140	18.856	929.139	707.979
181.154	18.848	929.251	707.966
182.169	19.117	928.300	708.285
183.183	19.151	927.534	707.780
184.198	19.128	926.424	706.776
185.213	19.111	926.329	706.572
186.227	19.093	925.664	705.929
187.242	19.184	925.434	706.064
188.256	19.419	924.499	706.248
189.271	19.356	923.930	705.494
190.286	18.972	922.508	702.775
191.300	18.548	921.716	700.381
192.315	18.533	920.842	699.593
193.329	18.480	920.526	699.074
194.344	18.656	920.293	699.552
195.359	18.794	919.618	699.542
196.373	18.931	918.870	699.466
197.388	19.131	918.651	700.054
198.402	19.414	918.099	700.717
199.417	19.392	917.742	700.297
200.432	19.654	916.866	700.626
201.446	19.650	916.813	700.507
202.461	19.723	916.533	700.527
203.475	19.612	915.714	699.391
204.490	19.469	914.359	697.715
205.504	19.180	913.720	695.999
206.519	19.210	912.769	695.336
207.534	19.138	912.106	694.475
208.548	19.263	911.577	694.516
209.563	19.139	911.205	693.674
210.577	19.170	910.052	692.860
211.592	19.561	909.525	693.966
212.607	19.509	908.785	693.134
213.621	19.400	908.146	692.146
214.636	19.394	907.497	691.567
215.650	19.496	906.952	691.498
216.665	19.455	906.512	690.939
217.680	19.629	905.874	691.086
218.694	19.697	904.922	690.569
219.709	19.650	904.328	689.869
220.723	19.629	903.752	689.284
221.738	19.519	902.911	688.146
222.753	19.449	902.500	687.491
223.767	19.580	901.714	687.354
224.782	19.793	901.462	687.948
225.796	19.743	900.982	687.320
226.811	19.761	900.000	686.582
227.826	19.547	899.166	685.035
228.840	19.492	898.493	684.247
229.855	19.582	897.245	683.591
230.869	19.423	897.143	682.822
231.884	19.317	896.478	681.838
232.899	19.335	895.550	681.140
233.913	19.391	894.551	680.545
234.928	19.260	894.233	679.723
235.942	19.165	893.478	678.717
236.957	19.214	892.959	678.454
237.972	19.231	892.288	677.951
238.986	19.241	891.814	677.569
240.001	19.362	891.407	677.678
241.015	19.607	890.775	678.097
242.030	19.537	890.343	677.434
243.045	19.617	889.448	677.007
244.059	19.526	888.884	676.164
245.074	19.563	888.899	676.258
246.088	19.746	887.789	676.068
247.103	19.801	887.460	675.973
248.117	19.923	887.455	676.387
249.132	20.218	886.749	676.944
250.147	20.541	886.130	677.670
251.161	20.599	885.730	677.530
252.176	20.526	885.389	676.924
253.190	20.515	884.702	676.296
254.205	20.570	884.052	675.952
255.220	20.519	883.211	675.052
256.234	20.459	882.670	674.345
257.249	20.494	882.049	673.948
258.263	20.371	881.355	672.881
259.278	20.361	880.907	672.442
260.293	20.535	880.025	672.380
261.307	20.637	879.637	672.420
262.322	20.607	878.927	671.702
263.336	20.628	878.323	671.263
264.351	20.638	877.535	670.638
265.366	20.726	876.791	670.348
266.380	20.570	876.121	669.178
267.395	20.457	875.616	668.297
268.409	20.389	874.855	667.396
269.424	20.439	874.304	667.110
270.439	20.352	873.830	666.356
271.453	20.222	872.789	665.003
272.468	20.246	872.183	664.575
273.482	20.273	871.658	664.217
274.497	20.389	871.133	664.204
275.512	20.362	870.620	663.649
276.526	20.336	870.432	663.348
277.541	20.315	870.048	662.918
278.555	20.539	869.330	663.167
279.570	20.724	868.824	663.429
280.585	20.745	867.937	662.772
281.599	20.522	867.165	661.275
282.614	20.467	866.625	660.596
283.628	20.501	865.764	660.012
284.643	20.379	865.033	658.931
285.657	20.452	864.783	658.961
286.672	20.474	864.207	658.546
287.687	20.386	863.678	657.749
288.701	20.484	862.803	657.398
289.716	20.515	862.612	657.309
290.730	20.561	861.832	656.831
291.745	20.435	861.742	656.228
292.760	20.736	860.536	656.388
293.774	20.873	860.537	656.847
294.789	20.792	859.400	655.617
295.803	20.554	858.798	654.202
296.818	20.501	858.167	653.465
297.833	20.537	857.527	653.057
298.847	20.521	857.036	652.565
299.862	20.686	856.540	652.750
300.876	20.829	855.933	652.764
301.891	20.892	854.989	652.222
302.906	21.104	854.786	652.803
303.920	21.292	854.422	653.169
304.935	21.211	854.052	652.528
305.949	21.149	853.079	651.494
306.964	20.786	852.616	649.727
307.979	21.000	851.946	649.957
308.993	21.105	851.697	650.101
310.008	21.268	850.788	649.955
311.022	20.917	850.409	648.306
312.037	20.879	849.571	647.466
313.052	20.616	849.065	646.046
314.066	20.488	848.338	644.961
315.081	20.595	847.828	644.912
316.095	20.556	847.263	644.284
317.110	20.660	846.425	643.974
318.125	20.509	846.284	643.249
319.139	20.691	845.764	643.471
320.154	20.678	845.544	643.200
321.168	20.796	844.884	643.074
322.183	20.816	844.224	642.590
323.197	20.740	843.854	641.972
324.212	20.803	843.159	641.617
325.227	20.720	842.445	640.712
326.241	20.573	842.334	640.029
327.256	20.690	841.363	639.666
328.270	20.603	841.136	639.118
329.285	20.657	840.466	638.748
330.300	20.613	839.731	637.972
331.314	20.836	838.968	638.155
332.329	20.967	839.007	638.605
333.343	20.922	838.699	638.150
334.358	20.952	838.359	637.947
335.373	20.913	837.878	637.381
336.387	20.980	837.586	637.347
337.402	21.121	837.394	637.660
338.416	21.255	837.537	638.203
339.431	21.404	837.017	638.293
340.446	21.578	836.311	638.334
341.460	21.495	836.243	637.920
342.475	21.632	835.745	637.985
343.489	21.647	834.966	637.387
344.504	21.622	834.744	637.071
345.519	21.874	834.127	637.460
346.533	21.627	833.963	636.381
347.548	21.270	833.195	634.443
348.562	21.293	832.292	633.781
349.577	21.158	831.672	632.763
350.592	21.153	830.700	631.950
351.606	21.112	830.021	631.231
352.621	21.194	829.283	630.909
353.635	21.130	829.018	630.420
354.650	21.131	828.893	630.272
355.665	21.290	828.248	630.302
356.679	21.430	827.468	630.156
357.694	21.287	826.956	629.196
358.708	21.497	825.834	629.043
359.723	21.438	825.082	628.202
360.738	21.382	824.933	627.830
361.752	21.519	824.512	627.947
362.767	21.668	824.160	628.158
363.781	21.604	823.987	627.740
364.796	22.013	823.114	628.483
365.810	21.930	822.999	628.043
366.825	21.984	822.572	627.857
367.840	22.001	822.084	627.488
368.854	21.739	821.302	625.900
369.869	21.686	821.055	625.468
370.883	21.665	820.705	625.070
371.898	21.912	820.344	625.620
372.913	22.015	819.978	625.653
373.927	21.819	818.937	624.108
374.942	21.814	818.857	623.973
375.956	22.102	818.231	624.462
376.971	22.195	817.927	624.508
377.986	22.171	817.565	624.089
379.000	22.294	816.907	623.970
380.015	22.279	816.479	623.532
381.029	22.101	815.871	622.383
382.044	22.281	815.052	622.342
383.059	22.164	814.727	621.623
384.073	22.206	813.788	620.999
385.088	22.015	813.203	619.825
386.102	21.766	812.516	618.370
387.117	21.834	811.939	618.112
388.132	21.808	811.487	617.624
389.146	21.775	811.328	617.333
390.161	22.038	811.033	617.977
391.175	22.224	810.438	618.124
392.190	22.085	809.743	617.052
393.205	21.883	809.317	615.963
394.219	21.782	809.109	615.397
395.234	21.697	808.377	614.486
396.248	21.564	807.897	613.602
397.263	21.597	807.146	613.092
398.278	21.660	806.670	612.894
399.292	21.631	806.384	612.524
400.307	21.578	805.919	611.929
401.321	21.650	805.584	611.872
402.336	21.842	805.244	612.230
403.350	21.927	804.619	611.998
404.365	22.125	804.671	612.673
405.380	22.238	803.930	612.450
406.394	22.375	803.618	612.635
407.409	22.440	803.218	612.502
408.423	22.325	803.325	612.130
409.438	22.308	802.816	611.628
410.453	22.425	802.151	611.474
411.467	22.471	802.043	611.498
412.482	22.654	801.372	611.565
413.496	22.716	801.238	611.625
414.511	22.577	800.827	610.774
415.526	22.538	800.024	609.974
416.540	22.613	799.763	609.981
417.555	22.669	799.142	609.648
418.569	22.600	798.785	609.081
419.584	22.573	798.444	608.674
420.599	22.559	797.901	608.157
421.613	164.180	1368.448	1795.795
422.628	142.623	1451.579	1795.896
