DTS Sentinel unit serial number:	SN413079Multiplexer serial number:	ORYXHardware model number:	OX4-SRSoftware version number:	ORYX F/W v4.00 Oryx Data Collector v3.7.2.0data status	okinstallation	princeton_trtdifferential loss correction	single-endedforward channel	channel 1reverse channel	N/Adate	2019/09/14time	15:26:35forward acquisition time	60.00reverse acquisition time	0.00gamma	496.2192k internal	0.2294k external	0.2294temperature offset calibration	1.0079default loss term (dB/km)	0.3790temperature slope calibration	1.0000multiplexer offset coefficient	1.0000multiplexer slope coefficient	1.0000fibre end	0.00T internal ref (°C)	39.00T ext. ref 1 (°C)	5.13T ext. ref 2 (°C)	33.39length (m)	temperature (°C)	Stokes	anti-Stokes-747.200	-200.000	0.012	0.257
-746.185	140.739	-0.135	0.183
-745.171	-200.000	-0.053	0.282
-744.156	59.212	0.107	0.107
-743.142	-200.000	-0.017	0.101
-742.127	-57.036	0.269	0.121
-741.112	-101.656	0.266	-0.066
-740.098	-60.973	0.155	0.067
-739.083	-108.373	-0.272	-0.060
-738.069	-200.000	0.010	0.340
-737.054	-65.666	0.079	-0.032
-736.039	289.738	-0.208	0.386
-735.025	-169.595	0.215	0.008
-734.010	79.100	-0.116	0.127
-732.996	161.122	-0.120	0.172
-731.981	-100.504	-0.249	-0.063
-730.966	104.216	0.074	0.089
-729.952	200.069	0.176	0.276
-728.937	-200.000	0.006	-0.233
-727.923	-200.000	0.012	0.232
-726.908	-108.062	0.109	0.024
-725.894	-9.853	-0.142	0.097
-724.879	25.207	0.073	0.062
-723.864	35.501	-0.255	-0.228
-722.850	503.396	-0.117	-0.277
-721.835	102.798	0.208	0.249
-720.821	151.548	-0.146	-0.203
-719.806	-124.873	-0.140	0.022
-718.791	39.779	-0.088	0.081
-717.777	-27.425	-0.301	0.179
-716.762	56.642	-0.202	-0.201
-715.748	-108.199	0.200	0.044
-714.733	-200.000	-0.045	0.308
-713.718	-72.547	0.079	0.030
-712.704	-200.000	-0.011	0.265
-711.689	122.857	-0.130	0.166
-710.675	800.000	-0.123	-0.449
-709.660	-105.080	-0.213	0.050
-708.645	-75.361	-0.177	0.065
-707.631	-200.000	-0.015	-0.119
-706.616	144.162	0.104	-0.141
-705.602	-14.994	0.142	-0.093
-704.587	252.414	-0.180	0.312
-703.572	-24.281	0.242	0.148
-702.558	-138.229	-0.258	-0.029
-701.543	-133.996	-0.167	-0.021
-700.529	22.938	-0.345	0.289
-699.514	-19.045	-0.178	-0.113
-698.499	50.009	0.128	0.123
-697.485	-44.981	-0.223	0.113
-696.470	345.801	-0.099	0.199
-695.456	131.290	0.155	0.203
-694.441	230.020	0.165	-0.274
-693.426	-122.679	-0.063	-0.010
-692.412	-74.979	0.185	-0.067
-691.397	-31.376	0.065	0.037
-690.383	-200.000	-0.013	-0.222
-689.368	-200.000	-0.036	0.317
-688.354	103.507	0.036	-0.043
-687.339	-69.399	0.290	-0.113
-686.324	133.472	0.185	-0.244
-685.310	-5.240	0.262	0.184
-684.295	163.072	-0.106	0.152
-683.281	800.000	0.013	0.056
-682.266	-2.477	0.329	-0.235
-681.251	659.080	0.133	-0.349
-680.237	-89.991	-0.076	0.023
-679.222	206.678	0.134	-0.212
-678.208	43.223	-0.262	0.244
-677.193	-200.000	-0.005	0.216
-676.178	-200.000	0.053	-0.250
-675.164	800.000	0.059	-0.233
-674.149	154.007	-0.156	0.218
-673.135	-200.000	0.004	-0.183
-672.120	-200.000	-0.015	-0.133
-671.105	26.058	-0.187	-0.159
-670.091	-31.086	-0.085	0.049
-669.076	800.000	0.129	0.375
-668.062	-106.418	-0.397	-0.090
-667.047	-74.611	-0.101	0.037
-666.032	-50.576	0.107	-0.052
-665.018	-89.223	0.426	-0.128
-664.003	-66.586	0.118	0.048
-662.989	-111.498	-0.176	0.037
-661.974	539.202	0.108	-0.261
-660.959	-200.000	-0.036	-0.181
-659.945	-53.622	-0.115	0.053
-658.930	-114.539	-0.259	0.051
-657.916	226.613	-0.206	-0.341
-656.901	-200.000	-0.075	0.495
-655.886	-200.000	-0.036	0.259
-654.872	199.035	0.025	0.039
-653.857	-154.302	0.138	0.009
-652.843	102.467	-0.125	-0.149
-651.828	-165.147	0.286	0.013
-650.814	143.465	-0.203	0.276
-649.799	-200.000	0.012	-0.140
-648.784	-169.811	-0.129	0.005
-647.770	-137.701	0.160	-0.018
-646.755	800.000	0.045	-0.178
-645.741	696.875	0.153	-0.409
-644.726	-200.000	0.025	0.164
-643.711	81.076	0.183	-0.201
-642.697	-200.000	-0.025	-0.278
-641.682	107.355	0.192	-0.232
-640.668	-137.159	0.292	-0.034
-639.653	276.358	-0.091	-0.164
-638.638	738.393	-0.054	-0.147
-637.624	-111.616	0.144	-0.030
-636.609	-200.000	0.043	-0.313
-635.595	38.243	-0.210	-0.191
-634.580	-92.075	-0.237	-0.068
-633.565	-141.886	-0.307	-0.031
-632.551	-110.494	-0.201	-0.043
-631.536	-200.000	-0.004	0.192
-630.522	-91.768	-0.195	0.056
-629.507	-140.234	-0.057	0.006
-628.492	222.031	-0.133	0.218
-627.478	-76.615	0.166	0.059
-626.463	-89.709	-0.062	-0.019
-625.449	10.338	0.187	-0.145
-624.434	-100.162	-0.197	-0.050
-623.419	-159.071	-0.228	-0.013
-622.405	183.142	0.144	0.217
-621.390	-200.000	-0.007	-0.055
-620.376	-200.000	0.052	-0.411
-619.361	-200.000	0.006	0.206
-618.346	109.999	0.077	0.093
-617.332	-18.385	-0.047	0.030
-616.317	330.538	-0.076	-0.149
-615.303	-200.000	0.002	-0.346
-614.288	240.552	0.052	0.088
-613.273	-35.906	0.240	0.132
-612.259	124.468	-0.065	0.083
-611.244	-78.019	0.301	0.105
-610.230	36.658	0.182	-0.164
-609.215	-200.000	-0.290	0.001
-608.201	800.000	0.033	-0.136
-607.186	-0.913	-0.153	0.110
-606.171	-133.429	-0.119	-0.015
-605.157	-200.000	0.046	0.285
-604.142	-31.221	-0.085	0.049
-603.128	53.334	-0.247	-0.240
-602.113	-200.000	-0.014	0.119
-601.098	-83.352	-0.249	0.081
-600.084	-200.000	-0.064	0.453
-599.069	-1.382	0.207	0.148
-598.055	-104.764	-0.048	-0.011
-597.040	-200.000	0.006	-0.088
-596.025	182.986	-0.041	-0.062
-595.011	-200.000	-0.022	-0.164
-593.996	-200.000	-0.060	0.334
-592.982	136.001	-0.074	0.098
-591.967	-16.505	-0.262	0.168
-590.952	800.000	-0.037	-0.129
-589.938	-126.777	-0.156	0.023
-588.923	-58.812	0.292	0.128
-587.909	-123.570	0.383	0.062
-586.894	800.000	-0.110	0.329
-585.879	23.175	-0.183	-0.152
-584.865	-200.000	-0.043	-0.398
-583.850	-38.130	-0.355	-0.191
-582.836	-200.000	0.005	0.263
-581.821	-165.899	-0.020	0.001
-580.806	800.000	-0.095	0.298
-579.792	-200.000	0.045	0.365
-578.777	-104.207	0.258	0.061
-577.763	-62.229	0.091	-0.038
-576.748	-200.000	-0.339	0.000
-575.733	332.338	-0.137	-0.268
-574.719	24.762	-0.070	-0.059
-573.704	-200.000	0.020	-0.286
-572.690	-109.322	0.391	0.084
-571.675	-24.641	0.248	0.150
-570.661	-115.010	0.223	-0.043
-569.646	-11.189	0.189	0.127
-568.631	-37.501	-0.125	-0.067
-567.617	126.493	-0.034	-0.044
-566.602	800.000	-0.044	0.186
-565.588	96.583	0.091	-0.106
-564.573	-46.622	-0.219	-0.109
-563.558	447.305	0.034	-0.077
-562.544	17.490	-0.213	0.172
-561.529	632.212	-0.116	-0.298
-560.515	93.274	0.102	0.118
-559.500	800.000	0.055	0.163
-558.485	24.193	-0.496	-0.416
-557.471	-200.000	-0.013	-0.163
-556.456	370.170	0.120	0.247
-555.442	-40.569	-0.205	0.108
-554.427	-126.538	-0.340	-0.051
-553.412	-162.421	0.206	0.010
-552.398	320.894	0.112	-0.217
-551.383	152.347	0.082	-0.113
-550.369	-200.000	0.017	-0.088
-549.354	274.984	-0.141	-0.254
-548.339	-200.000	0.026	0.403
-547.325	-112.644	0.087	0.018
-546.310	-124.488	-0.093	-0.015
-545.296	-200.000	0.018	-0.131
-544.281	-1.697	0.178	0.127
-543.266	725.779	-0.126	0.341
-542.252	75.654	-0.119	0.128
-541.237	-37.493	0.207	-0.112
-540.223	-200.000	-0.006	-0.188
-539.208	800.000	0.069	0.195
-538.193	-169.633	-0.332	-0.012
-537.179	800.000	-0.061	-0.261
-536.164	-100.861	0.299	-0.074
-535.150	-200.000	0.048	-0.260
-534.135	165.915	-0.081	-0.117
-533.121	-31.311	-0.123	0.070
-532.106	-89.946	-0.200	-0.059
-531.091	219.693	-0.320	0.519
-530.077	766.293	-0.083	-0.229
-529.062	524.808	0.153	0.364
-528.048	-200.000	-0.002	-0.132
-527.033	56.808	0.226	0.223
-526.018	-37.450	0.087	-0.047
-525.004	-173.026	0.208	0.007
-523.989	800.000	-0.092	-0.288
-522.975	-111.746	-0.243	-0.050
-521.960	617.983	-0.070	0.178
-520.945	270.992	0.077	0.138
-519.931	27.671	0.065	-0.056
-518.916	-48.734	-0.180	-0.088
-517.902	800.000	-0.019	0.072
-516.887	-130.939	-0.102	-0.014
-515.872	403.978	0.137	0.293
-514.858	-200.000	0.001	0.166
-513.843	423.675	-0.109	0.238
-512.829	2.882	0.108	0.079
-511.814	-91.909	-0.049	-0.014
-510.799	-110.941	0.440	-0.092
-509.785	800.000	-0.020	0.090
-508.770	-200.000	0.193	0.001
-507.756	-169.325	0.176	-0.007
-506.741	-200.000	0.007	0.072
-505.726	-200.000	-0.015	-0.175
-504.712	-28.115	-0.217	-0.127
-503.697	-86.353	-0.172	-0.054
-502.683	354.071	0.098	0.197
-501.668	-98.346	0.229	-0.059
-500.653	506.444	0.094	-0.220
-499.639	319.662	-0.113	-0.217
-498.624	267.221	0.047	-0.084
-497.610	-50.324	0.403	-0.193
-496.595	800.000	-0.046	-0.197
-495.581	-40.396	-0.284	0.149
-494.566	-43.995	0.122	-0.062
-493.551	-200.000	0.024	0.311
-492.537	-10.762	-0.257	0.172
-491.522	-200.000	-0.044	-0.287
-490.508	-118.492	0.268	-0.048
-489.493	110.870	-0.144	0.176
-488.478	800.000	-0.057	-0.215
-487.464	800.000	0.046	-0.135
-486.449	800.000	0.047	0.188
-485.435	-109.479	-0.252	-0.054
-484.420	-156.958	-0.140	-0.009
-483.405	579.093	-0.058	-0.144
-482.391	-80.542	-0.211	-0.071
-481.376	-200.000	0.026	0.405
-480.362	-28.485	0.282	0.164
-479.347	-29.395	0.118	-0.069
-478.332	406.494	-0.180	-0.384
-477.318	513.383	-0.191	-0.450
-476.303	129.786	0.127	-0.164
-475.289	61.502	0.132	-0.133
-474.274	0.909	0.244	0.177
-473.259	800.000	-0.022	0.067
-472.245	556.175	0.074	0.181
-471.230	45.887	-0.101	0.094
-470.216	15.602	0.244	0.194
-469.201	111.137	0.208	0.254
-468.186	-200.000	0.011	0.312
-467.172	-32.000	-0.162	-0.092
-466.157	509.311	-0.052	0.123
-465.143	70.937	-0.161	-0.169
-464.128	517.387	-0.077	0.182
-463.113	592.906	-0.087	-0.217
-462.099	-200.000	0.001	0.272
-461.084	-100.522	-0.296	0.074
-460.070	-118.992	0.396	0.070
-459.055	258.033	-0.234	-0.407
-458.040	56.776	-0.166	0.163
-457.026	-125.836	-0.151	0.023
-456.011	-143.659	0.378	-0.036
-454.997	-122.286	0.120	-0.020
-453.982	-22.023	0.176	-0.108
-452.968	-160.841	-0.037	-0.002
-451.953	-89.882	0.250	0.074
-450.938	419.784	-0.070	0.153
-449.924	-144.192	0.081	0.008
-448.909	10.871	0.152	-0.117
-447.895	-200.000	-0.031	0.200
-446.880	-97.981	0.460	-0.120
-445.865	185.653	-0.126	0.189
-444.851	-43.738	0.170	-0.087
-443.836	196.717	-0.053	0.081
-442.822	-122.234	-0.286	-0.047
-441.807	800.000	-0.138	-0.401
-440.792	-170.094	0.227	0.008
-439.778	-200.000	-0.009	-0.258
-438.763	-99.596	0.155	0.039
-437.749	0.788	-0.478	-0.346
-436.734	-200.000	-0.018	-0.132
-435.719	-200.000	-0.006	-0.301
-434.705	-72.788	0.320	-0.119
-433.690	23.489	0.213	0.177
-432.676	-50.445	0.035	0.017
-431.661	800.000	-0.106	-0.326
-430.646	191.368	0.226	0.344
-429.632	15.873	-0.264	0.210
-428.617	-171.456	-0.394	-0.013
-427.603	-200.000	0.005	-0.355
-426.588	-59.448	-0.131	-0.057
-425.573	39.395	0.178	-0.161
-424.559	-18.678	-0.303	0.191
-423.544	-116.327	0.173	0.032
-422.530	-200.000	-0.003	-0.379
-421.515	27.212	-0.060	-0.051
-420.500	-200.000	-0.057	0.377
-419.486	114.380	0.158	0.194
-418.471	-200.000	-0.036	0.304
-417.457	-200.000	-0.010	0.237
-416.442	-148.551	0.209	0.017
-415.428	800.000	-0.039	0.138
-414.413	310.049	0.203	0.384
-413.398	-4.785	-0.419	-0.292
-412.384	-4.592	-0.019	-0.013
-411.369	-24.774	-0.344	-0.206
-410.355	142.488	0.054	-0.073
-409.340	56.404	0.178	-0.174
-408.325	-59.000	-0.302	0.131
-407.311	800.000	0.037	-0.112
-406.296	-109.004	-0.369	-0.079
-405.282	-50.702	-0.186	-0.088
-404.267	44.475	-0.123	0.114
-403.252	28.425	-0.104	0.089
-402.238	-54.874	0.186	-0.085
-401.223	58.936	0.134	0.133
-400.209	-83.843	-0.200	0.064
-399.194	-8.608	-0.175	-0.119
-398.179	-200.000	0.036	0.610
-397.165	252.714	-0.124	-0.213
-396.150	73.510	-0.066	-0.069
-395.136	-29.202	0.128	-0.074
-394.121	244.481	0.091	-0.154
-393.106	105.505	-0.086	-0.103
-392.092	78.133	0.117	-0.125
-391.077	-200.000	0.035	0.201
-390.063	-200.000	-0.008	0.275
-389.048	-72.505	0.091	-0.034
-388.033	-102.186	-0.092	-0.022
-387.019	-200.000	-0.031	0.149
-386.004	179.443	0.084	-0.124
-384.990	-200.000	0.011	0.211
-383.975	81.961	0.101	-0.110
-382.960	149.269	0.086	0.118
-381.946	-127.826	-0.246	0.036
-380.931	64.450	-0.248	-0.252
-379.917	82.047	0.155	0.169
-378.902	243.004	-0.041	0.069
-377.888	-65.277	-0.128	0.052
-376.873	-74.334	-0.230	0.084
-375.858	-200.000	0.052	-0.434
-374.844	-200.000	0.064	0.402
-373.829	710.678	0.044	0.116
-372.815	118.902	0.031	-0.039
-371.800	-141.956	-0.096	0.010
-370.785	-104.392	0.062	0.015
-369.771	57.569	0.202	0.198
-368.756	-28.538	-0.307	0.178
-367.742	800.000	-0.077	-0.294
-366.727	133.802	0.122	-0.159
-365.712	199.222	0.120	-0.185
-364.698	-144.968	-0.112	-0.010
-363.683	119.247	-0.154	-0.192
-362.669	255.042	-0.307	-0.529
-361.654	800.000	0.151	0.436
-360.639	-200.000	-0.001	-0.147
-359.625	800.000	-0.069	-0.206
-358.610	-8.787	-0.317	-0.214
-357.596	64.219	0.035	0.035
-356.581	-75.391	-0.172	-0.062
-355.566	800.000	0.051	0.189
-354.552	-200.000	0.023	-0.184
-353.537	78.751	0.180	0.194
-352.523	-24.195	0.098	0.059
-351.508	-107.925	0.191	0.042
-350.493	5.032	-0.105	0.078
-349.479	160.856	0.092	0.129
-348.464	45.204	-0.128	-0.119
-347.450	349.560	0.049	-0.098
-346.435	-200.000	0.022	-0.177
-345.420	63.277	-0.094	-0.095
-344.406	102.156	0.170	0.200
-343.391	615.052	-0.034	-0.085
-342.377	-200.000	-0.037	0.381
-341.362	-73.724	0.317	-0.116
-340.348	-39.491	-0.218	-0.115
-339.333	126.036	0.126	0.161
-338.318	-200.000	0.010	-0.108
-337.304	-43.155	-0.289	-0.147
-336.289	-97.821	-0.128	-0.033
-335.275	-1.850	0.259	-0.183
-334.260	-79.865	0.210	0.071
-333.245	-8.120	-0.121	0.082
-332.231	-84.990	0.357	0.113
-331.216	-67.723	0.276	0.109
-330.202	800.000	-0.102	-0.348
-329.187	-129.043	0.255	0.036
-328.172	416.832	0.075	0.162
-327.158	-11.368	0.127	-0.084
-326.143	290.035	0.148	-0.271
-325.129	579.889	0.159	-0.392
-324.114	23.385	0.267	0.221
-323.099	225.855	-0.046	-0.074
-322.085	-200.000	0.013	-0.183
-321.070	63.997	-0.214	0.217
-320.056	-200.000	-0.052	0.412
-319.041	503.803	0.040	0.093
-318.026	-160.621	0.401	0.022
-317.012	49.412	0.242	0.229
-315.997	-35.141	-0.063	-0.035
-314.983	154.092	-0.075	0.104
-313.968	493.251	0.008	0.019
-312.953	-167.655	-0.153	-0.006
-311.939	46.951	-0.062	0.058
-310.924	238.148	-0.113	0.189
-309.910	-200.000	-0.024	0.201
-308.895	145.297	-0.092	0.124
-307.880	62.604	0.073	-0.073
-306.866	37.790	0.114	-0.102
-305.851	-47.897	-0.207	0.101
-304.837	248.009	0.153	0.261
-303.822	52.279	0.307	-0.294
-302.807	6.139	0.108	0.081
-301.793	370.211	-0.089	0.182
-300.778	46.238	0.057	-0.053
-299.764	-168.531	0.185	0.007
-298.749	-200.000	-0.025	-0.178
-297.735	800.000	0.201	0.560
-296.720	609.480	0.112	0.282
-295.705	293.013	0.088	-0.160
-294.691	-49.576	-0.161	-0.077
-293.676	-200.000	-0.044	-0.218
-292.662	-139.851	0.463	0.049
-291.647	-200.000	0.028	0.228
-290.632	-166.525	0.330	-0.014
-289.618	-93.082	0.154	-0.043
-288.603	-11.193	-0.197	0.131
-287.589	-68.836	0.407	0.158
-286.574	-97.100	0.187	0.049
-285.559	40.415	-0.211	0.191
-284.545	-200.000	0.007	0.102
-283.530	-200.000	-0.066	-0.436
-282.516	-89.745	0.179	0.053
-281.501	-200.000	-0.045	-0.276
-280.486	155.969	-0.132	0.183
-279.472	306.835	-0.100	0.186
-278.457	-77.366	-0.116	-0.040
-277.443	-106.271	0.200	-0.045
-276.428	-164.215	-0.102	0.005
-275.413	800.000	0.091	0.268
-274.399	69.815	0.175	0.181
-273.384	573.584	-0.041	0.100
-272.370	-174.937	0.218	-0.006
-271.355	468.409	0.050	-0.113
-270.340	-78.693	-0.162	0.056
-269.326	177.496	-0.147	0.214
-268.311	-200.000	0.039	0.427
-267.297	3.983	-0.252	0.185
-266.282	800.000	-0.062	0.244
-265.267	744.610	-0.052	0.140
-264.253	82.923	-0.096	-0.104
-263.238	-103.634	-0.326	-0.077
-262.224	228.553	-0.061	-0.099
-261.209	-21.111	-0.203	-0.124
-260.195	66.938	-0.291	-0.297
-259.180	-146.355	0.381	-0.033
-258.165	30.569	0.080	-0.069
-257.151	-200.000	0.016	0.117
-256.136	-75.387	0.301	0.108
-255.122	605.081	0.125	-0.312
-254.107	-60.301	-0.263	-0.112
-253.092	-200.000	0.070	-0.478
-252.078	-200.000	-0.010	0.235
-251.063	-200.000	-0.030	0.159
-250.049	88.793	0.219	0.244
-249.034	59.580	-0.031	0.030
-248.019	556.147	-0.090	-0.218
-247.005	71.901	0.284	-0.297
-245.990	287.202	0.079	0.144
-244.976	-35.495	-0.169	0.092
-243.961	-57.673	0.183	-0.081
-242.946	-100.467	-0.083	-0.021
-241.932	-108.451	0.074	-0.016
-240.917	-200.000	0.013	-0.066
-239.903	6.634	0.106	-0.079
-238.888	482.029	-0.083	-0.188
-237.873	800.000	0.064	-0.188
-236.859	25.603	-0.191	0.160
-235.844	800.000	0.067	-0.252
-234.830	-200.000	-0.024	-0.383
-233.815	-200.000	-0.017	-0.134
-232.800	-43.354	0.259	-0.131
-231.786	800.000	-0.081	0.345
-230.771	-16.609	-0.222	-0.141
-229.757	-60.705	-0.350	-0.148
-228.742	-200.000	0.073	0.339
-227.727	-21.570	0.227	-0.138
-226.713	800.000	0.078	-0.339
-225.698	-8.759	-0.165	-0.111
-224.684	477.991	-0.016	0.037
-223.669	-118.996	0.186	-0.033
-222.655	-200.000	0.443	-0.001
-221.640	800.000	-0.034	-0.110
-220.625	-200.000	0.021	0.119
-219.611	-67.166	-0.456	0.180
-218.596	-109.067	0.185	0.039
-217.582	18.804	0.069	0.055
-216.567	-97.104	0.296	0.078
-215.552	800.000	0.171	-0.548
-214.538	800.000	-0.046	-0.150
-213.523	-24.504	0.146	-0.087
-212.509	-58.127	0.303	0.132
-211.494	-200.000	-0.008	-0.154
-210.479	783.416	0.015	-0.041
-209.465	-200.000	0.022	-0.363
-208.450	-87.676	-0.255	-0.077
-207.436	670.948	-0.072	-0.188
-206.421	800.000	0.034	0.109
-205.406	-84.685	-0.328	-0.103
-204.392	-200.000	0.014	-0.185
-203.377	32.168	-0.267	-0.230
-202.363	15.813	0.164	-0.129
-201.348	-200.000	-0.009	0.279
-200.333	689.018	0.149	0.390
-199.319	-134.265	-0.106	-0.013
-198.304	-44.796	-0.515	-0.257
-197.290	-200.000	-0.048	0.402
-196.275	86.530	0.143	0.158
-195.260	258.395	0.118	0.204
-194.246	-4.694	-0.244	-0.169
-193.231	-130.029	0.204	-0.028
-192.217	204.645	-0.188	0.292
-191.202	-200.000	-0.005	0.270
-190.187	-200.000	-0.025	0.124
-189.173	154.397	0.112	-0.153
-188.158	7.698	0.150	0.112
-187.144	89.211	-0.292	-0.325
-186.129	-158.626	0.118	0.007
-185.114	52.028	0.334	0.318
-184.100	800.000	0.067	0.194
-183.085	325.231	-0.115	-0.220
-182.071	-62.580	-0.131	-0.054
-181.056	-66.813	0.258	-0.102
-180.042	-95.068	0.185	0.050
-179.027	10.391	-0.219	-0.167
-178.012	704.439	-0.068	0.180
-176.998	-100.527	0.478	-0.118
-175.983	18.921	-0.027	-0.021
-174.969	-117.762	0.204	-0.037
-173.954	-200.000	-0.027	0.395
-172.939	-72.349	0.088	-0.032
-171.925	50.730	-0.300	-0.284
-170.910	113.582	-0.235	0.285
-169.896	-200.000	-0.015	0.149
-168.881	-81.918	-0.244	0.080
-167.866	-200.000	0.053	-0.326
-166.852	-200.000	0.014	-0.086
-165.837	152.247	-0.089	-0.122
-164.823	-29.768	-0.333	0.190
-163.808	800.000	-0.061	-0.172
-162.793	-200.000	0.034	-0.246
-161.779	65.615	0.175	-0.177
-160.764	167.632	-0.277	0.394
-159.750	87.545	-0.102	0.112
-158.735	3.890	0.074	0.054
-157.720	119.248	-0.258	0.319
-156.706	54.031	0.204	0.196
-155.691	159.658	0.164	0.228
-154.677	194.070	-0.044	-0.067
-153.662	-137.181	-0.147	-0.017
-152.647	28.443	-0.141	0.119
-151.633	800.000	0.116	0.363
-150.618	105.381	-0.143	-0.169
-149.604	19.712	0.125	-0.100
-148.589	-70.583	-0.138	0.052
-147.574	260.763	-0.151	0.262
-146.560	97.780	0.041	0.047
-145.545	-73.825	0.147	0.053
-144.531	-200.000	-0.095	-0.442
-143.516	800.000	-0.036	-0.112
-142.502	-89.854	-0.464	0.135
-141.487	-200.000	-0.037	0.205
-140.472	-102.022	-0.094	0.023
-139.458	-13.536	-0.254	0.164
-138.443	-200.000	-0.008	0.351
-137.429	-200.000	-0.000	0.247
-136.414	541.679	0.073	0.175
-135.399	-200.000	0.033	-0.229
-134.385	35.596	0.341	-0.299
-133.370	177.761	0.215	-0.314
-132.356	-200.000	-0.063	-0.408
-131.341	-171.181	0.290	0.010
-130.326	800.000	-0.021	0.072
-129.312	-80.275	0.182	-0.061
-128.297	-32.091	-0.182	-0.102
-127.283	800.000	-0.072	0.274
-126.268	44.814	0.090	-0.082
-125.253	394.294	-0.031	0.065
-124.239	694.905	-0.074	0.194
-123.224	-200.000	-0.028	0.348
-122.210	-165.523	0.365	0.016
-121.195	124.104	-0.038	0.048
-120.180	266.979	0.170	0.297
-119.166	26.652	0.172	-0.144
-118.151	-22.019	-0.411	0.249
-117.137	85.979	0.127	0.140
-116.122	147.954	-0.052	0.070
-115.107	-32.050	-0.195	0.109
-114.093	800.000	0.007	-0.028
-113.078	-200.000	-0.076	0.359
-112.064	176.824	-0.013	-0.019
-111.049	31.604	0.209	0.179
-110.034	389.243	-0.088	-0.183
-109.020	156.919	-0.025	0.035
-108.005	-200.000	0.020	0.461
-106.991	88.488	-0.130	0.144
-105.976	273.424	0.198	0.349
-104.962	-200.000	0.019	0.131
-103.947	-141.709	-0.034	0.003
-102.932	-117.743	-0.359	0.064
-101.918	-174.763	0.296	-0.008
-100.903	-22.123	-0.270	0.163
-99.889	-15.728	-0.162	0.103
-98.874	96.006	-0.131	-0.149
-97.859	-51.910	0.162	-0.075
-96.845	170.380	0.032	0.046
-95.830	79.580	-0.187	-0.200
-94.816	-140.724	-0.249	0.026
-93.801	-200.000	0.017	-0.221
-92.786	463.717	-0.122	-0.273
-91.772	71.985	-0.320	-0.332
-90.757	347.732	-0.143	-0.280
-89.743	-200.000	0.016	0.091
-88.728	-169.598	-0.362	-0.013
-87.713	44.361	-0.283	-0.259
-86.699	-75.950	0.172	-0.061
-85.684	-119.830	0.360	-0.062
-84.670	18.713	0.066	-0.052
-83.655	-98.130	0.279	-0.072
-82.640	-54.821	-0.069	-0.031
-81.626	433.536	-0.107	-0.231
-80.611	-64.043	0.051	0.021
-79.597	-200.000	-0.072	0.317
-78.582	2.071	0.171	-0.123
-77.567	-75.824	0.339	0.120
-76.553	363.442	0.068	0.136
-75.538	-156.661	-0.229	-0.014
-74.524	654.472	-0.006	0.015
-73.509	-23.596	-0.098	-0.058
-72.494	800.000	-0.055	-0.178
-71.480	81.288	-0.249	0.268
-70.465	128.197	0.228	0.289
-69.451	800.000	-0.068	0.189
-68.436	-200.000	-0.007	0.062
-67.422	-60.259	0.250	0.106
-66.407	130.478	-0.093	-0.118
-65.392	100.894	-0.113	-0.131
-64.378	89.377	-0.298	-0.331
-63.363	-8.403	-0.116	0.078
-62.349	176.973	-0.095	0.137
-61.334	-39.445	-1.006	-0.525
-60.319	24.451	0.320	0.263
-59.305	-200.000	-0.044	-0.953
-58.290	-200.000	0.079	0.698
-57.276	800.000	0.503	1.551
-56.261	-200.000	82.483	503.065
-55.246	565.651	1363.259	3290.302
-54.232	184.441	2586.254	3813.081
-53.217	121.482	2236.278	2773.179
-52.203	49.921	1688.582	1584.879
-51.188	42.366	1419.579	1284.231
-50.173	38.926	1375.980	1223.350
-49.159	57.505	1414.909	1375.468
-48.144	62.928	1433.941	1428.080
-47.130	42.836	1393.830	1263.694
-46.115	39.040	1377.156	1224.913
-45.100	38.818	1372.631	1219.459
-44.086	38.804	1370.041	1217.022
-43.071	38.897	1367.188	1215.013
-42.057	38.722	1365.626	1212.496
-41.042	38.800	1363.640	1211.166
-40.027	38.907	1361.763	1210.108
-39.013	38.816	1360.150	1208.068
-37.998	38.904	1358.125	1206.762
-36.984	39.038	1355.987	1205.636
-35.969	38.981	1354.803	1204.189
-34.954	39.007	1353.309	1202.975
-33.940	39.009	1351.255	1201.111
-32.925	38.990	1350.232	1200.038
-31.911	39.111	1348.390	1199.089
-30.896	39.072	1347.339	1197.870
-29.881	39.157	1345.690	1196.876
-28.867	39.084	1344.386	1195.223
-27.852	39.106	1342.786	1193.888
-26.838	39.125	1341.393	1192.718
-25.823	39.156	1339.922	1191.549
-24.809	39.139	1338.004	1189.694
-23.794	39.003	1337.043	1187.973
-22.779	39.033	1335.744	1186.949
-21.765	39.076	1334.237	1185.822
-20.750	38.938	1332.968	1183.814
-19.736	39.094	1331.201	1183.137
-18.721	39.046	1329.995	1181.733
-17.706	38.981	1329.233	1180.619
-16.692	38.984	1327.740	1179.261
-15.677	38.965	1327.153	1178.577
-14.663	38.985	1325.831	1177.478
-13.648	38.924	1324.756	1176.115
-12.633	38.920	1323.865	1175.252
-11.619	38.909	1323.140	1174.492
-10.604	38.890	1322.150	1173.455
-9.590	39.023	1320.793	1172.998
-8.575	38.972	1319.667	1171.645
-7.560	39.015	1318.595	1170.904
-6.546	38.941	1317.967	1169.861
-5.531	38.860	1317.608	1169.011
-4.517	38.854	1316.548	1167.987
-3.502	38.951	1315.456	1167.549
-2.487	38.923	1314.993	1166.929
-1.473	38.929	1310.533	1162.961
-0.458	37.502	1294.528	1140.351
0.556	33.746	1273.327	1093.006
1.571	29.035	1276.757	1068.574
2.586	27.473	1291.333	1071.497
3.600	25.897	1279.524	1052.408
4.615	19.405	1203.144	953.727
5.629	9.814	1122.786	840.227
6.644	5.221	1099.970	799.607
7.659	5.009	1097.354	796.553
8.673	5.138	1095.943	796.112
9.688	5.142	1094.786	795.226
10.702	5.365	1092.927	794.938
11.717	10.422	1100.832	826.462
12.731	18.782	1112.954	878.426
13.746	21.355	1114.879	893.030
14.761	19.912	1112.336	883.554
15.775	18.693	1110.284	875.631
16.790	17.797	1107.750	868.993
17.804	16.929	1105.993	863.119
18.819	16.618	1105.245	860.877
19.834	16.218	1104.666	858.315
20.848	16.247	1103.278	857.312
21.863	16.064	1102.499	855.697
22.877	15.842	1101.757	853.923
23.892	15.895	1100.900	853.453
24.907	15.878	1100.286	852.815
25.921	15.895	1099.126	851.924
26.936	15.974	1097.760	851.192
27.950	15.822	1096.581	849.435
28.965	15.956	1094.690	848.569
29.980	15.974	1093.133	847.377
30.994	16.091	1092.362	847.293
32.009	16.081	1091.279	846.326
33.023	16.177	1089.528	845.373
34.038	15.884	1089.003	843.424
35.053	15.959	1088.306	843.187
36.067	15.964	1087.265	842.330
37.082	15.911	1086.515	841.412
38.096	16.038	1085.819	841.432
39.111	15.989	1085.270	840.685
40.126	15.707	1084.244	838.413
41.140	15.719	1082.266	836.869
42.155	15.705	1080.868	835.645
43.169	15.663	1079.843	834.569
44.184	15.651	1079.083	833.849
45.199	15.653	1077.598	832.635
46.213	15.829	1076.634	832.688
47.228	15.780	1076.053	831.924
48.242	15.862	1074.820	831.302
49.257	15.858	1073.815	830.429
50.271	15.930	1072.658	829.815
51.286	15.897	1072.335	829.331
52.301	15.944	1070.899	828.377
53.315	15.899	1069.914	827.322
54.330	15.777	1068.710	825.720
55.344	15.731	1068.307	825.110
56.359	15.772	1067.146	824.340
57.374	15.731	1066.116	823.269
58.388	15.710	1065.028	822.254
59.403	15.625	1064.637	821.464
60.417	15.697	1063.711	821.031
61.432	15.618	1062.988	820.014
62.447	15.626	1061.695	818.984
63.461	15.572	1061.094	818.182
64.476	15.657	1060.074	817.739
65.490	15.589	1059.687	817.037
66.505	15.509	1058.702	815.815
67.520	15.549	1058.218	815.566
68.534	15.670	1056.992	815.137
69.549	15.553	1056.888	814.417
70.563	15.533	1056.037	813.591
71.578	15.558	1054.798	812.685
72.593	15.362	1054.679	811.575
73.607	15.432	1053.673	811.065
74.622	15.512	1052.835	810.734
75.636	15.554	1052.362	810.499
76.651	15.492	1051.601	809.545
77.666	15.530	1050.832	809.062
78.680	15.565	1050.044	808.556
79.695	15.565	1049.613	808.152
80.709	15.563	1049.231	807.777
81.724	15.680	1048.386	807.616
82.739	15.875	1047.509	807.807
83.753	15.937	1046.904	807.562
84.768	16.037	1045.961	807.246
85.782	16.123	1045.452	807.191
86.797	16.075	1043.815	805.626
87.812	15.904	1043.683	804.635
88.826	15.915	1042.197	803.472
89.841	16.049	1041.009	803.125
90.855	16.069	1040.187	802.513
91.870	16.186	1039.418	802.406
92.884	16.161	1038.740	801.695
93.899	16.159	1037.544	800.691
94.914	16.259	1036.562	800.336
95.928	16.144	1036.194	799.433
96.943	15.961	1035.556	798.007
97.957	16.123	1034.249	797.693
98.972	16.099	1033.293	796.773
99.987	16.098	1032.643	796.195
101.001	15.987	1031.535	794.750
102.016	16.100	1030.074	794.082
103.030	16.136	1029.830	793.994
104.045	16.032	1029.185	792.938
105.060	15.936	1028.009	791.513
106.074	15.785	1027.057	789.999
107.089	15.653	1026.024	788.515
108.103	15.646	1024.778	787.457
109.118	15.682	1023.929	786.903
110.133	15.645	1023.034	785.973
111.147	15.747	1021.704	785.357
112.162	15.662	1021.237	784.532
113.176	15.747	1020.597	784.368
114.191	15.862	1020.062	784.424
115.206	15.823	1019.124	783.451
116.220	15.759	1018.114	782.305
117.235	15.672	1017.383	781.271
118.249	15.724	1016.379	780.670
119.264	15.705	1015.866	780.120
120.279	15.811	1014.258	779.310
121.293	15.729	1013.761	778.476
122.308	15.609	1012.866	777.165
123.322	15.562	1012.141	776.322
124.337	15.638	1010.748	775.536
125.352	15.498	1009.747	774.058
126.366	15.594	1008.746	773.662
127.381	15.654	1007.674	773.050
128.395	15.713	1006.592	772.420
129.410	15.660	1006.240	771.838
130.424	15.747	1004.945	771.175
131.439	15.734	1004.320	770.570
132.454	15.951	1003.526	770.885
133.468	15.900	1002.542	769.825
134.483	15.955	1001.893	769.512
135.497	15.951	1000.862	768.635
136.512	15.868	1000.264	767.726
137.527	15.876	999.134	766.829
138.541	15.993	998.513	766.816
139.556	16.041	997.788	766.409
140.570	16.144	997.038	766.234
141.585	16.184	996.184	765.692
142.600	16.186	995.552	765.149
143.614	16.151	994.820	764.357
144.629	16.221	993.784	763.812
145.643	16.278	992.507	763.020
146.658	16.093	991.753	761.537
147.673	15.934	990.619	759.883
148.687	15.944	989.525	759.020
149.702	15.902	988.755	758.172
150.716	15.900	987.914	757.452
151.731	15.983	987.075	757.115
152.746	15.981	986.605	756.680
153.760	16.022	985.705	756.108
154.775	16.087	985.269	755.995
155.789	16.203	984.343	755.739
156.804	16.191	983.914	755.291
157.819	16.052	983.325	754.147
158.833	16.224	982.695	754.367
159.848	16.257	982.046	753.951
160.862	16.204	980.604	752.538
161.877	16.050	979.743	751.124
162.892	15.959	978.140	749.425
163.906	16.027	977.216	748.953
164.921	16.017	976.797	748.523
165.935	16.001	976.047	747.808
166.950	16.157	974.637	747.352
167.964	16.182	973.859	746.803
168.979	16.143	973.107	745.989
169.994	16.022	972.220	744.707
171.008	16.192	971.527	744.859
172.023	16.301	970.694	744.635
173.037	16.441	969.883	744.566
174.052	16.308	969.263	743.437
175.067	16.101	968.543	741.911
176.081	16.108	967.972	741.437
177.096	16.066	967.508	740.830
178.110	16.073	966.936	740.360
179.125	16.203	966.023	740.163
180.140	16.034	966.158	739.460
181.154	16.242	965.250	739.612
182.169	16.239	964.940	739.297
183.183	16.368	963.978	739.059
184.198	16.422	963.263	738.680
185.213	16.309	962.960	737.889
186.227	16.392	962.058	737.495
187.242	16.370	961.481	736.892
188.256	16.457	960.842	736.715
189.271	16.570	959.551	736.153
190.286	16.355	958.713	734.508
191.300	16.159	958.005	733.049
192.315	16.146	957.277	732.371
193.329	16.033	956.839	731.480
194.344	16.255	956.051	731.777
195.359	16.229	955.888	731.475
196.373	16.322	955.113	731.221
197.388	16.482	954.798	731.606
198.402	16.417	954.243	730.834
199.417	16.609	953.674	731.164
200.432	16.707	953.097	731.081
201.446	16.640	952.808	730.504
202.461	16.861	951.922	730.715
203.475	16.794	951.485	730.024
204.490	16.791	950.266	729.013
205.504	16.562	949.521	727.393
206.519	16.564	948.829	726.806
207.534	16.558	948.265	726.284
208.548	16.447	947.686	725.299
209.563	16.512	946.942	724.944
210.577	16.578	946.510	724.835
211.592	16.729	945.459	724.609
212.607	16.767	944.509	723.980
213.621	16.727	943.605	723.053
214.636	16.658	943.170	722.362
215.650	16.845	942.406	722.508
216.665	16.799	941.954	721.904
217.680	16.913	941.003	721.594
218.694	16.921	940.298	721.023
219.709	16.921	939.744	720.536
220.723	16.812	939.444	719.778
221.738	16.796	938.643	719.035
222.753	16.818	937.628	718.286
223.767	16.915	937.191	718.300
224.782	16.974	936.882	718.249
225.796	17.034	936.295	717.987
226.811	16.912	935.328	716.670
227.826	16.895	934.342	715.775
228.840	16.877	933.996	715.372
229.855	16.865	932.850	714.380
230.869	16.879	932.217	713.893
231.884	16.748	931.739	712.910
232.899	16.763	930.708	712.123
233.913	16.862	930.145	712.045
234.928	16.763	929.187	710.835
235.942	16.707	928.878	710.298
236.957	16.696	928.530	709.925
237.972	16.752	928.088	709.759
238.986	16.821	927.035	709.180
240.001	16.798	926.149	708.343
241.015	16.916	925.913	708.590
242.030	16.915	925.019	707.843
243.045	16.906	924.443	707.301
244.059	16.890	923.944	706.786
245.074	17.078	923.074	706.844
246.088	17.121	922.530	706.545
247.103	17.118	921.722	705.849
248.117	17.186	921.596	705.972
249.132	17.451	920.741	706.357
250.147	17.497	920.150	706.033
251.161	17.482	919.762	705.608
252.176	17.523	918.937	705.082
253.190	17.504	918.568	704.660
254.205	17.571	917.824	704.302
255.220	17.656	917.025	703.979
256.234	17.442	916.636	702.733
257.249	17.530	915.866	702.444
258.263	17.629	914.754	701.935
259.278	17.558	913.893	700.920
260.293	17.608	913.663	700.892
261.307	17.788	912.804	700.910
262.322	17.725	912.614	700.441
263.336	17.893	911.468	700.189
264.351	17.655	911.174	698.924
265.366	17.768	910.400	698.732
266.380	17.671	910.102	698.044
267.395	17.682	909.117	697.272
268.409	17.722	908.237	696.700
269.424	17.728	907.305	695.949
270.439	17.591	906.281	694.542
271.453	17.702	906.072	694.774
272.468	17.664	905.732	694.297
273.482	17.610	905.084	693.519
274.497	17.591	904.055	692.589
275.512	17.630	903.719	692.429
276.526	17.682	903.276	692.241
277.541	17.798	902.726	692.229
278.555	17.791	902.229	691.758
279.570	17.862	901.794	691.653
280.585	17.933	900.911	691.201
281.599	17.822	899.938	689.942
282.614	17.864	899.143	689.443
283.628	17.960	898.389	689.192
284.643	17.827	897.979	688.279
285.657	17.833	897.431	687.822
286.672	17.866	896.700	687.334
287.687	17.911	896.136	687.022
288.701	17.786	895.358	685.864
289.716	17.855	894.886	685.719
290.730	18.014	894.108	685.699
291.745	18.040	893.521	685.293
292.760	18.048	892.882	684.774
293.774	18.005	892.808	684.484
294.789	17.983	892.066	683.766
295.803	17.867	891.104	682.503
296.818	17.820	890.418	681.733
297.833	17.851	889.766	681.294
298.847	17.967	888.964	681.085
299.862	17.987	888.434	680.697
300.876	18.109	887.978	680.773
301.891	18.200	887.240	680.511
302.906	18.191	886.717	680.012
303.920	18.398	886.211	680.387
304.935	18.307	885.801	679.650
305.949	18.329	885.177	679.198
306.964	18.211	884.533	678.175
307.979	18.255	883.966	677.856
308.993	18.260	883.326	677.324
310.008	18.443	882.380	677.264
311.022	18.324	881.988	676.431
312.037	18.154	881.697	675.476
313.052	18.123	880.964	674.735
314.066	18.121	880.017	673.941
315.081	18.070	879.902	673.591
316.095	18.203	879.003	673.368
317.110	18.045	878.641	672.410
318.125	18.069	878.066	672.005
319.139	18.094	877.357	671.500
320.154	18.184	876.664	671.263
321.168	18.203	876.409	671.084
322.183	18.286	875.767	670.860
323.197	18.289	875.004	670.227
324.212	18.359	874.485	670.043
325.227	18.409	873.817	669.667
326.241	18.317	873.172	668.754
327.256	18.496	872.415	668.812
328.270	18.244	872.211	667.616
329.285	18.354	871.286	667.279
330.300	18.249	870.928	666.536
331.314	18.310	870.365	666.283
332.329	18.413	870.105	666.426
333.343	18.501	869.545	666.281
334.358	18.611	869.078	666.291
335.373	18.520	868.807	665.669
336.387	18.464	868.468	665.135
337.402	18.529	868.432	665.298
338.416	18.664	868.004	665.437
339.431	18.614	867.645	664.910
340.446	18.609	867.217	664.502
341.460	18.777	866.501	664.546
342.475	18.623	866.536	663.915
343.489	18.837	865.861	664.169
344.504	18.891	865.331	663.911
345.519	18.857	865.004	663.469
346.533	18.963	864.269	663.256
347.548	18.773	863.815	662.117
348.562	18.720	862.782	661.065
349.577	18.614	862.559	660.425
350.592	18.590	861.814	659.704
351.606	18.651	860.765	659.077
352.621	18.717	860.124	658.782
353.635	18.733	859.526	658.325
354.650	18.748	858.673	657.674
355.665	18.855	858.175	657.643
356.679	18.912	857.646	657.399
357.694	18.849	857.348	656.869
358.708	18.965	855.958	656.187
359.723	18.987	855.481	655.850
360.738	18.961	855.304	655.555
361.752	18.955	854.608	654.941
362.767	19.120	853.866	654.943
363.781	19.244	853.279	654.906
364.796	19.109	853.251	654.314
365.810	19.195	852.827	654.257
366.825	19.307	852.428	654.317
367.840	19.170	851.938	653.365
368.854	19.191	851.369	652.952
369.869	19.057	851.235	652.281
370.883	19.134	850.883	652.246
371.898	19.191	850.459	652.081
372.913	19.337	849.797	652.066
373.927	19.166	849.433	651.084
374.942	19.267	848.756	650.886
375.956	19.290	848.369	650.621
376.971	19.398	848.207	650.845
377.986	19.327	847.679	650.116
379.000	19.602	846.785	650.408
380.015	19.485	846.157	649.429
381.029	19.537	845.472	649.042
382.044	19.365	845.138	648.079
383.059	19.574	844.574	648.374
384.073	19.450	844.089	647.481
385.088	19.514	843.213	646.990
386.102	19.434	842.667	646.215
387.117	19.380	842.158	645.565
388.132	19.256	841.854	644.809
389.146	19.299	841.140	644.367
390.161	19.453	840.536	644.424
391.175	19.428	840.390	644.161
392.190	19.475	839.504	643.598
393.205	19.513	838.911	643.228
394.219	19.301	839.040	642.483
395.234	19.467	838.130	642.345
396.248	19.415	837.782	641.830
397.263	19.167	837.470	640.610
398.278	19.300	836.935	640.638
399.292	19.396	836.119	640.314
400.307	19.296	835.762	639.615
401.321	19.301	835.391	639.292
402.336	19.301	835.251	639.127
403.350	19.417	834.605	639.008
404.365	19.629	834.105	639.354
405.380	19.687	833.503	639.048
406.394	19.570	833.103	638.253
407.409	19.623	832.906	638.242
408.423	19.746	832.342	638.208
409.438	19.818	832.403	638.462
410.453	19.889	831.668	638.105
411.467	19.934	831.102	637.778
412.482	19.908	830.719	637.332
413.496	19.945	830.613	637.330
414.511	19.985	830.089	637.019
415.526	20.004	829.615	636.671
416.540	19.902	828.849	635.652
417.555	19.952	828.434	635.462
418.569	19.949	828.003	635.061
419.584	20.040	827.593	635.024
420.599	20.067	827.249	634.804
421.613	150.630	1366.081	1765.546
422.628	131.373	1444.614	1765.665
