DTS Sentinel unit serial number:	SN413079Multiplexer serial number:	ORYXHardware model number:	OX4-SRSoftware version number:	ORYX F/W v4.00 Oryx Data Collector v3.7.2.0data status	okinstallation	princeton_trtdifferential loss correction	single-endedforward channel	channel 1reverse channel	N/Adate	2019/09/12time	18:11:34forward acquisition time	15.00reverse acquisition time	0.00gamma	496.2192k internal	0.2317k external	0.2317temperature offset calibration	1.0110default loss term (dB/km)	0.3790temperature slope calibration	1.0000multiplexer offset coefficient	1.0000multiplexer slope coefficient	1.0000fibre end	0.00T internal ref (°C)	33.56T ext. ref 1 (°C)	2.89T ext. ref 2 (°C)	28.23length (m)	temperature (°C)	Stokes	anti-Stokes-747.200	800.000	-0.157	0.503
-746.185	-200.000	0.051	-0.354
-745.171	187.311	-0.100	-0.151
-744.156	-49.932	-0.395	0.190
-743.142	110.397	-0.309	0.376
-742.127	800.000	-0.105	0.357
-741.112	-11.933	-0.121	-0.080
-740.098	-9.480	-0.377	-0.255
-739.083	-125.942	-0.215	-0.033
-738.069	446.699	0.235	0.523
-737.054	-200.000	-0.044	0.306
-736.039	-159.846	-0.794	-0.044
-735.025	-200.000	0.151	-0.794
-734.010	-95.134	-0.054	-0.015
-732.996	-146.235	0.380	-0.034
-731.981	-108.525	0.609	-0.133
-730.966	-50.060	-0.731	-0.350
-729.952	-26.973	-0.174	-0.103
-728.937	16.150	-0.174	0.139
-727.923	-0.047	-0.245	-0.177
-726.908	-39.850	-0.609	-0.322
-725.894	-18.776	0.544	0.343
-724.879	222.165	0.236	-0.385
-723.864	309.569	-0.162	0.306
-722.850	22.972	-0.412	-0.342
-721.835	800.000	-0.171	0.734
-720.821	-200.000	0.023	0.168
-719.806	164.162	0.228	0.325
-718.791	655.288	-0.209	-0.543
-717.777	-76.706	-0.498	0.177
-716.762	460.791	0.344	-0.775
-715.748	800.000	-0.235	0.977
-714.733	49.088	-0.828	0.786
-713.718	-195.687	0.323	0.002
-712.704	800.000	-0.148	0.513
-711.689	-200.000	0.035	0.597
-710.675	188.201	-0.321	0.485
-709.660	-122.725	0.316	-0.052
-708.645	800.000	0.149	0.524
-707.631	-114.828	-0.112	-0.022
-706.616	-90.832	0.699	0.204
-705.602	-141.313	-0.596	-0.061
-704.587	592.255	-0.225	-0.563
-703.572	274.244	0.280	0.501
-702.558	-107.770	0.175	-0.039
-701.543	-108.983	0.513	0.111
-700.529	298.123	0.199	-0.370
-699.514	-129.749	-0.756	-0.105
-698.499	-161.285	-0.441	-0.023
-697.485	317.767	-0.268	0.513
-696.470	-162.422	0.551	0.028
-695.456	-151.101	-0.374	0.028
-694.441	-200.000	-0.021	-0.789
-693.426	53.762	-0.678	-0.658
-692.412	-149.658	-0.513	0.041
-691.397	-169.558	-0.323	-0.012
-690.383	0.649	0.901	0.651
-689.368	91.865	-0.336	-0.382
-688.354	-195.426	-0.648	-0.005
-687.339	156.451	0.089	0.125
-686.324	-97.730	0.876	-0.229
-685.310	178.809	0.325	-0.480
-684.295	215.597	-0.243	-0.389
-683.281	-200.000	0.058	1.127
-682.266	566.055	-0.125	0.307
-681.251	461.475	0.390	-0.878
-680.237	-19.505	-0.515	-0.323
-679.222	-136.359	-0.411	0.048
-678.208	-146.851	0.314	0.027
-677.193	87.577	0.086	-0.096
-676.178	-200.000	-0.018	1.349
-675.164	-106.402	-0.311	0.070
-674.149	226.991	0.385	0.632
-673.135	-200.000	0.040	0.508
-672.120	-68.736	0.832	0.325
-671.105	-90.419	0.244	-0.071
-670.091	-200.000	0.047	0.244
-669.076	283.151	0.135	-0.244
-668.062	-200.000	0.023	0.214
-667.047	-158.758	-1.195	-0.069
-666.032	-26.721	0.358	-0.211
-665.018	-111.003	0.501	-0.104
-664.003	110.608	0.077	0.093
-662.989	220.536	-0.193	-0.312
-661.974	-168.097	-0.572	-0.022
-660.959	-200.000	0.003	0.992
-659.945	-52.261	-0.625	0.293
-658.930	-200.000	0.095	0.609
-657.916	29.312	0.347	0.298
-656.901	-200.000	-0.010	0.048
-655.886	-97.541	0.527	0.138
-654.872	-200.000	-0.004	-0.255
-653.857	329.896	-0.519	1.008
-652.843	-150.401	0.171	0.013
-651.828	-130.607	0.717	-0.098
-650.814	-123.728	-0.086	0.014
-649.799	5.042	-0.459	0.341
-648.784	-111.775	-0.644	-0.132
-647.770	-76.334	-0.577	0.205
-646.755	94.032	-0.654	-0.749
-645.741	800.000	-0.204	-0.829
-644.726	120.565	0.182	-0.229
-643.711	134.599	0.065	0.085
-642.697	800.000	-0.087	0.344
-641.682	-66.551	0.663	-0.265
-640.668	800.000	0.202	-0.682
-639.653	-200.000	0.157	-0.859
-638.638	-191.263	0.533	-0.006
-637.624	-53.891	-0.319	0.147
-636.609	-85.471	-0.560	0.176
-635.595	32.750	0.294	0.257
-634.580	800.000	0.114	0.370
-633.565	6.243	-0.269	0.201
-632.551	133.093	0.117	-0.152
-631.536	-54.976	0.372	-0.169
-630.522	84.855	-0.516	-0.570
-629.507	-200.000	-0.480	0.001
-628.492	45.354	0.210	-0.196
-627.478	117.028	0.517	-0.640
-626.463	-200.000	0.167	-0.963
-625.449	306.925	0.183	-0.344
-624.434	205.127	0.686	-1.074
-623.419	115.486	0.101	0.125
-622.405	-49.715	-0.490	0.235
-621.390	43.764	-0.376	0.347
-620.376	-67.916	0.870	0.342
-619.361	800.000	-0.139	-0.611
-618.346	22.637	0.369	0.304
-617.332	30.937	0.031	0.027
-616.317	33.214	0.382	0.334
-615.303	128.207	0.390	-0.501
-614.288	-105.641	0.721	0.165
-613.273	-111.450	0.639	0.131
-612.259	-4.575	-0.604	0.420
-611.244	-2.155	0.452	-0.320
-610.230	-78.612	-0.737	0.254
-609.215	-176.695	0.336	0.009
-608.201	-17.981	-0.320	0.202
-607.186	-200.000	-0.042	-1.126
-606.171	-6.321	-0.532	-0.365
-605.157	398.215	-0.261	0.550
-604.142	-167.731	-0.902	0.036
-603.128	-200.000	0.022	0.590
-602.113	187.228	0.334	0.501
-601.098	-104.955	-0.533	-0.123
-600.084	36.529	-0.153	-0.136
-599.069	-24.540	-0.932	-0.559
-598.055	-200.000	0.066	-0.697
-597.040	57.510	0.523	-0.515
-596.025	-84.873	-0.486	0.154
-595.011	177.225	-0.483	-0.707
-593.996	40.675	-0.254	0.231
-592.982	-117.601	-0.059	-0.011
-591.967	-32.651	0.370	0.207
-590.952	172.811	-0.108	-0.156
-589.938	352.216	-0.160	-0.318
-588.923	439.651	-0.074	0.162
-587.909	-155.777	-0.543	-0.035
-586.894	-109.275	-0.287	-0.061
-585.879	-147.055	-0.403	0.035
-584.865	-45.540	0.630	-0.314
-583.850	72.382	-0.381	-0.400
-582.836	-124.339	0.494	-0.078
-581.821	-8.002	-0.342	-0.232
-580.806	131.744	0.224	-0.290
-579.792	-31.320	0.390	0.221
-578.777	256.191	0.258	0.446
-577.763	-200.000	-0.009	-0.177
-576.748	92.733	0.574	0.651
-575.733	754.370	0.169	0.459
-574.719	-121.422	-0.621	0.104
-573.704	-63.166	-0.376	-0.156
-572.690	4.207	0.138	0.101
-571.675	-103.964	-0.085	-0.020
-570.661	-89.560	0.813	-0.240
-569.646	268.888	-0.253	0.446
-568.631	499.629	-0.083	-0.192
-567.617	-200.000	-0.161	0.947
-566.602	-141.327	0.488	-0.050
-565.588	-44.604	-0.129	-0.065
-564.573	800.000	-0.178	0.721
-563.558	35.873	0.585	0.518
-562.544	654.867	0.072	0.185
-561.529	526.259	0.286	-0.677
-560.515	12.280	-0.654	0.507
-559.500	-131.190	-0.724	0.097
-558.485	30.340	0.429	-0.369
-557.471	-136.659	0.147	0.017
-556.456	-156.882	0.704	0.043
-555.442	101.470	0.253	-0.296
-554.427	-74.068	0.702	0.256
-553.412	800.000	-0.135	-0.384
-552.398	-200.000	-0.021	0.237
-551.383	46.844	-0.080	0.075
-550.369	800.000	-0.265	0.743
-549.354	26.381	0.254	0.214
-548.339	-143.769	0.379	-0.036
-547.325	38.971	0.739	-0.663
-546.310	392.850	-0.156	0.327
-545.296	243.194	0.146	0.245
-544.281	200.291	0.267	0.412
-543.266	800.000	0.051	0.159
-542.252	-200.000	0.040	-0.977
-541.237	-200.000	0.054	-0.364
-540.223	24.520	-0.625	0.519
-539.208	-200.000	-0.017	-0.161
-538.193	367.583	0.202	0.411
-537.179	-7.346	-0.059	0.040
-536.164	800.000	0.088	-0.264
-535.150	-147.121	-0.543	-0.047
-534.135	-102.438	-0.797	-0.192
-533.121	800.000	0.220	0.717
-532.106	-56.986	-0.496	0.220
-531.091	-144.966	0.377	0.035
-530.077	-21.447	-0.456	0.279
-529.062	-200.000	-0.012	0.581
-528.048	102.723	-0.528	0.620
-527.033	800.000	0.196	-0.712
-526.018	23.868	-0.230	0.190
-525.004	392.354	-0.451	0.942
-523.989	-200.000	0.160	-0.715
-522.975	66.168	0.212	-0.216
-521.960	81.139	0.571	-0.619
-520.945	-66.486	0.721	0.287
-519.931	-43.656	-0.372	0.188
-518.916	5.595	-0.527	0.391
-517.902	53.742	0.339	0.327
-516.887	800.000	-0.094	-0.345
-515.872	-100.612	-0.589	-0.146
-514.858	-200.000	0.075	0.403
-513.843	-130.507	-0.117	-0.016
-512.829	753.693	-0.102	0.276
-511.814	145.657	-0.346	-0.465
-510.799	800.000	0.156	-0.466
-509.785	19.869	0.678	0.548
-508.770	631.118	-0.413	-1.050
-507.756	-77.555	-0.361	0.126
-506.741	6.056	0.955	0.710
-505.726	-151.676	-0.883	-0.065
-504.712	257.922	0.218	0.377
-503.697	212.877	0.681	1.079
-502.683	636.518	-0.071	0.181
-501.668	49.702	-0.488	0.461
-500.653	-154.793	-0.443	-0.029
-499.639	106.406	-0.204	0.242
-498.624	248.009	-0.439	0.744
-497.610	445.235	-0.055	0.120
-496.595	-200.000	0.182	-1.196
-495.581	-131.973	0.093	-0.012
-494.566	-200.000	0.009	0.105
-493.551	-106.762	-0.187	0.042
-492.537	800.000	-0.252	0.889
-491.522	-91.602	0.055	0.016
-490.508	-89.664	0.404	-0.119
-489.493	456.185	0.456	1.014
-488.478	-200.000	0.032	0.372
-487.464	800.000	0.213	0.602
-486.449	-62.522	0.327	0.136
-485.435	-93.999	0.431	-0.119
-484.420	800.000	-0.097	0.332
-483.405	-167.131	0.083	-0.003
-482.391	79.241	-0.517	-0.555
-481.376	85.037	0.172	-0.189
-480.362	-29.599	0.569	0.326
-479.347	800.000	0.064	0.251
-478.332	112.442	-0.187	-0.227
-477.318	-77.306	0.590	0.206
-476.303	800.000	0.038	-0.112
-475.289	-77.816	0.503	-0.174
-474.274	-131.813	-0.260	0.034
-473.259	198.080	-0.370	0.567
-472.245	-200.000	-0.024	0.604
-471.230	-200.000	-0.132	0.843
-470.216	-13.629	0.374	-0.242
-469.201	800.000	0.179	0.582
-468.186	-68.685	-0.110	-0.043
-467.172	-75.366	-0.131	0.047
-466.157	15.208	0.688	0.540
-465.143	-103.163	-1.204	0.285
-464.128	104.026	-0.579	-0.682
-463.113	-144.846	-1.550	-0.142
-462.099	-111.273	-0.649	-0.133
-461.084	-200.000	0.045	-0.439
-460.070	83.638	-0.152	-0.166
-459.055	735.963	-0.213	0.570
-458.040	30.528	-0.485	-0.415
-457.026	-106.531	-0.361	-0.081
-456.011	-29.843	0.835	0.477
-454.997	9.210	-0.536	-0.406
-453.982	-18.910	0.752	-0.468
-452.968	-35.408	0.365	0.199
-451.953	-148.863	-0.754	-0.061
-450.938	800.000	0.118	0.449
-449.924	-141.554	0.923	0.093
-448.909	800.000	0.286	-0.857
-447.895	91.570	0.722	0.812
-446.880	677.562	-0.072	0.188
-445.865	127.391	-0.468	-0.595
-444.851	74.947	-0.298	0.314
-443.836	-200.000	0.198	-0.932
-442.822	-172.807	0.835	0.026
-441.807	21.232	-0.292	-0.237
-440.792	-109.100	-0.056	-0.012
-439.778	-96.267	0.506	0.134
-438.763	78.443	0.417	-0.446
-437.749	-200.000	-0.039	-0.251
-436.734	-91.782	0.156	0.044
-435.719	113.985	0.194	-0.236
-434.705	677.343	0.112	-0.291
-433.690	-110.756	-0.487	-0.101
-432.676	-129.758	0.729	0.100
-431.661	245.765	0.233	-0.392
-430.646	527.227	-0.456	-1.074
-429.632	-6.543	-0.394	0.268
-428.617	-200.000	0.008	-0.737
-427.603	-200.000	-0.064	0.832
-426.588	-150.031	-0.872	-0.068
-425.573	-26.897	0.336	0.196
-424.559	40.637	-0.223	-0.201
-423.544	-18.850	0.548	-0.341
-422.530	172.558	-0.158	0.227
-421.515	263.147	0.218	-0.379
-420.500	7.252	0.140	-0.104
-419.486	127.391	-0.457	0.580
-418.471	304.734	-0.207	-0.384
-417.457	-200.000	0.021	0.133
-416.442	-65.737	0.701	-0.281
-415.428	-200.000	0.035	0.348
-414.413	312.779	0.549	-1.031
-413.398	-200.000	-0.361	0.001
-412.384	8.560	-0.554	0.417
-411.369	-124.421	-0.256	0.040
-410.355	739.736	-0.099	0.265
-409.340	-70.490	0.738	-0.279
-408.325	-200.000	0.008	0.275
-407.311	-200.000	0.150	0.786
-406.296	119.860	-0.107	0.133
-405.282	-117.896	1.075	-0.193
-404.267	-200.000	-0.057	-0.971
-403.252	-51.512	0.261	0.122
-402.238	-55.544	-0.557	0.249
-401.223	-121.433	0.424	0.071
-400.209	-7.852	-0.069	0.046
-399.194	-71.882	-0.798	0.297
-398.179	507.210	-0.415	0.961
-397.165	800.000	-0.140	0.481
-396.150	673.824	0.186	-0.483
-395.136	30.583	-0.856	-0.731
-394.121	-33.692	-0.189	-0.104
-393.106	-124.206	-0.391	-0.061
-392.092	-141.022	-0.242	0.025
-391.077	12.053	-0.576	0.443
-390.063	640.481	-0.076	0.192
-389.048	84.105	-0.134	-0.146
-388.033	-148.524	1.161	0.095
-387.019	136.699	0.616	-0.803
-386.004	-200.000	-0.428	0.001
-384.990	-33.177	0.433	-0.240
-383.975	432.902	0.055	0.120
-382.960	-200.000	-0.035	1.262
-381.946	5.799	-0.321	-0.237
-380.931	-200.000	-0.010	-0.523
-379.917	30.104	-0.196	-0.167
-378.902	-148.575	-0.932	-0.076
-377.888	-32.476	0.899	0.500
-376.873	-200.000	-0.086	-0.780
-375.858	-200.000	0.096	-0.425
-374.844	220.280	-0.375	0.600
-373.829	68.055	0.519	-0.530
-372.815	-111.128	-0.925	-0.189
-371.800	-96.084	-0.444	0.118
-370.785	-200.000	-0.114	-0.772
-369.771	-93.516	-0.913	-0.252
-368.756	-200.000	0.031	-0.998
-367.742	-200.000	0.062	-0.283
-366.727	64.658	0.145	0.146
-365.712	416.180	0.199	-0.423
-364.698	174.674	-0.575	-0.831
-363.683	-47.552	0.714	-0.346
-362.669	800.000	-0.307	-0.991
-361.654	77.690	-0.233	0.247
-360.639	-104.332	0.651	0.150
-359.625	-25.911	-0.453	0.266
-358.610	5.394	0.395	-0.291
-357.596	69.644	-0.108	0.111
-356.581	-16.189	-0.440	-0.279
-355.566	307.376	-0.323	0.601
-354.552	6.620	0.584	0.433
-353.537	0.203	-1.006	-0.715
-352.523	-200.000	0.070	0.450
-351.508	499.663	-0.337	-0.774
-350.493	14.961	-0.281	0.220
-349.479	-166.371	0.732	0.031
-348.464	800.000	-0.163	0.675
-347.450	-115.236	-0.188	-0.035
-346.435	-151.230	0.378	0.028
-345.420	-34.061	-0.356	-0.195
-344.406	15.568	0.422	0.330
-343.391	-175.716	0.553	-0.015
-342.377	-200.000	0.016	-0.370
-341.362	153.976	0.298	-0.407
-340.348	800.000	0.239	-0.720
-339.333	394.767	-0.197	0.410
-338.318	546.818	0.269	0.640
-337.304	-156.007	0.944	0.060
-336.289	90.343	-0.243	-0.271
-335.275	292.590	0.034	0.062
-334.260	-123.905	-0.539	-0.085
-333.245	-31.731	0.864	-0.483
-332.231	-81.736	-0.527	0.172
-331.216	-85.372	-0.846	0.263
-330.202	-122.099	0.522	0.085
-329.187	-107.078	0.335	-0.074
-328.172	657.765	-0.199	-0.509
-327.158	795.174	0.028	0.076
-326.143	-156.776	-0.465	0.029
-325.129	30.312	-0.448	0.381
-324.114	283.057	0.656	-1.173
-323.099	84.202	0.281	0.306
-322.085	306.322	0.168	0.311
-321.070	-94.312	0.481	-0.131
-320.056	800.000	-0.055	-0.155
-319.041	-61.099	0.519	-0.218
-318.026	591.143	0.137	0.337
-317.012	-16.721	0.522	0.329
-315.997	-200.000	0.066	-0.315
-314.983	29.248	0.215	0.182
-313.968	55.656	0.490	0.472
-312.953	715.626	0.079	0.207
-311.939	166.683	-0.093	-0.132
-310.924	-69.989	0.159	0.060
-309.910	-59.776	-0.991	-0.422
-308.895	16.254	-0.172	0.135
-307.880	-138.079	-0.490	-0.054
-306.866	-101.711	-0.632	0.153
-305.851	-113.953	-0.350	0.068
-304.837	214.454	-0.208	-0.328
-303.822	-46.779	0.924	-0.450
-302.807	-191.239	-0.748	0.008
-301.793	-62.414	0.089	-0.037
-300.778	96.222	0.358	-0.408
-299.764	139.089	0.149	0.194
-298.749	-147.685	0.628	0.052
-297.735	168.654	0.352	-0.499
-296.720	-71.040	-0.449	-0.168
-295.705	-97.227	1.090	-0.283
-294.691	-111.291	-0.520	-0.106
-293.676	-98.366	-0.508	0.130
-292.662	17.285	0.213	0.168
-291.647	101.443	0.215	0.249
-290.632	164.502	0.260	-0.365
-289.618	-50.338	-0.491	-0.231
-288.603	-53.268	0.358	-0.164
-287.589	-76.321	-0.209	0.073
-286.574	-100.805	-0.742	-0.182
-285.559	-36.781	-0.580	0.310
-284.545	-26.217	0.043	0.025
-283.530	-172.954	0.598	-0.018
-282.516	255.279	0.200	0.340
-281.501	132.761	-0.145	0.186
-280.486	785.798	0.092	0.251
-279.472	6.266	0.652	0.481
-278.457	2.955	0.830	0.599
-277.443	-92.767	-0.865	-0.241
-276.428	-104.860	-0.575	-0.131
-275.413	60.198	-0.129	0.126
-274.399	-55.121	-1.078	-0.482
-273.384	321.461	0.196	0.372
-272.370	18.987	-0.375	0.299
-271.355	-69.323	0.599	0.229
-270.340	18.642	-0.495	0.394
-269.326	156.142	0.138	0.189
-268.311	74.799	-0.068	-0.071
-267.297	800.000	-0.148	-0.581
-266.282	-59.969	-0.512	-0.217
-265.267	-200.000	0.050	-0.607
-264.253	-141.358	-0.718	0.072
-263.238	369.685	-0.106	0.213
-262.224	55.071	0.126	-0.121
-261.209	468.046	-0.074	0.165
-260.195	-140.984	0.221	0.023
-259.180	-83.681	0.567	0.180
-258.165	572.762	-0.354	-0.857
-257.151	361.527	0.248	0.495
-256.136	800.000	-0.104	0.445
-255.122	-200.000	-0.062	0.933
-254.107	800.000	-0.190	0.803
-253.092	-200.000	-0.058	-0.345
-252.078	800.000	-0.144	-0.398
-251.063	-114.024	0.378	-0.073
-250.049	-33.535	0.642	0.352
-249.034	-148.203	-0.885	0.073
-248.019	-78.204	0.389	-0.133
-247.005	-119.706	-1.365	0.234
-245.990	445.069	0.118	-0.258
-244.976	-112.779	-0.122	-0.024
-243.961	-134.081	0.367	-0.045
-242.946	-200.000	-0.034	0.404
-241.932	-128.592	-0.343	-0.048
-240.917	771.474	0.241	0.651
-239.903	800.000	0.171	0.524
-238.888	45.502	-0.319	-0.292
-237.873	-38.168	0.551	0.290
-236.859	376.393	0.636	1.289
-235.844	505.699	0.216	-0.497
-234.830	-95.279	0.612	0.163
-233.815	-200.000	0.037	0.193
-232.800	-200.000	0.003	0.469
-231.786	-153.832	0.582	0.040
-230.771	-200.000	0.066	-0.454
-229.757	-28.983	0.333	-0.190
-228.742	8.646	0.343	-0.257
-227.727	-2.411	-0.506	-0.352
-226.713	34.929	-0.397	0.345
-225.698	-37.019	0.334	-0.178
-224.684	-110.823	-0.788	0.161
-223.669	-98.761	-0.300	-0.076
-222.655	-188.092	0.424	0.005
-221.640	73.202	-0.352	-0.366
-220.625	80.983	-0.760	-0.814
-219.611	68.591	-0.719	-0.731
-218.596	77.769	0.556	0.588
-217.582	-200.000	0.048	0.368
-216.567	-200.000	0.014	-0.269
-215.552	-125.876	0.580	0.087
-214.538	520.320	0.187	-0.434
-213.523	-200.000	-0.006	0.571
-212.509	-70.183	0.809	0.305
-211.494	214.544	0.135	-0.212
-210.479	402.871	-0.400	0.835
-209.465	-200.000	-0.160	0.701
-208.450	-8.684	-0.331	0.220
-207.436	445.065	0.321	0.699
-206.421	-200.000	-0.033	-0.633
-205.406	-108.719	-0.585	-0.124
-204.392	-179.152	-0.218	0.005
-203.377	-127.763	-0.400	0.057
-202.363	-7.129	0.451	0.303
-201.348	-200.000	0.026	0.147
-200.333	-75.876	-0.494	0.174
-199.319	-200.000	0.016	-0.309
-198.304	-200.000	0.059	-0.283
-197.290	582.930	0.098	0.238
-196.275	50.652	0.256	0.240
-195.260	11.540	0.413	0.314
-194.246	158.415	-0.459	0.631
-193.231	64.041	0.321	0.320
-192.217	720.818	-0.245	0.646
-191.202	800.000	0.204	-0.705
-190.187	-154.041	0.310	-0.021
-189.173	-126.224	-0.455	0.067
-188.158	68.051	-0.430	0.436
-187.144	800.000	0.117	-0.402
-186.129	46.025	-0.182	-0.167
-185.114	515.075	0.178	-0.411
-184.100	-200.000	0.016	-0.093
-183.085	-5.401	0.365	0.248
-182.071	-200.000	0.040	0.454
-181.056	800.000	-0.093	0.286
-180.042	646.217	0.347	-0.879
-179.027	231.099	0.371	0.602
-178.012	-200.000	0.046	-0.849
-176.998	131.048	-0.632	0.803
-175.983	-200.000	0.011	0.267
-174.969	534.752	0.144	-0.338
-173.954	325.495	0.012	0.023
-172.939	-200.000	0.062	0.410
-171.925	-200.000	0.050	0.861
-170.910	-200.000	0.083	0.533
-169.896	800.000	-0.064	0.274
-168.881	800.000	0.270	-0.783
-167.866	-136.966	0.614	-0.070
-166.852	-200.000	-0.014	-0.326
-165.837	529.081	0.275	-0.644
-164.823	-200.000	-0.096	0.429
-163.808	333.288	-0.120	0.230
-162.793	190.406	-0.102	-0.152
-161.779	-80.582	0.739	0.244
-160.764	-92.046	0.276	0.077
-159.750	-85.990	0.781	-0.239
-158.735	-91.968	0.360	-0.101
-157.720	-59.236	0.405	0.173
-156.706	-200.000	0.002	0.501
-155.691	-69.082	-0.535	0.204
-154.677	-115.871	0.614	0.114
-153.662	565.780	-0.362	-0.868
-152.647	-200.000	0.159	-1.675
-151.633	219.887	0.628	-0.995
-150.618	-200.000	0.011	-0.485
-149.604	42.828	0.230	0.208
-148.589	-200.000	0.016	-0.111
-147.574	-200.000	-0.039	0.182
-146.560	-81.849	0.364	-0.118
-145.545	336.448	-0.131	-0.251
-144.531	-148.403	-0.542	0.044
-143.516	185.414	0.125	-0.184
-142.502	-115.829	0.380	-0.070
-141.487	-83.256	0.272	0.087
-140.472	-200.000	-0.014	-0.216
-139.458	1.544	0.452	0.322
-138.443	800.000	0.035	0.114
-137.429	129.446	0.328	-0.414
-136.414	800.000	0.088	-0.366
-135.399	371.845	-0.308	-0.618
-134.385	-32.924	-0.460	-0.252
-133.370	732.801	-0.032	0.086
-132.356	800.000	-0.208	0.889
-131.341	99.916	-0.227	-0.260
-130.326	-29.436	-0.427	0.241
-129.312	-200.000	-0.047	0.401
-128.297	-112.476	-0.625	-0.123
-127.283	-200.000	-0.000	0.220
-126.268	568.509	-0.137	-0.330
-125.253	-200.000	0.015	0.254
-124.239	64.693	-0.455	-0.454
-123.224	566.843	0.201	0.483
-122.210	218.991	0.063	-0.100
-121.195	335.828	-0.546	1.046
-120.180	-200.000	0.068	0.490
-119.166	298.439	0.508	0.924
-118.151	800.000	0.054	-0.231
-117.137	-123.558	-0.653	0.103
-116.122	74.067	0.334	0.346
-115.107	-2.291	-0.707	0.490
-114.093	169.174	0.675	-0.951
-113.078	-120.619	0.444	0.074
-112.064	-13.830	0.563	-0.360
-111.049	-200.000	0.022	0.152
-110.034	25.938	0.389	-0.320
-109.020	-200.000	0.004	-1.201
-108.005	-200.000	0.150	-0.677
-106.991	693.189	0.160	-0.414
-105.976	-35.261	-0.236	0.127
-104.962	-158.038	-0.920	-0.053
-103.947	-17.588	-0.190	-0.118
-102.932	364.052	0.355	0.705
-101.918	-92.573	-0.561	0.156
-100.903	-112.787	-0.478	-0.094
-99.889	-70.175	-0.484	-0.182
-98.874	88.420	0.309	0.339
-97.859	466.591	-0.267	0.591
-96.845	336.823	-0.196	0.376
-95.830	-131.739	0.209	0.027
-94.816	-200.000	-0.112	-0.895
-93.801	124.293	-0.366	-0.454
-92.786	96.472	-0.191	0.216
-91.772	-1.901	0.254	0.176
-90.757	-36.496	0.375	0.199
-89.743	-200.000	0.009	-0.587
-88.728	-62.509	-0.246	-0.101
-87.713	800.000	0.087	0.302
-86.699	-200.000	-0.135	-0.649
-85.684	800.000	-0.209	0.760
-84.670	-109.725	0.449	-0.093
-83.655	-109.038	-0.426	-0.090
-82.640	-59.561	-0.471	0.200
-81.626	-200.000	-0.055	0.429
-80.611	-176.215	0.287	-0.007
-79.597	-115.794	-0.257	0.047
-78.582	-2.353	0.124	0.086
-77.567	-110.784	0.470	0.096
-76.553	-157.110	-0.146	0.009
-75.538	-108.292	0.192	0.041
-74.524	440.860	-0.362	0.780
-73.509	617.719	-0.314	-0.777
-72.494	-149.698	-0.114	-0.009
-71.480	4.485	-0.067	-0.049
-70.465	-3.755	-0.287	-0.196
-69.451	63.671	0.423	0.419
-68.436	133.845	-0.437	0.557
-67.422	25.578	-0.602	-0.494
-66.407	-45.442	-0.465	0.227
-65.392	-60.766	0.768	-0.321
-64.378	53.170	0.236	0.223
-63.363	207.492	-0.152	0.234
-62.349	325.332	0.283	0.534
-61.334	800.000	-0.453	-1.743
-60.319	800.000	0.114	-0.330
-59.305	800.000	0.216	-0.680
-58.290	80.661	0.948	1.007
-57.276	148.391	1.264	1.682
-56.261	-200.000	95.508	571.689
-55.246	632.750	1374.762	3433.621
-54.232	197.906	2548.204	3838.297
-53.217	117.794	2135.109	2591.543
-52.203	45.131	1600.724	1454.083
-51.188	37.130	1340.462	1169.636
-50.173	34.113	1297.421	1114.397
-49.159	57.010	1348.030	1295.034
-48.144	58.628	1364.614	1320.559
-47.130	37.185	1321.949	1153.626
-46.115	33.618	1303.553	1116.571
-45.100	33.299	1300.447	1111.993
-44.086	33.252	1298.009	1109.589
-43.071	33.231	1295.418	1107.210
-42.057	33.220	1294.250	1106.100
-41.042	33.575	1291.178	1105.504
-40.027	33.449	1290.034	1103.747
-39.013	33.299	1289.007	1101.946
-37.998	33.449	1286.812	1100.900
-36.984	33.660	1284.807	1100.367
-35.969	33.422	1283.503	1097.828
-34.954	33.477	1282.352	1097.118
-33.940	33.345	1280.412	1094.647
-32.925	33.514	1279.635	1094.916
-31.911	33.739	1277.576	1094.412
-30.896	33.532	1276.640	1092.375
-29.881	33.935	1274.503	1092.816
-28.867	33.890	1272.277	1090.606
-27.852	33.576	1271.493	1088.091
-26.838	33.644	1270.287	1087.408
-25.823	33.716	1269.392	1087.009
-24.809	33.484	1267.255	1083.812
-23.794	33.796	1265.947	1084.427
-22.779	33.630	1265.533	1083.084
-21.765	33.717	1264.295	1082.479
-20.750	33.757	1262.525	1081.146
-19.736	33.708	1261.007	1079.528
-18.721	33.471	1260.644	1077.824
-17.706	33.588	1259.067	1077.098
-16.692	33.651	1257.193	1075.808
-15.677	33.714	1257.212	1076.140
-14.663	33.810	1255.032	1074.773
-13.648	33.712	1254.531	1073.748
-12.633	33.878	1253.465	1073.734
-11.619	33.175	1253.066	1069.372
-10.604	33.382	1252.168	1069.735
-9.590	33.342	1251.565	1068.952
-8.575	33.630	1250.087	1069.272
-7.560	33.377	1249.140	1066.993
-6.546	33.088	1249.340	1065.491
-5.531	33.247	1248.100	1065.290
-4.517	33.451	1245.965	1064.569
-3.502	33.694	1245.441	1065.445
-2.487	33.187	1245.352	1062.478
-1.473	33.541	1240.394	1060.188
-0.458	31.669	1226.768	1038.134
0.556	28.955	1208.251	998.187
1.571	25.141	1213.529	981.627
2.586	23.807	1228.426	986.191
3.600	23.273	1216.606	973.680
4.615	17.232	1144.949	884.891
5.629	7.699	1068.571	779.252
6.644	3.237	1048.610	743.127
7.659	2.829	1046.167	739.365
8.673	2.770	1043.946	737.445
9.688	2.724	1043.352	736.740
10.702	3.290	1040.656	737.479
11.717	9.335	1050.210	773.326
12.731	19.109	1063.734	830.604
13.746	24.370	1071.647	862.213
14.761	26.048	1072.587	871.001
15.775	25.896	1072.403	870.043
16.790	26.145	1069.954	869.177
17.804	25.824	1071.434	868.756
18.819	26.345	1069.399	869.534
19.834	26.245	1069.806	869.309
20.848	26.267	1070.078	869.560
21.863	26.165	1069.546	868.559
22.877	25.974	1069.105	867.204
23.892	26.452	1066.988	867.703
24.907	26.313	1066.347	866.439
25.921	26.331	1064.527	864.969
26.936	25.935	1064.428	862.919
27.950	26.098	1062.457	862.023
28.965	26.092	1061.849	861.424
29.980	26.120	1059.706	859.744
30.994	26.608	1057.967	860.576
32.009	26.569	1057.355	859.816
33.023	26.142	1056.788	857.250
34.038	26.359	1056.510	857.982
35.053	26.293	1055.936	857.124
36.067	26.197	1055.140	855.947
37.082	26.204	1053.829	854.845
38.096	26.609	1053.293	856.249
39.111	26.296	1052.889	854.366
40.126	26.549	1050.544	853.577
41.140	25.971	1049.240	849.720
42.155	25.898	1048.701	848.864
43.169	25.581	1047.668	846.462
44.184	25.802	1047.164	847.020
45.199	25.945	1045.161	845.996
46.213	25.812	1044.083	844.424
47.228	26.074	1043.994	845.506
48.242	26.039	1042.696	844.218
49.257	26.092	1042.381	844.133
50.271	26.255	1042.269	844.731
51.286	26.486	1040.767	844.515
52.301	26.056	1040.189	841.969
53.315	26.056	1039.457	841.299
54.330	25.993	1038.974	840.543
55.344	26.531	1037.396	841.693
56.359	25.842	1036.807	837.936
57.374	25.854	1035.564	836.916
58.388	25.715	1035.617	836.236
59.403	26.048	1033.341	835.869
60.417	26.033	1032.964	835.422
61.432	25.963	1032.399	834.565
62.447	26.164	1031.162	834.422
63.461	26.032	1030.902	833.528
64.476	25.841	1030.859	832.535
65.490	26.134	1028.797	832.146
66.505	25.774	1028.552	830.215
67.520	26.214	1027.649	831.441
68.534	25.805	1026.635	828.666
69.549	25.635	1025.653	827.016
70.563	25.541	1025.781	826.618
71.578	25.613	1024.903	826.166
72.593	25.471	1023.369	824.204
73.607	25.427	1022.480	823.215
74.622	25.613	1022.808	824.256
75.636	25.829	1022.308	824.773
76.651	25.774	1021.071	823.451
77.666	25.589	1020.305	821.913
78.680	25.679	1019.166	821.332
79.695	25.994	1018.302	822.002
80.709	25.892	1018.009	821.229
81.724	25.787	1017.177	820.007
82.739	25.894	1017.839	820.954
83.753	26.250	1016.624	821.521
84.768	26.555	1015.681	822.069
85.782	26.354	1014.440	820.082
86.797	26.333	1014.721	820.141
87.812	26.578	1012.533	819.408
88.826	26.842	1011.312	819.542
89.841	26.702	1010.978	818.564
90.855	26.697	1010.037	817.710
91.870	26.524	1009.109	816.104
92.884	26.266	1008.104	814.056
93.899	26.978	1005.635	815.189
94.914	26.610	1006.857	814.454
95.928	26.396	1005.395	812.241
96.943	26.228	1004.317	810.545
97.957	26.120	1002.728	808.706
98.972	25.860	1001.244	806.274
99.987	26.263	1000.756	807.611
101.001	26.218	1001.452	807.899
102.016	26.357	1000.986	808.071
103.030	25.847	1000.408	805.256
104.045	26.296	998.962	806.023
105.060	25.691	997.369	801.971
106.074	26.286	996.297	803.685
107.089	26.387	996.673	804.368
108.103	26.389	995.266	803.170
109.118	25.985	994.183	800.434
110.133	25.847	993.075	798.858
111.147	26.008	991.628	798.336
112.162	25.650	990.909	796.102
113.176	26.003	990.524	797.284
114.191	25.775	989.422	795.321
115.206	25.656	988.975	794.365
116.220	25.641	988.022	793.466
117.235	25.892	987.478	794.063
118.249	25.518	986.751	791.760
119.264	25.528	985.569	790.787
120.279	25.683	984.867	790.834
121.293	25.695	984.647	790.641
122.308	25.885	983.111	790.168
123.322	25.679	981.692	788.056
124.337	25.512	979.989	785.890
125.352	24.951	979.782	783.204
126.366	25.007	979.400	783.071
127.381	25.701	979.625	786.216
128.395	26.283	978.429	787.726
129.410	26.103	977.963	786.494
130.424	26.472	976.289	786.684
131.439	26.442	975.565	785.902
132.454	26.328	974.874	784.781
133.468	26.073	974.116	782.996
134.483	26.275	973.586	783.375
135.497	26.188	973.008	782.463
136.512	26.742	971.215	783.347
137.527	26.430	970.304	781.196
138.541	26.184	971.044	780.660
139.556	26.429	969.743	780.604
140.570	26.546	967.799	779.474
141.585	26.465	968.111	779.307
142.600	26.555	966.607	778.414
143.614	26.789	965.821	778.715
144.629	26.938	965.193	778.779
145.643	26.430	964.434	775.920
146.658	26.587	962.046	774.600
147.673	26.487	961.700	773.826
148.687	26.305	961.346	772.696
149.702	26.377	959.054	771.093
150.716	26.296	959.266	770.850
151.731	26.541	958.717	771.384
152.746	26.680	957.711	771.098
153.760	26.348	958.730	770.438
154.775	26.727	957.067	770.641
155.789	26.561	956.863	769.703
156.804	26.450	955.608	768.157
157.819	26.756	954.045	768.129
158.833	26.823	954.143	768.424
159.848	26.645	952.973	766.659
160.862	26.511	951.796	765.080
161.877	26.136	950.956	762.753
162.892	26.695	949.742	764.068
163.906	26.512	949.195	762.792
164.921	26.578	947.271	761.452
165.935	27.094	945.629	762.232
166.950	26.781	945.803	760.990
167.964	26.489	944.648	758.771
168.979	26.400	943.857	757.696
169.994	26.310	943.580	757.029
171.008	26.824	941.864	757.734
172.023	26.607	941.753	756.670
173.037	26.374	940.600	754.705
174.052	26.407	939.301	753.733
175.067	26.529	939.158	754.061
176.081	26.477	938.067	752.900
177.096	26.418	937.742	752.329
178.110	25.923	937.333	749.876
179.125	25.816	936.109	748.386
180.140	26.042	936.721	749.748
181.154	26.225	935.587	749.530
182.169	26.678	935.897	751.593
183.183	26.980	934.596	751.735
184.198	26.493	934.171	749.308
185.213	26.483	934.281	749.290
186.227	26.338	932.619	747.291
187.242	26.710	932.665	748.798
188.256	26.754	932.025	748.403
189.271	26.637	931.644	747.546
190.286	26.649	929.759	746.017
191.300	25.986	927.551	741.454
192.315	25.074	925.805	736.250
193.329	24.697	926.837	735.452
194.344	25.764	926.360	739.395
195.359	26.423	926.982	742.531
196.373	26.584	926.328	742.604
197.388	26.312	925.833	741.023
198.402	26.141	925.546	740.027
199.417	26.537	924.932	741.093
200.432	26.770	923.120	740.527
201.446	26.457	922.821	738.947
202.461	26.783	920.969	738.727
203.475	25.508	920.300	732.928
204.490	24.416	919.692	727.926
205.504	25.832	919.210	733.251
206.519	25.994	919.613	734.167
207.534	26.226	919.301	734.794
208.548	26.701	918.429	735.963
209.563	26.646	916.764	734.343
210.577	26.184	917.716	733.165
211.592	26.828	915.897	734.255
212.607	26.631	916.795	734.111
213.621	26.874	915.528	734.014
214.636	26.902	914.484	733.227
215.650	26.781	913.308	731.729
216.665	26.833	913.629	732.132
217.680	27.061	912.343	731.957
218.694	26.172	911.278	727.455
219.709	26.230	911.342	727.676
220.723	26.524	910.025	727.745
221.738	26.531	910.067	727.741
222.753	26.574	909.586	727.462
223.767	26.696	908.624	727.120
224.782	26.670	908.897	727.172
225.796	26.962	908.078	727.620
226.811	26.069	906.430	722.661
227.826	25.609	905.519	720.030
228.840	25.764	904.067	719.433
229.855	25.881	904.397	720.098
230.869	25.218	903.353	716.557
231.884	25.876	902.509	718.445
232.899	26.579	902.768	721.394
233.913	26.743	902.198	721.526
234.928	26.353	901.560	719.400
235.942	26.169	901.033	718.185
236.957	26.017	901.642	718.000
237.972	26.240	899.711	717.285
238.986	26.435	898.550	717.071
240.001	26.390	898.999	717.186
241.015	26.443	898.412	716.864
242.030	26.265	898.275	715.984
243.045	26.462	898.600	716.960
244.059	26.463	897.586	716.096
245.074	26.579	895.369	714.718
246.088	26.370	894.497	713.136
247.103	26.428	895.105	713.786
248.117	27.234	894.270	716.233
249.132	27.158	894.257	715.862
250.147	27.195	894.974	716.516
251.161	27.421	895.001	717.365
252.176	27.241	893.657	715.517
253.190	27.902	892.718	717.301
254.205	27.647	893.032	716.485
255.220	27.970	890.847	715.935
256.234	27.598	889.719	713.509
257.249	27.623	890.120	713.866
258.263	27.465	889.521	712.704
259.278	27.570	888.776	712.454
260.293	27.316	887.670	710.514
261.307	27.613	886.433	710.619
262.322	27.322	886.091	709.146
263.336	26.576	884.143	704.624
264.351	25.515	883.212	699.694
265.366	25.656	883.036	700.041
266.380	26.506	882.711	703.023
267.395	27.064	883.607	705.844
268.409	26.858	882.840	704.368
269.424	27.274	882.113	705.338
270.439	27.142	881.076	703.938
271.453	27.306	880.551	704.089
272.468	27.249	880.704	703.930
273.482	27.436	879.844	703.904
274.497	27.031	879.679	702.145
275.512	26.883	877.942	700.124
276.526	27.217	878.018	701.411
277.541	27.566	878.032	702.706
278.555	27.165	877.430	700.616
279.570	27.256	876.326	700.025
280.585	27.192	875.980	699.439
281.599	27.160	874.871	698.370
282.614	26.456	872.775	693.935
283.628	26.416	873.064	693.948
284.643	26.945	873.393	696.180
285.657	26.570	871.904	693.495
286.672	26.450	871.150	692.374
287.687	26.926	871.318	694.269
288.701	26.868	870.379	693.237
289.716	26.596	870.658	692.358
290.730	26.542	869.093	690.844
291.745	26.209	867.985	688.635
292.760	26.791	867.720	690.579
293.774	27.400	868.774	693.680
294.789	27.557	867.859	693.483
295.803	27.618	866.952	692.933
296.818	27.732	866.514	692.953
297.833	27.389	865.109	690.465
298.847	27.073	865.159	689.248
299.862	27.650	863.700	690.210
300.876	27.853	864.189	691.308
301.891	27.956	862.967	690.658
302.906	27.384	863.300	688.700
303.920	27.528	862.580	688.610
304.935	27.554	862.578	688.644
305.949	27.530	861.842	687.906
306.964	27.363	860.726	686.325
307.979	27.819	860.112	687.489
308.993	27.734	860.702	687.580
310.008	28.046	858.931	687.277
311.022	27.626	858.261	685.103
312.037	27.792	858.120	685.556
313.052	26.978	857.426	681.885
314.066	26.199	856.540	678.193
315.081	26.300	854.796	677.131
316.095	27.012	855.309	680.147
317.110	27.466	855.597	682.016
318.125	26.506	854.073	677.150
319.139	25.843	852.015	672.982
320.154	25.526	851.744	671.525
321.168	26.565	852.421	675.883
322.183	27.169	852.240	677.933
323.197	27.206	851.864	677.709
324.212	27.434	852.212	678.776
325.227	27.416	851.874	678.380
326.241	27.551	850.100	677.409
327.256	27.326	849.753	676.235
328.270	26.959	849.448	674.572
329.285	26.915	848.379	673.498
330.300	26.490	847.770	671.378
331.314	27.208	846.472	672.952
332.329	27.351	847.608	674.324
333.343	27.636	846.344	674.316
334.358	27.707	845.530	673.866
335.373	27.769	846.710	674.978
336.387	27.800	846.135	674.573
337.402	27.884	845.692	674.473
338.416	27.868	845.893	674.514
339.431	28.228	845.465	675.441
340.446	28.117	845.128	674.704
341.460	27.814	844.942	673.378
342.475	27.946	843.670	672.789
343.489	28.159	843.399	673.300
344.504	28.072	842.598	672.278
345.519	28.509	842.074	673.407
346.533	28.357	842.073	672.787
347.548	28.530	841.964	673.278
348.562	28.131	841.457	671.349
349.577	28.334	841.031	671.693
350.592	28.330	839.898	670.715
351.606	28.248	838.548	669.276
352.621	28.231	838.655	669.239
353.635	28.261	837.225	668.149
354.650	27.465	835.994	664.205
355.665	26.244	835.201	659.066
356.679	27.200	834.159	661.666
357.694	27.417	834.483	662.656
358.708	27.017	834.508	661.162
359.723	27.886	833.579	663.526
360.738	27.684	833.364	662.561
361.752	27.893	832.469	662.550
362.767	28.273	832.008	663.502
363.781	28.522	832.584	664.804
364.796	28.808	832.195	665.470
365.810	28.766	831.636	664.811
366.825	28.518	830.815	663.200
367.840	28.576	830.070	662.757
368.854	28.205	829.071	660.562
369.869	27.845	828.616	658.841
370.883	28.135	828.893	660.051
371.898	28.177	827.998	659.431
372.913	28.469	826.527	659.251
373.927	28.625	826.578	659.797
374.942	28.305	826.649	658.642
375.956	28.174	826.795	658.230
376.971	28.626	825.658	658.889
377.986	28.814	825.477	659.361
379.000	28.614	825.021	658.221
380.015	28.713	824.505	658.107
381.029	28.820	823.860	657.916
382.044	28.840	823.648	657.761
383.059	28.907	822.804	657.266
384.073	28.883	822.546	656.917
385.088	28.920	820.614	655.449
386.102	28.217	821.144	653.304
387.117	28.173	820.123	652.279
388.132	27.996	819.629	651.195
389.146	27.570	818.434	648.675
390.161	27.801	818.380	649.397
391.175	28.404	818.094	651.255
392.190	28.114	817.164	649.429
393.205	27.122	814.539	643.773
394.219	25.389	812.707	636.136
395.234	24.782	813.552	634.587
396.248	26.946	814.718	643.117
397.263	28.539	814.305	648.372
398.278	28.177	814.586	647.258
399.292	28.122	813.577	646.205
400.307	28.040	813.380	645.700
401.321	28.034	813.664	645.849
402.336	28.776	813.188	648.031
403.350	29.023	812.919	648.631
404.365	29.247	812.825	649.288
405.380	29.420	812.605	649.663
406.394	29.490	811.798	649.209
407.409	29.174	812.115	648.292
408.423	29.109	811.854	647.798
409.438	29.620	810.938	648.806
410.453	29.402	810.673	647.771
411.467	29.373	809.639	646.785
412.482	29.494	809.080	646.703
413.496	29.618	809.676	647.558
414.511	29.692	809.427	647.561
415.526	29.505	808.342	645.982
416.540	29.648	807.609	645.838
417.555	29.076	806.903	643.217
418.569	29.194	806.811	643.499
419.584	29.067	805.938	642.303
420.599	29.233	805.009	642.084
421.613	159.913	1369.617	1792.308
422.628	138.995	1451.843	1792.409
