DTS Sentinel unit serial number:	SN413079Multiplexer serial number:	ORYXHardware model number:	OX4-SRSoftware version number:	ORYX F/W v4.00 Oryx Data Collector v3.7.2.0data status	okinstallation	princeton_trtdifferential loss correction	single-endedforward channel	channel 1reverse channel	N/Adate	2019/09/18time	12:10:35forward acquisition time	60.00reverse acquisition time	0.00gamma	496.2192k internal	0.2323k external	0.2323temperature offset calibration	0.9982default loss term (dB/km)	0.3790temperature slope calibration	1.0000multiplexer offset coefficient	1.0000multiplexer slope coefficient	1.0000fibre end	0.00T internal ref (°C)	31.67T ext. ref 1 (°C)	0.50T ext. ref 2 (°C)	27.16length (m)	temperature (°C)	Stokes	anti-Stokes-747.200	153.825	0.148	0.205
-746.185	300.314	-0.084	0.157
-745.171	-200.000	-0.011	0.492
-744.156	-99.597	0.245	0.062
-743.142	-89.222	0.190	0.057
-742.127	-74.509	-0.314	-0.114
-741.112	-200.000	-0.044	0.347
-740.098	6.947	-0.059	-0.045
-739.083	77.986	-0.081	-0.087
-738.069	12.358	-0.218	-0.169
-737.054	-65.591	0.050	-0.020
-736.039	58.968	0.129	0.128
-735.025	-115.785	0.084	-0.016
-734.010	-121.260	0.490	-0.083
-732.996	-200.000	-0.292	-0.001
-731.981	-113.583	-0.206	0.041
-730.966	-176.633	-0.399	-0.010
-729.952	800.000	0.024	0.098
-728.937	800.000	-0.056	-0.199
-727.923	-103.291	-0.263	0.063
-726.908	-13.160	0.118	0.077
-725.894	71.242	0.221	0.232
-724.879	-112.392	0.125	-0.025
-723.864	-105.540	-0.245	0.056
-722.850	-200.000	0.033	-0.165
-721.835	-200.000	-0.231	-0.001
-720.821	-200.000	-0.063	-0.287
-719.806	-147.687	0.190	0.016
-718.791	-200.000	-0.028	0.138
-717.777	337.209	-0.265	0.519
-716.762	-200.000	0.029	0.189
-715.748	-142.161	0.205	-0.020
-714.733	137.179	-0.221	0.292
-713.718	335.881	-0.089	0.174
-712.704	348.249	-0.138	-0.274
-711.689	-98.454	0.134	0.034
-710.675	215.595	-0.214	0.343
-709.660	-200.000	0.028	-0.423
-708.645	-62.914	0.145	-0.060
-707.631	-51.808	0.275	-0.129
-706.616	-68.446	-0.020	0.008
-705.602	222.108	-0.166	-0.269
-704.587	-132.493	0.262	-0.034
-703.572	-200.000	-0.008	-0.142
-702.558	-76.647	-0.234	0.083
-701.543	800.000	0.037	0.103
-700.529	57.883	0.032	-0.031
-699.514	385.840	0.025	0.053
-698.499	-200.000	-0.020	0.211
-697.485	-200.000	-0.006	-0.342
-696.470	285.763	-0.071	-0.129
-695.456	800.000	-0.096	0.307
-694.441	212.188	0.153	0.243
-693.426	-90.268	0.242	-0.071
-692.412	-90.851	-0.161	0.047
-691.397	122.471	0.058	0.073
-690.383	800.000	-0.016	-0.070
-689.368	-46.382	0.112	-0.055
-688.354	15.326	0.241	-0.191
-687.339	-197.630	0.118	-0.001
-686.324	800.000	0.028	0.101
-685.310	17.614	0.132	-0.106
-684.295	513.426	-0.219	-0.514
-683.281	-59.745	-0.146	0.063
-682.266	-194.804	-0.466	0.004
-681.251	91.652	-0.103	-0.117
-680.237	2.037	0.288	-0.209
-679.222	1.332	0.163	-0.118
-678.208	44.729	-0.256	-0.237
-677.193	746.651	0.118	-0.320
-676.178	-71.704	0.228	-0.086
-675.164	-64.700	0.180	0.073
-674.149	-15.669	-0.171	0.110
-673.135	-200.000	0.060	-0.296
-672.120	62.018	0.079	-0.080
-671.105	-132.656	0.288	-0.037
-670.091	121.643	0.070	-0.088
-669.076	-166.111	-0.233	0.010
-668.062	615.976	0.029	-0.072
-667.047	-148.109	0.125	-0.010
-666.032	-200.000	-0.100	-0.463
-665.018	-200.000	-0.015	-0.155
-664.003	644.079	-0.064	0.165
-662.989	-187.706	0.236	0.003
-661.974	350.259	0.046	-0.091
-660.959	-117.458	0.156	-0.028
-659.945	552.904	-0.096	-0.231
-658.930	-135.566	0.262	0.031
-657.916	-105.142	0.144	-0.033
-656.901	-87.890	0.278	0.084
-655.886	139.448	0.270	0.358
-654.872	61.567	0.078	-0.078
-653.857	-200.000	0.058	-0.266
-652.843	685.060	-0.051	0.135
-651.828	-16.348	-0.626	0.400
-650.814	111.158	0.213	0.258
-649.799	-200.000	-0.010	-0.083
-648.784	-76.970	-0.220	0.077
-647.770	-200.000	0.043	-0.196
-646.755	-68.386	-0.212	-0.083
-645.741	-200.000	0.003	-0.075
-644.726	-200.000	0.005	-0.099
-643.711	72.533	0.049	0.052
-642.697	27.025	-0.017	0.014
-641.682	800.000	0.013	0.040
-640.668	-87.244	0.072	-0.022
-639.653	435.738	-0.033	-0.072
-638.638	-113.198	-0.194	0.038
-637.624	420.541	0.095	-0.204
-636.609	90.341	0.134	0.151
-635.595	-8.233	0.274	-0.186
-634.580	187.346	0.164	-0.245
-633.565	23.502	-0.136	-0.113
-632.551	-200.000	-0.008	-0.057
-631.536	-19.940	-0.122	0.076
-630.522	-76.508	0.119	0.042
-629.507	-91.209	0.173	-0.050
-628.492	-118.926	0.147	-0.026
-627.478	-200.000	0.002	-0.301
-626.463	-80.012	-0.199	0.067
-625.449	-98.477	0.397	-0.102
-624.434	-133.481	-0.140	0.018
-623.419	-11.866	0.137	-0.091
-622.405	-13.040	0.107	0.070
-621.390	-94.478	0.091	0.025
-620.376	-77.156	-0.387	-0.135
-619.361	-200.000	-0.031	0.164
-618.346	-200.000	0.004	-0.052
-617.332	-200.000	0.036	0.361
-616.317	-14.074	0.351	0.228
-615.303	-200.000	0.044	0.225
-614.288	22.027	0.099	-0.081
-613.273	34.575	-0.492	-0.432
-612.259	20.615	0.177	-0.144
-611.244	1.880	-0.347	0.251
-610.230	153.844	0.126	0.174
-609.215	800.000	0.073	0.205
-608.201	30.508	0.156	-0.134
-607.186	-200.000	-0.019	0.135
-606.171	-20.244	-0.179	-0.111
-605.157	587.053	-0.104	0.257
-604.142	-118.977	-0.442	0.078
-603.128	-91.423	-0.188	-0.054
-602.113	25.636	-0.305	-0.255
-601.098	-200.000	0.023	0.241
-600.084	-112.203	-0.122	-0.025
-599.069	-158.324	0.263	0.015
-598.055	-200.000	0.037	-0.375
-597.040	-43.534	-0.012	-0.006
-596.025	800.000	0.071	0.218
-595.011	67.078	-0.170	0.174
-593.996	-45.304	-0.190	-0.095
-592.982	55.736	-0.388	0.377
-591.967	90.243	-0.260	-0.292
-590.952	386.511	-0.071	-0.146
-589.938	18.914	0.233	0.188
-588.923	-9.240	0.217	0.146
-587.909	-200.000	-0.012	0.055
-586.894	232.269	-0.095	0.157
-585.879	-145.699	-0.146	-0.013
-584.865	388.689	-0.161	-0.336
-583.850	-81.539	0.028	0.009
-582.836	98.925	0.240	0.278
-581.821	10.830	0.039	0.030
-580.806	-200.000	-0.013	0.355
-579.792	-167.405	-0.077	-0.003
-578.777	139.248	-0.104	-0.138
-577.763	148.380	0.062	-0.084
-576.748	-85.940	0.073	0.023
-575.733	-113.613	-0.249	0.049
-574.719	308.697	0.122	0.229
-573.704	-137.184	-0.197	-0.023
-572.690	216.029	-0.078	0.124
-571.675	-130.970	-0.294	-0.039
-570.661	-39.316	0.105	-0.055
-569.646	178.928	0.188	-0.276
-568.631	46.549	0.122	0.113
-567.617	151.796	-0.105	0.143
-566.602	-200.000	0.017	0.156
-565.588	198.425	-0.145	-0.222
-564.573	800.000	0.071	-0.264
-563.558	-200.000	0.001	0.519
-562.544	54.950	0.253	0.245
-561.529	800.000	-0.049	-0.144
-560.515	800.000	-0.134	-0.390
-559.500	-86.712	-0.257	-0.079
-558.485	448.387	-0.080	-0.176
-557.471	31.980	0.134	0.116
-556.456	-200.000	0.000	-0.113
-555.442	761.889	-0.119	-0.323
-554.427	358.477	0.126	0.253
-553.412	-200.000	0.033	0.173
-552.398	86.892	0.067	-0.074
-551.383	95.934	-0.209	-0.239
-550.369	-124.121	-0.167	0.026
-549.354	174.211	0.087	0.126
-548.339	-200.000	0.062	0.328
-547.325	800.000	0.067	0.219
-546.310	-133.050	-0.578	-0.073
-545.296	112.393	-0.375	-0.455
-544.281	-88.673	-0.266	0.079
-543.266	-76.485	0.156	-0.055
-542.252	-200.000	-0.007	0.049
-541.237	-200.000	0.016	-0.242
-540.223	217.608	0.066	0.105
-539.208	413.509	-0.095	-0.203
-538.193	-200.000	-0.053	-0.323
-537.179	-60.175	-0.199	-0.085
-536.164	263.811	-0.058	0.101
-535.150	-189.101	-0.321	-0.004
-534.135	93.222	0.109	-0.123
-533.121	-200.000	0.001	-0.143
-532.106	-13.528	0.110	-0.072
-531.091	-200.000	0.014	0.248
-530.077	-68.672	0.130	-0.051
-529.062	204.728	-0.177	-0.276
-528.048	-109.954	-0.223	-0.047
-527.033	-54.147	-0.125	-0.057
-526.018	-24.808	0.271	0.161
-525.004	800.000	0.052	0.210
-523.989	800.000	0.080	-0.231
-522.975	-200.000	0.019	-0.269
-521.960	800.000	-0.013	0.039
-520.945	-158.852	0.279	0.016
-519.931	207.596	-0.115	0.179
-518.916	75.948	0.191	-0.203
-517.902	208.035	-0.098	-0.153
-516.887	-135.222	-0.165	0.020
-515.872	-37.840	-0.141	0.075
-514.858	286.656	-0.057	0.103
-513.843	800.000	0.042	0.146
-512.829	-128.995	-0.544	0.076
-511.814	144.039	0.282	-0.377
-510.799	631.952	-0.074	-0.188
-509.785	113.006	0.018	-0.021
-508.770	-68.869	0.220	0.085
-507.756	-98.657	0.284	0.073
-506.741	-33.384	0.260	0.144
-505.726	-77.048	-0.197	0.069
-504.712	-122.779	0.103	0.017
-503.697	-200.000	-0.003	-0.069
-502.683	62.834	0.105	-0.105
-501.668	-60.086	0.156	-0.067
-500.653	-200.000	-0.004	-0.227
-499.639	-200.000	-0.030	0.167
-498.624	15.945	0.286	0.225
-497.610	319.271	0.150	-0.284
-496.595	-200.000	-0.022	-0.339
-495.581	-52.744	0.198	0.091
-494.566	-200.000	0.035	0.218
-493.551	-38.566	0.169	0.089
-492.537	-152.189	0.108	-0.008
-491.522	-25.218	-0.043	-0.025
-490.508	-200.000	-0.031	0.265
-489.493	-200.000	-0.003	0.347
-488.478	-89.521	-0.102	0.030
-487.464	-191.287	0.183	0.002
-486.449	800.000	0.091	0.299
-485.435	800.000	0.025	-0.069
-484.420	-31.446	-0.240	-0.135
-483.405	52.989	-0.213	0.204
-482.391	47.371	0.083	-0.077
-481.376	-88.985	0.349	0.103
-480.362	113.361	-0.241	0.293
-479.347	379.852	0.058	-0.119
-478.332	-165.790	0.162	-0.007
-477.318	158.940	0.082	-0.114
-476.303	508.892	-0.148	0.343
-475.289	-77.584	-0.259	0.090
-474.274	-93.235	-0.069	0.019
-473.259	191.227	-0.168	-0.253
-472.245	-95.377	0.169	-0.045
-471.230	-45.573	0.204	-0.101
-470.216	800.000	-0.072	0.223
-469.201	-200.000	0.043	0.245
-468.186	800.000	-0.069	0.219
-467.172	-200.000	-0.038	-0.452
-466.157	-200.000	-0.028	-0.271
-465.143	-168.883	0.260	0.010
-464.128	-200.000	-0.011	0.062
-463.113	12.479	0.149	0.114
-462.099	-200.000	0.002	0.153
-461.084	-55.616	-0.094	-0.042
-460.070	-200.000	-0.022	-0.120
-459.055	-200.000	0.065	-0.284
-458.040	-200.000	0.039	0.203
-457.026	195.262	-0.050	-0.076
-456.011	388.314	0.019	-0.040
-454.997	-166.886	-0.092	-0.004
-453.982	800.000	0.018	0.076
-452.968	136.684	-0.172	0.224
-451.953	-131.032	-0.248	0.033
-450.938	271.981	0.076	0.133
-449.924	36.540	0.029	0.025
-448.909	248.328	-0.071	-0.120
-447.895	800.000	-0.022	0.087
-446.880	166.948	-0.039	-0.055
-445.865	-200.000	-0.000	-0.017
-444.851	-200.000	0.001	-0.173
-443.836	-200.000	0.018	-0.285
-442.822	-126.785	0.200	0.030
-441.807	-200.000	-0.008	0.158
-440.792	41.938	0.243	0.220
-439.778	595.851	-0.038	0.095
-438.763	-200.000	0.047	-0.460
-437.749	-200.000	0.003	0.150
-436.734	37.497	-0.303	0.268
-435.719	-36.577	0.240	-0.129
-434.705	-110.178	0.204	-0.042
-433.690	71.626	0.218	0.226
-432.676	-149.392	-0.357	0.028
-431.661	-76.168	0.307	0.108
-430.646	-56.868	-0.241	0.106
-429.632	34.229	0.179	-0.155
-428.617	-35.497	-0.242	-0.131
-427.603	-101.127	-0.107	0.026
-426.588	131.014	0.122	0.156
-425.573	-0.628	-0.224	0.159
-424.559	63.480	0.061	0.061
-423.544	800.000	0.083	-0.287
-422.530	294.819	-0.101	0.185
-421.515	800.000	0.085	-0.338
-420.500	495.213	-0.136	0.312
-419.486	99.045	0.058	-0.067
-418.471	-92.716	-0.015	-0.004
-417.457	34.558	0.291	-0.253
-416.442	74.977	-0.185	-0.194
-415.428	-42.839	-0.168	-0.085
-414.413	696.495	0.035	-0.091
-413.398	-132.195	0.262	-0.034
-412.384	-18.047	-0.270	-0.168
-411.369	68.654	-0.118	0.121
-410.355	-25.374	-0.189	-0.112
-409.340	-98.146	-0.121	-0.031
-408.325	82.373	0.339	0.367
-407.311	82.765	0.032	-0.034
-406.296	150.935	0.182	-0.247
-405.282	-100.947	0.276	0.067
-404.267	360.603	0.113	-0.225
-403.252	498.983	-0.122	-0.280
-402.238	107.973	-0.050	0.060
-401.223	403.709	-0.192	0.403
-400.209	171.349	-0.175	-0.251
-399.194	699.804	-0.060	-0.157
-398.179	-26.511	-0.161	0.094
-397.165	94.884	0.282	0.320
-396.150	583.610	0.207	0.506
-395.136	100.540	0.156	0.181
-394.121	-200.000	-0.012	0.056
-393.106	515.401	-0.079	0.185
-392.092	-93.054	-0.093	-0.026
-391.077	-200.000	-0.007	-0.335
-390.063	773.208	-0.164	-0.446
-389.048	-79.628	0.565	-0.190
-388.033	-38.905	0.119	-0.062
-387.019	222.050	0.057	0.092
-386.004	136.378	-0.172	0.223
-384.990	120.599	-0.163	-0.202
-383.975	-112.414	0.343	-0.068
-382.960	-11.823	-0.254	-0.166
-381.946	139.803	-0.128	-0.168
-380.931	25.572	0.358	-0.297
-379.917	83.923	0.326	0.355
-378.902	244.184	0.066	-0.111
-377.888	3.198	0.133	-0.096
-376.873	102.504	-0.224	0.261
-375.858	93.776	0.082	-0.093
-374.844	241.269	-0.157	0.262
-373.829	799.365	-0.080	-0.220
-372.815	-50.839	-0.376	0.176
-371.800	268.955	-0.022	0.038
-370.785	-83.709	-0.238	-0.076
-369.771	-200.000	0.015	-0.274
-368.756	245.953	0.037	0.063
-367.742	-41.693	0.160	0.082
-366.727	-200.000	0.037	-0.250
-365.712	-15.320	0.157	-0.100
-364.698	-134.712	0.387	-0.047
-363.683	-44.414	-0.037	-0.018
-362.669	3.105	-0.360	0.260
-361.654	-50.049	-0.308	-0.145
-360.639	-46.941	0.129	0.063
-359.625	306.233	0.066	-0.122
-358.610	-200.000	0.075	-0.460
-357.596	-66.190	0.200	-0.079
-356.581	41.287	-0.128	0.115
-355.566	-200.000	-0.015	-0.218
-354.552	800.000	-0.049	0.141
-353.537	-15.249	-0.265	0.169
-352.523	261.124	-0.040	-0.069
-351.508	181.255	-0.066	-0.097
-350.493	-200.000	0.025	0.307
-349.479	-91.768	0.444	-0.125
-348.464	703.528	-0.070	-0.183
-347.450	41.806	0.274	-0.247
-346.435	-20.951	-0.357	0.217
-345.420	-146.844	-0.089	0.008
-344.406	96.569	0.156	0.177
-343.391	222.092	0.140	-0.224
-342.377	48.378	0.247	0.230
-341.362	-94.128	-0.115	0.031
-340.348	800.000	0.050	0.185
-339.333	-42.386	-0.052	-0.026
-338.318	800.000	0.091	0.283
-337.304	-98.501	0.107	0.027
-336.289	800.000	0.103	0.319
-335.275	-109.447	0.434	0.091
-334.260	-62.341	0.186	-0.077
-333.245	76.823	-0.202	-0.213
-332.231	-200.000	-0.021	0.287
-331.216	-68.707	-0.026	-0.010
-330.202	-200.000	-0.016	0.178
-329.187	-200.000	0.040	0.325
-328.172	-109.062	0.382	-0.081
-327.158	-24.179	-0.072	-0.043
-326.143	59.019	0.053	0.052
-325.129	-12.962	0.489	0.316
-324.114	-200.000	-0.001	0.257
-323.099	266.363	0.254	0.441
-322.085	38.684	-0.386	-0.343
-321.070	562.014	-0.038	-0.090
-320.056	-70.022	0.139	-0.053
-319.041	-200.000	-0.029	-0.151
-318.026	-83.221	0.059	0.019
-317.012	-44.175	0.141	0.070
-315.997	-200.000	-0.027	-0.125
-314.983	-23.739	0.218	-0.130
-313.968	-26.447	-0.305	0.178
-312.953	800.000	0.113	0.349
-311.939	-22.025	0.230	0.139
-310.924	-62.349	0.398	-0.165
-309.910	-200.000	0.091	0.426
-308.895	800.000	-0.075	-0.298
-307.880	-163.176	0.153	0.007
-306.866	41.750	0.043	0.038
-305.851	549.622	0.057	0.137
-304.837	-44.437	0.105	-0.052
-303.822	365.797	-0.064	0.127
-302.807	128.420	0.114	-0.144
-301.793	207.593	0.099	0.153
-300.778	-14.044	-0.186	-0.119
-299.764	-27.988	-0.388	-0.223
-298.749	442.652	0.225	-0.489
-297.735	29.330	-0.106	0.089
-296.720	55.482	0.139	0.133
-295.705	30.064	0.105	-0.089
-294.691	800.000	0.043	0.154
-293.676	-167.964	0.306	-0.012
-292.662	800.000	0.020	0.073
-291.647	-200.000	-0.043	-0.227
-290.632	-200.000	0.019	0.309
-289.618	-200.000	0.007	0.035
-288.603	72.185	0.153	-0.158
-287.589	800.000	-0.057	0.182
-286.574	364.951	-0.175	0.350
-285.559	-200.000	-0.002	-0.067
-284.545	133.741	0.047	0.061
-283.530	31.808	-0.274	-0.234
-282.516	-154.119	-0.255	0.017
-281.501	282.807	-0.251	-0.446
-280.486	-200.000	-0.006	0.379
-279.472	497.038	-0.060	0.138
-278.457	-200.000	-0.000	-0.136
-277.443	-54.533	-0.177	0.080
-276.428	303.452	-0.146	-0.268
-275.413	800.000	0.080	-0.336
-274.399	139.184	-0.181	0.236
-273.384	70.393	0.203	0.208
-272.370	70.461	-0.146	-0.149
-271.355	-67.951	0.153	-0.059
-270.340	800.000	-0.110	-0.386
-269.326	-39.025	-0.104	0.054
-268.311	75.833	-0.135	0.142
-267.297	-89.494	-0.422	-0.123
-266.282	-161.050	-0.264	-0.014
-265.267	-200.000	-0.001	-0.066
-264.253	34.416	-0.393	0.340
-263.238	-105.604	0.234	-0.053
-262.224	-99.157	-0.250	-0.063
-261.209	-115.897	0.256	-0.047
-260.195	-89.182	-0.152	-0.044
-259.180	-183.022	0.294	-0.005
-258.165	-200.000	0.027	-0.269
-257.151	649.254	0.093	0.236
-256.136	-7.851	-0.200	0.134
-255.122	267.809	-0.066	0.114
-254.107	-16.148	0.172	0.109
-253.092	-173.202	0.138	0.004
-252.078	800.000	0.025	-0.088
-251.063	-101.632	-0.186	0.045
-250.049	509.155	0.019	0.043
-249.034	-116.637	0.560	0.102
-248.019	-89.519	0.292	0.085
-247.005	-47.204	0.079	-0.038
-245.990	-132.865	0.163	-0.021
-244.976	-42.457	0.059	0.030
-243.961	-200.000	0.032	0.328
-242.946	-200.000	0.053	-0.237
-241.932	16.405	-0.389	0.304
-240.917	-200.000	-0.018	0.512
-239.903	44.593	0.046	0.042
-238.888	11.442	-0.108	0.082
-237.873	-104.227	-0.108	-0.025
-236.859	67.612	0.218	-0.220
-235.844	152.861	-0.124	0.168
-234.830	167.754	-0.051	0.072
-233.815	-139.474	-0.529	-0.056
-232.800	252.425	-0.207	-0.350
-231.786	800.000	-0.026	-0.085
-230.771	-132.982	-0.233	-0.029
-229.757	-200.000	0.020	-0.088
-228.742	-64.774	0.076	-0.030
-227.727	800.000	0.033	0.094
-226.713	-158.175	-0.293	0.017
-225.698	-82.969	0.295	0.094
-224.684	-51.444	-0.335	-0.155
-223.669	420.305	-0.110	0.233
-222.655	-140.631	0.332	0.034
-221.640	-200.000	-0.017	0.106
-220.625	716.440	0.086	-0.226
-219.611	-172.904	-0.191	-0.006
-218.596	15.929	-0.206	0.160
-217.582	-154.299	-0.208	-0.014
-216.567	-47.309	0.135	-0.065
-215.552	84.638	-0.114	-0.123
-214.538	-18.815	0.168	-0.104
-213.523	-84.941	0.108	-0.033
-212.509	340.020	0.064	-0.124
-211.494	-129.192	0.225	0.031
-210.479	69.007	-0.047	0.048
-209.465	104.132	-0.125	0.146
-208.450	204.662	0.078	0.119
-207.436	-200.000	0.008	-0.268
-206.421	800.000	-0.120	0.413
-205.406	-200.000	-0.012	-0.205
-204.392	-200.000	-0.050	0.262
-203.377	109.998	-0.178	0.211
-202.363	-68.244	-0.240	-0.092
-201.348	-182.006	0.107	-0.002
-200.333	-200.000	-0.018	0.456
-199.319	66.956	-0.246	0.248
-198.304	-200.000	0.031	-0.179
-197.290	88.616	-0.048	-0.052
-196.275	-200.000	0.029	0.168
-195.260	800.000	0.087	0.281
-194.246	-132.779	0.138	0.017
-193.231	800.000	0.048	-0.145
-192.217	-43.067	0.132	0.066
-191.202	-86.901	0.207	0.062
-190.187	188.035	-0.079	-0.116
-189.173	-60.363	-0.191	-0.080
-188.158	605.144	0.096	-0.236
-187.144	187.097	-0.182	-0.268
-186.129	622.075	0.083	-0.207
-185.114	-13.766	-0.146	0.093
-184.100	-200.000	0.034	0.284
-183.085	-73.633	-0.167	0.060
-182.071	1.084	0.187	-0.133
-181.056	334.450	0.159	-0.304
-180.042	408.911	0.047	-0.097
-179.027	67.783	-0.055	-0.055
-178.012	163.179	0.148	0.205
-176.998	-164.380	0.170	0.008
-175.983	-127.724	0.069	0.010
-174.969	84.625	-0.087	-0.094
-173.954	-200.000	0.056	-0.307
-172.939	205.732	0.051	-0.078
-171.925	83.314	-0.371	-0.399
-170.910	-83.101	0.103	-0.033
-169.896	-51.840	0.145	0.067
-168.881	-200.000	0.010	-0.093
-167.866	-155.068	0.408	-0.026
-166.852	392.925	-0.148	0.305
-165.837	140.367	0.141	-0.184
-164.823	-8.059	-0.218	0.145
-163.808	17.996	-0.011	-0.009
-162.793	243.054	0.052	-0.085
-161.779	-149.991	-0.272	-0.021
-160.764	-141.445	0.304	-0.030
-159.750	236.972	0.133	0.218
-158.735	471.483	-0.007	0.016
-157.720	265.514	0.045	-0.078
-156.706	-14.493	0.045	0.029
-155.691	143.671	-0.247	-0.324
-154.677	88.881	-0.155	-0.170
-153.662	-172.379	0.350	0.011
-152.647	-200.000	-0.028	-0.399
-151.633	-86.487	0.248	0.075
-150.618	-53.405	-0.204	0.092
-149.604	17.377	0.218	-0.171
-148.589	-112.988	0.429	0.084
-147.574	168.886	-0.036	-0.050
-146.560	101.550	-0.107	-0.123
-145.545	109.661	0.131	-0.155
-144.531	-102.457	-0.264	-0.062
-143.516	-119.631	0.097	0.017
-142.502	-200.000	0.019	-0.159
-141.487	-200.000	-0.012	0.163
-140.472	-37.408	-0.086	-0.046
-139.458	108.463	0.117	0.138
-138.443	800.000	0.051	-0.168
-137.429	-138.257	-0.153	0.017
-136.414	29.356	-0.172	0.144
-135.399	800.000	-0.064	0.179
-134.385	-200.000	0.017	0.108
-133.370	45.032	0.221	0.201
-132.356	-200.000	-0.028	-0.409
-131.341	6.520	-0.217	0.159
-130.326	-89.155	0.350	-0.102
-129.312	-55.552	0.229	0.101
-128.297	-134.724	-0.087	0.010
-127.283	21.140	0.258	-0.206
-126.268	-200.000	0.094	0.426
-125.253	800.000	-0.038	0.119
-124.239	-133.220	0.241	-0.030
-123.224	7.561	0.363	-0.268
-122.210	464.706	-0.156	-0.344
-121.195	90.433	-0.272	0.300
-120.180	30.718	-0.078	-0.066
-119.166	194.722	0.101	0.151
-118.151	20.303	0.267	0.213
-117.137	-200.000	0.030	0.182
-116.122	-200.000	-0.053	-0.263
-115.107	7.625	0.345	0.254
-114.093	-91.862	-0.085	-0.024
-113.078	-8.817	-0.107	-0.071
-112.064	726.151	-0.088	-0.231
-111.049	-77.814	-0.361	0.123
-110.034	-169.716	0.182	0.006
-109.020	-200.000	-0.004	0.057
-108.005	-9.552	0.298	0.196
-106.991	-200.000	0.031	0.463
-105.976	-152.038	0.335	0.024
-104.962	-58.087	-0.098	-0.042
-103.947	479.424	0.137	-0.306
-102.932	731.612	-0.127	-0.335
-101.918	800.000	0.067	0.191
-100.903	119.167	0.091	0.110
-99.889	143.656	-0.095	0.124
-98.874	138.289	0.070	0.090
-97.859	741.145	0.052	0.138
-96.845	394.687	-0.119	-0.245
-95.830	-141.317	0.234	-0.023
-94.816	-123.851	0.043	0.007
-93.801	-131.588	0.050	0.006
-92.786	-102.558	-0.107	0.025
-91.772	-154.384	0.253	-0.017
-90.757	-54.853	0.079	0.035
-89.743	-48.270	-0.209	-0.099
-88.728	222.001	0.248	-0.392
-87.713	70.607	-0.087	0.089
-86.699	-162.329	-0.052	0.003
-85.684	587.738	-0.031	0.075
-84.670	458.231	-0.184	0.403
-83.655	-127.347	0.064	0.009
-82.640	78.772	0.126	0.133
-81.626	800.000	0.064	0.241
-80.611	800.000	0.063	-0.190
-79.597	0.456	0.164	-0.115
-78.582	94.493	0.034	0.038
-77.567	-200.000	-0.023	-0.284
-76.553	-27.321	-0.238	0.136
-75.538	800.000	0.080	0.283
-74.524	-121.767	0.046	0.007
-73.509	318.645	-0.187	-0.348
-72.494	767.322	-0.070	-0.187
-71.480	18.812	0.220	0.173
-70.465	178.598	0.113	0.162
-69.451	674.329	0.067	0.172
-68.436	-124.431	0.587	0.090
-67.422	-167.312	-0.260	-0.010
-66.407	800.000	0.055	0.163
-65.392	-140.204	0.005	-0.001
-64.378	-31.368	-0.169	-0.094
-63.363	466.257	0.018	-0.040
-62.349	99.486	-0.203	0.231
-61.334	110.638	-0.894	-1.057
-60.319	186.684	0.491	0.719
-59.305	-200.000	-0.111	-0.496
-58.290	304.220	0.587	1.070
-57.276	800.000	0.599	1.678
-56.261	-200.000	94.719	568.157
-55.246	512.703	1405.305	3219.715
-54.232	154.215	2602.126	3510.134
-53.217	111.352	2189.139	2594.407
-52.203	43.979	1634.655	1472.655
-51.188	35.259	1366.995	1178.182
-50.173	32.097	1324.441	1122.590
-49.159	54.339	1371.172	1297.816
-48.144	56.010	1387.583	1323.441
-47.130	35.423	1347.534	1162.217
-46.115	31.927	1329.904	1126.019
-45.100	31.697	1324.777	1120.262
-44.086	31.598	1322.247	1117.488
-43.071	31.502	1320.626	1115.501
-42.057	31.457	1318.094	1113.049
-41.042	31.574	1316.042	1111.968
-40.027	31.509	1315.442	1111.027
-39.013	31.539	1313.251	1109.314
-37.998	31.562	1311.299	1107.755
-36.984	31.705	1309.000	1106.612
-35.969	31.655	1307.907	1105.351
-34.954	31.709	1305.758	1103.812
-33.940	31.738	1304.419	1102.803
-32.925	31.718	1303.051	1101.490
-31.911	31.828	1301.529	1100.803
-30.896	31.817	1300.348	1099.694
-29.881	31.830	1298.829	1098.446
-28.867	31.795	1297.282	1096.884
-27.852	31.781	1295.917	1095.606
-26.838	31.786	1294.490	1094.387
-25.823	31.846	1293.125	1093.539
-24.809	31.761	1291.968	1092.023
-23.794	31.749	1290.500	1090.666
-22.779	31.794	1288.898	1089.534
-21.765	31.742	1287.738	1088.205
-20.750	31.714	1286.499	1086.955
-19.736	31.687	1285.251	1085.700
-18.721	31.504	1284.626	1084.067
-17.706	31.623	1282.826	1083.195
-16.692	31.630	1281.851	1082.372
-15.677	31.491	1281.067	1080.863
-14.663	31.560	1279.261	1079.692
-13.648	31.527	1278.125	1078.499
-12.633	31.704	1276.746	1078.312
-11.619	31.758	1275.787	1077.773
-10.604	31.638	1275.590	1076.874
-9.590	31.583	1274.670	1075.738
-8.575	31.578	1273.718	1074.862
-7.560	31.529	1272.794	1073.760
-6.546	31.548	1271.793	1072.978
-5.531	31.639	1271.058	1072.837
-4.517	31.470	1270.206	1071.107
-3.502	31.603	1269.477	1071.213
-2.487	31.595	1268.333	1070.162
-1.473	31.593	1264.313	1066.713
-0.458	30.317	1249.251	1046.771
0.556	25.300	1230.877	1006.738
1.571	21.243	1236.242	988.130
2.586	19.936	1250.265	991.767
3.600	19.124	1238.299	977.579
4.615	14.073	1164.110	891.899
5.629	5.174	1086.790	787.843
6.644	0.726	1065.698	750.439
7.659	0.452	1063.223	747.270
8.673	0.375	1062.464	746.290
9.688	0.427	1060.971	745.434
10.702	0.642	1059.297	745.252
11.717	5.716	1065.590	774.743
12.731	13.845	1076.480	823.047
13.746	17.319	1079.537	842.558
14.761	17.077	1078.894	840.779
15.775	16.333	1077.396	835.859
16.790	15.237	1075.380	828.806
17.804	14.685	1073.714	824.721
18.819	14.310	1072.789	822.084
19.834	14.038	1071.811	819.919
20.848	13.807	1070.430	817.653
21.863	13.552	1069.946	815.957
22.877	13.283	1069.123	813.933
23.892	13.353	1068.044	813.382
24.907	13.283	1067.661	812.677
25.921	13.274	1067.391	812.356
26.936	13.392	1066.154	811.918
27.950	13.381	1065.327	811.163
28.965	13.390	1063.992	810.121
29.980	13.465	1062.838	809.534
30.994	13.479	1061.545	808.551
32.009	13.511	1060.656	807.957
33.023	13.499	1059.741	807.131
34.038	13.389	1058.818	805.821
35.053	13.427	1058.145	805.420
36.067	13.432	1057.202	804.657
37.082	13.464	1056.529	804.226
38.096	13.516	1055.080	803.308
39.111	13.571	1054.591	803.131
40.126	13.363	1053.625	801.314
41.140	13.276	1052.150	799.701
42.155	13.356	1051.235	799.321
43.169	13.312	1050.331	798.350
44.184	13.233	1049.122	796.983
45.199	13.297	1048.499	796.744
46.213	13.383	1047.030	795.972
47.228	13.389	1046.029	795.169
48.242	13.404	1044.779	794.224
49.257	13.415	1044.420	793.932
50.271	13.391	1043.142	792.774
51.286	13.366	1042.662	792.219
52.301	13.388	1041.385	791.286
53.315	13.381	1040.319	790.371
54.330	13.371	1039.386	789.543
55.344	13.480	1038.376	789.227
56.359	13.428	1037.605	788.324
57.374	13.406	1037.007	787.695
58.388	13.328	1035.869	786.391
59.403	13.354	1035.318	786.025
60.417	13.154	1034.571	784.441
61.432	13.248	1033.607	784.085
62.447	13.283	1032.597	783.414
63.461	13.290	1031.857	782.820
64.476	13.265	1031.134	782.083
65.490	13.343	1030.324	781.765
66.505	13.159	1029.694	780.351
67.520	13.270	1028.944	780.238
68.534	13.327	1028.405	780.030
69.549	13.258	1027.644	779.058
70.563	13.395	1026.600	778.840
71.578	13.180	1026.020	777.319
72.593	13.291	1025.362	777.274
73.607	13.215	1024.544	776.228
74.622	13.166	1024.124	775.611
75.636	13.192	1023.134	774.918
76.651	13.194	1022.337	774.253
77.666	13.138	1021.889	773.583
78.680	13.169	1021.432	773.315
79.695	13.229	1020.568	772.872
80.709	13.239	1020.084	772.481
81.724	13.454	1019.143	772.706
82.739	13.230	1018.790	771.324
83.753	13.372	1017.670	771.072
84.768	13.541	1016.455	770.867
85.782	13.494	1015.738	770.039
86.797	13.481	1014.731	769.147
87.812	13.423	1013.980	768.241
88.826	13.519	1012.881	767.785
89.841	13.327	1012.435	766.489
90.855	13.547	1011.229	766.525
91.870	13.432	1010.898	765.675
92.884	13.516	1009.925	765.259
93.899	13.448	1009.016	764.186
94.914	13.521	1007.906	763.619
95.928	13.641	1006.916	763.352
96.943	13.495	1006.621	762.387
97.957	13.475	1005.346	761.261
98.972	13.539	1004.313	760.709
99.987	13.605	1003.249	760.135
101.001	13.547	1002.121	758.950
102.016	13.551	1001.425	758.374
103.030	13.504	1001.179	757.904
104.045	13.549	999.908	757.080
105.060	13.453	999.199	756.040
106.074	13.355	998.279	754.828
107.089	13.294	997.452	753.861
108.103	13.371	996.655	753.542
109.118	13.410	995.122	752.494
110.133	13.537	994.341	752.412
111.147	13.390	993.218	750.828
112.162	13.337	993.262	750.556
113.176	13.475	991.987	750.151
114.191	13.502	991.363	749.733
115.206	13.395	990.748	748.720
116.220	13.299	990.227	747.823
117.235	13.515	988.873	747.714
118.249	13.531	988.234	747.235
119.264	13.444	987.346	746.106
120.279	13.423	986.749	745.494
121.293	13.432	985.818	744.765
122.308	13.487	984.720	744.117
123.322	13.343	984.102	742.936
124.337	13.358	983.279	742.316
125.352	13.409	981.692	741.282
126.366	13.559	980.611	741.068
127.381	13.412	979.654	739.623
128.395	13.373	978.982	738.878
129.410	13.476	978.250	738.720
130.424	13.544	977.093	738.084
131.439	13.552	976.314	737.464
132.454	13.572	975.661	736.998
133.468	13.512	975.021	736.181
134.483	13.605	973.615	735.466
135.497	13.627	972.533	734.681
136.512	13.599	972.247	734.278
137.527	13.486	971.506	733.153
138.541	13.648	970.643	733.152
139.556	13.599	969.841	732.267
140.570	13.589	969.216	731.684
141.585	13.593	968.460	731.067
142.600	13.750	967.011	730.600
143.614	13.772	966.205	730.024
144.629	13.701	965.873	729.396
145.643	13.664	965.132	728.609
146.658	13.708	963.787	727.723
147.673	13.601	963.011	726.601
148.687	13.533	962.454	725.820
149.702	13.572	961.542	725.238
150.716	13.612	960.230	724.359
151.731	13.575	959.871	723.863
152.746	13.518	959.188	723.033
153.760	13.561	958.565	722.688
154.775	13.699	957.664	722.545
155.789	13.787	956.980	722.351
156.804	13.708	956.635	721.681
157.819	13.808	955.701	721.351
158.833	13.806	955.436	721.076
159.848	13.813	954.321	720.202
160.862	13.991	953.153	720.026
161.877	13.677	952.575	718.168
162.892	13.788	951.658	717.892
163.906	13.771	950.540	716.912
164.921	13.662	949.890	715.889
165.935	13.860	949.145	716.117
166.950	13.792	948.339	715.153
167.964	13.846	947.307	714.542
168.979	13.802	946.519	713.697
169.994	13.853	945.568	713.135
171.008	13.846	944.758	712.433
172.023	13.889	944.227	712.153
173.037	13.865	943.717	711.602
174.052	13.861	942.992	710.975
175.067	13.854	942.414	710.447
176.081	13.898	941.482	709.868
177.096	13.930	940.974	709.559
178.110	13.854	940.548	708.853
179.125	13.804	939.577	707.843
180.140	13.825	939.546	707.848
181.154	13.863	939.047	707.572
182.169	13.998	938.065	707.341
183.183	14.016	937.753	707.123
184.198	14.090	936.602	706.507
185.213	13.944	936.245	705.552
186.227	14.041	935.538	705.370
187.242	14.105	935.176	705.306
188.256	14.021	935.018	704.770
189.271	13.927	933.922	703.482
190.286	14.113	932.768	703.339
191.300	13.893	932.380	702.050
192.315	14.003	931.448	701.753
193.329	13.904	931.060	700.979
194.344	13.974	930.399	700.714
195.359	13.963	929.560	699.977
196.373	14.089	928.739	699.826
197.388	14.282	928.449	700.357
198.402	14.167	927.993	699.466
199.417	14.195	927.047	698.810
200.432	14.214	926.953	698.760
201.446	14.298	926.439	698.659
202.461	14.186	926.272	698.005
203.475	14.321	925.341	697.808
204.490	14.264	924.578	696.928
205.504	14.337	923.407	696.291
206.519	14.181	923.103	695.348
207.534	14.231	922.337	694.917
208.548	14.265	921.733	694.544
209.563	14.280	920.846	693.877
210.577	14.318	919.958	693.302
211.592	14.340	919.651	693.104
212.607	14.382	918.977	692.706
213.621	14.404	918.019	692.016
214.636	14.506	917.466	691.961
215.650	14.439	916.756	691.088
216.665	14.518	916.135	690.887
217.680	14.568	915.577	690.610
218.694	14.462	914.942	689.631
219.709	14.441	914.146	688.883
220.723	14.371	913.420	687.987
221.738	14.632	912.558	688.355
222.753	14.540	911.912	687.425
223.767	14.557	911.274	686.954
224.782	14.697	910.726	687.057
225.796	14.716	910.041	686.556
226.811	14.719	909.552	686.141
227.826	14.611	908.879	685.126
228.840	14.628	908.147	684.585
229.855	14.703	907.078	684.024
230.869	14.537	906.682	682.987
231.884	14.452	906.441	682.395
232.899	14.572	905.401	682.044
233.913	14.586	904.748	681.548
234.928	14.559	904.168	680.943
235.942	14.687	903.275	680.731
236.957	14.677	902.860	680.319
237.972	14.699	902.197	679.847
238.986	14.602	901.660	678.988
240.001	14.531	901.416	678.455
241.015	14.688	900.347	678.227
242.030	14.716	899.555	677.685
243.045	14.749	899.123	677.432
244.059	14.699	898.819	676.943
245.074	14.843	897.671	676.600
246.088	14.777	897.583	676.207
247.103	14.816	896.780	675.700
248.117	14.671	896.570	674.895
249.132	14.878	895.757	675.060
250.147	15.039	894.953	675.042
251.161	15.083	893.928	674.387
252.176	15.095	893.454	674.021
253.190	15.088	892.679	673.348
254.205	15.196	891.964	673.182
255.220	15.090	891.333	672.220
256.234	15.187	890.821	672.163
257.249	15.148	890.058	671.372
258.263	15.155	889.138	670.646
259.278	15.099	888.789	670.100
260.293	15.244	888.241	670.208
261.307	15.313	887.455	669.830
262.322	15.311	887.108	669.504
263.336	15.220	886.591	668.688
264.351	15.348	885.653	668.432
265.366	15.239	885.150	667.559
266.380	15.409	884.129	667.406
267.395	15.271	883.986	666.691
268.409	15.308	882.945	665.995
269.424	15.319	882.082	665.330
270.439	15.403	881.454	665.128
271.453	15.283	880.785	664.088
272.468	15.317	880.561	663.995
273.482	15.368	879.648	663.452
274.497	15.391	878.870	662.896
275.512	15.409	878.307	662.486
276.526	15.439	878.034	662.336
277.541	15.349	877.708	661.680
278.555	15.488	877.013	661.643
279.570	15.434	876.535	661.011
280.585	15.578	875.277	660.571
281.599	15.532	875.067	660.175
282.614	15.513	874.422	659.552
283.628	15.573	873.810	659.269
284.643	15.739	873.088	659.315
285.657	15.526	872.430	657.928
286.672	15.713	871.609	657.983
287.687	15.715	870.803	657.322
288.701	15.634	870.656	656.837
289.716	15.573	870.199	656.195
290.730	15.531	869.712	655.606
291.745	15.626	869.132	655.482
292.760	15.672	868.330	655.000
293.774	15.754	867.826	654.880
294.789	15.811	867.158	654.539
295.803	15.709	866.423	653.529
296.818	15.813	865.588	653.248
297.833	15.766	864.780	652.397
298.847	15.726	864.422	651.913
299.862	15.667	864.091	651.379
300.876	15.689	863.400	650.884
301.891	15.900	862.503	650.967
302.906	15.879	861.968	650.424
303.920	15.942	861.557	650.301
304.935	16.037	860.967	650.164
305.949	15.975	860.125	649.232
306.964	15.987	859.749	648.935
307.979	16.045	859.171	648.663
308.993	16.010	858.871	648.247
310.008	16.046	857.985	647.661
311.022	15.931	857.371	646.697
312.037	15.891	856.840	646.087
313.052	16.102	856.222	646.372
314.066	16.001	855.574	645.437
315.081	15.915	855.734	645.174
316.095	15.878	854.384	643.955
317.110	15.868	854.401	643.872
318.125	16.015	853.486	643.690
319.139	16.140	853.029	643.765
320.154	15.980	852.707	642.852
321.168	16.200	852.111	643.185
322.183	16.052	851.242	641.909
323.197	16.119	850.948	641.886
324.212	16.096	850.251	641.215
325.227	15.993	849.652	640.315
326.241	16.049	849.253	640.172
327.256	16.046	848.494	639.533
328.270	16.200	847.869	639.589
329.285	16.170	847.423	639.082
330.300	16.125	846.829	638.406
331.314	16.016	846.572	637.745
332.329	16.243	846.204	638.269
333.343	16.340	845.287	637.887
334.358	16.254	845.371	637.570
335.373	16.238	844.614	636.880
336.387	16.195	844.558	636.619
337.402	16.404	843.994	636.925
338.416	16.270	843.743	636.177
339.431	16.286	843.626	636.090
340.446	16.435	842.329	635.618
341.460	16.411	842.256	635.417
342.475	16.467	841.826	635.246
343.489	16.453	841.489	634.882
344.504	16.535	840.760	634.584
345.519	16.617	840.603	634.718
346.533	16.519	840.146	633.950
347.548	16.516	839.649	633.508
348.562	16.498	838.620	632.607
349.577	16.672	838.105	632.813
350.592	16.543	837.520	631.834
351.606	16.481	837.457	631.497
352.621	16.650	836.066	631.023
353.635	16.464	835.844	630.108
354.650	16.617	834.872	629.887
355.665	16.641	834.766	629.840
356.679	16.577	834.091	629.038
357.694	16.656	833.174	628.586
358.708	16.631	832.707	628.086
359.723	16.619	831.940	627.405
360.738	16.495	831.631	626.656
361.752	16.885	830.427	627.137
362.767	16.769	830.167	626.457
363.781	16.852	829.813	626.440
364.796	16.691	829.676	625.688
365.810	16.713	829.239	625.383
366.825	16.851	828.317	625.144
367.840	16.904	828.010	625.049
368.854	16.821	827.432	624.252
369.869	16.729	827.271	623.738
370.883	16.845	827.075	623.961
371.898	16.936	826.545	623.840
372.913	16.983	825.625	623.266
373.927	17.061	825.391	623.319
374.942	17.037	824.969	622.858
375.956	17.022	824.552	622.432
376.971	17.025	824.072	622.026
377.986	17.082	823.671	621.876
379.000	17.012	823.297	621.283
380.015	17.080	822.542	620.908
381.029	16.959	822.459	620.345
382.044	17.144	821.340	620.126
383.059	17.280	820.845	620.191
384.073	17.286	820.363	619.795
385.088	17.269	819.363	618.920
386.102	17.177	819.062	618.304
387.117	17.176	818.795	618.044
388.132	17.165	818.213	617.512
389.146	17.178	817.662	617.087
390.161	17.315	817.130	617.130
391.175	17.405	816.240	616.727
392.190	17.319	815.962	616.151
393.205	17.211	815.451	615.320
394.219	17.236	815.264	615.216
395.234	17.168	815.185	614.854
396.248	17.329	814.719	615.030
397.263	17.333	813.850	614.337
398.278	17.281	813.698	613.978
399.292	17.319	813.338	613.792
400.307	17.274	813.150	613.432
401.321	17.411	812.291	613.222
402.336	17.356	811.726	612.545
403.350	17.405	811.455	612.463
404.365	17.418	811.065	612.160
405.380	17.370	810.558	611.549
406.394	17.493	809.643	611.248
407.409	17.347	809.501	610.563
408.423	17.455	809.504	610.897
409.438	17.655	808.725	610.974
410.453	17.668	808.382	610.708
411.467	17.575	808.055	610.074
412.482	17.608	807.539	609.746
413.496	17.665	807.160	609.611
414.511	17.735	806.848	609.573
415.526	17.697	806.283	608.956
416.540	17.764	805.566	608.598
417.555	17.554	805.509	607.752
418.569	17.673	804.708	607.517
419.584	17.591	804.650	607.127
420.599	17.612	804.129	606.757
421.613	108.549	1290.443	1462.074
422.628	93.529	1361.272	1462.207
