DTS Sentinel unit serial number:	SN413079Multiplexer serial number:	ORYXHardware model number:	OX4-SRSoftware version number:	ORYX F/W v4.00 Oryx Data Collector v3.7.2.0data status	okinstallation	princeton_trtdifferential loss correction	single-endedforward channel	channel 1reverse channel	N/Adate	2019/09/13time	01:18:35forward acquisition time	60.00reverse acquisition time	0.00gamma	496.2192k internal	0.2330k external	0.2330temperature offset calibration	1.0144default loss term (dB/km)	0.3790temperature slope calibration	1.0000multiplexer offset coefficient	1.0000multiplexer slope coefficient	1.0000fibre end	0.00T internal ref (°C)	27.89T ext. ref 1 (°C)	3.70T ext. ref 2 (°C)	22.47length (m)	temperature (°C)	Stokes	anti-Stokes-747.200	-200.000	-0.011	-0.226
-746.185	102.897	0.172	0.203
-745.171	-200.000	0.107	0.485
-744.156	-58.460	-0.191	0.084
-743.142	101.341	-0.042	0.049
-742.127	-200.000	-0.237	0.000
-741.112	774.155	0.065	0.177
-740.098	800.000	-0.085	-0.290
-739.083	-84.624	-0.423	0.134
-738.069	-39.989	-0.270	0.142
-737.054	-200.000	-0.050	-0.293
-736.039	-126.230	-0.176	-0.027
-735.025	-94.804	0.243	0.066
-734.010	-200.000	0.001	0.140
-732.996	88.015	-0.101	-0.113
-731.981	250.339	-0.012	-0.020
-730.966	132.319	0.073	0.095
-729.952	77.876	-0.101	-0.108
-728.937	-58.077	-0.387	0.170
-727.923	-116.431	0.214	-0.040
-726.908	122.306	-0.033	-0.041
-725.894	42.879	0.108	0.099
-724.879	15.757	-0.241	-0.191
-723.864	-200.000	0.057	-0.256
-722.850	-43.506	-0.197	0.100
-721.835	-79.611	0.272	0.092
-720.821	-119.880	-0.469	-0.081
-719.806	14.727	0.253	0.199
-718.791	473.800	-0.128	-0.289
-717.777	-81.230	-0.241	-0.080
-716.762	800.000	-0.082	-0.347
-715.748	220.391	0.112	0.180
-714.733	250.342	-0.060	-0.102
-713.718	-112.757	0.310	-0.062
-712.704	0.535	0.117	0.084
-711.689	-17.699	-0.216	-0.136
-710.675	-116.684	0.046	-0.009
-709.660	800.000	0.038	-0.107
-708.645	-200.000	-0.030	0.175
-707.631	-200.000	-0.025	0.224
-706.616	-101.961	0.347	-0.084
-705.602	800.000	-0.036	-0.120
-704.587	-200.000	0.060	0.278
-703.572	166.952	0.122	-0.174
-702.558	-99.213	0.042	-0.011
-701.543	-200.000	0.014	0.195
-700.529	-21.418	0.170	0.104
-699.514	-200.000	0.003	-0.246
-698.499	16.840	-0.114	0.091
-697.485	100.239	-0.069	-0.081
-696.470	-23.626	0.041	0.025
-695.456	-200.000	0.048	0.294
-694.441	8.143	0.021	0.015
-693.426	-37.455	0.084	-0.045
-692.412	261.500	-0.090	0.157
-691.397	-200.000	0.021	0.171
-690.383	-200.000	-0.002	0.027
-689.368	182.080	0.203	0.300
-688.354	177.137	-0.055	-0.080
-687.339	-200.000	-0.001	-0.148
-686.324	20.737	-0.195	-0.158
-685.310	27.719	0.057	0.048
-684.295	144.868	0.132	-0.177
-683.281	591.271	0.018	0.045
-682.266	-200.000	-0.022	0.106
-681.251	-124.084	0.058	0.009
-680.237	-200.000	-0.009	-0.213
-679.222	-163.974	-0.093	0.004
-678.208	164.473	-0.078	0.110
-677.193	413.186	0.124	-0.264
-676.178	8.558	0.225	-0.170
-675.164	-200.000	0.010	-0.086
-674.149	279.511	0.046	0.082
-673.135	-200.000	0.001	-0.238
-672.120	412.879	-0.046	-0.097
-671.105	-200.000	-0.038	-0.239
-670.091	-200.000	0.021	-0.134
-669.076	-200.000	0.023	0.157
-668.062	-60.740	-0.085	0.036
-667.047	-52.573	0.016	0.008
-666.032	-200.000	-0.033	-0.174
-665.018	800.000	0.178	-0.511
-664.003	295.615	-0.090	-0.166
-662.989	-42.266	0.200	-0.102
-661.974	-63.387	-0.049	0.020
-660.959	626.618	-0.059	0.150
-659.945	-200.000	0.093	-0.471
-658.930	-24.554	0.126	0.075
-657.916	70.518	0.083	0.086
-656.901	-173.841	0.236	0.007
-655.886	303.835	-0.144	-0.268
-654.872	109.887	0.072	-0.087
-653.857	800.000	-0.099	-0.328
-652.843	-200.000	0.005	-0.144
-651.828	788.334	-0.020	0.055
-650.814	280.603	0.192	0.345
-649.799	745.539	0.075	0.202
-648.784	-143.204	0.469	0.045
-647.770	-75.072	0.151	-0.054
-646.755	-74.730	0.172	0.062
-645.741	-200.000	-0.035	0.252
-644.726	147.625	0.228	-0.308
-643.711	306.148	0.067	0.124
-642.697	800.000	-0.042	0.119
-641.682	374.569	0.159	-0.325
-640.668	92.160	-0.405	-0.457
-639.653	585.253	0.156	-0.385
-638.638	170.277	-0.196	0.281
-637.624	-180.684	0.154	0.003
-636.609	2.683	-0.164	-0.119
-635.595	323.552	-0.074	-0.141
-634.580	-200.000	0.009	-0.087
-633.565	-95.229	0.198	0.053
-632.551	-200.000	0.016	0.121
-631.536	-75.635	0.221	0.079
-630.522	-95.905	-0.334	0.089
-629.507	-200.000	-0.017	-0.117
-628.492	-12.305	-0.072	-0.047
-627.478	-67.267	0.380	-0.150
-626.463	39.622	0.044	0.040
-625.449	163.969	-0.060	0.085
-624.434	-13.609	-0.117	0.076
-623.419	-200.000	0.052	-0.473
-622.405	-164.567	-0.157	0.007
-621.390	221.316	0.049	-0.079
-620.376	167.322	-0.043	0.061
-619.361	275.942	-0.084	-0.150
-618.346	-200.000	-0.023	-0.162
-617.332	307.256	0.107	-0.199
-616.317	800.000	-0.076	-0.219
-615.303	252.513	-0.089	-0.151
-614.288	318.928	0.035	0.066
-613.273	800.000	-0.082	0.336
-612.259	-152.224	0.134	0.010
-611.244	-11.812	0.232	0.152
-610.230	-200.000	0.052	-0.356
-609.215	-3.948	0.229	0.159
-608.201	68.296	-0.134	-0.137
-607.186	41.035	-0.105	-0.095
-606.171	-48.865	-0.231	0.111
-605.157	346.421	0.050	0.098
-604.142	-132.930	-0.125	-0.016
-603.128	800.000	-0.119	0.376
-602.113	18.471	-0.186	0.149
-601.098	-72.726	0.225	0.083
-600.084	-200.000	-0.007	0.164
-599.069	110.643	0.023	0.027
-598.055	659.271	-0.048	-0.124
-597.040	-43.633	-0.200	0.101
-596.025	-200.000	-0.058	0.371
-595.011	-80.451	0.218	0.073
-593.996	-200.000	0.002	-0.056
-592.982	38.607	-0.230	-0.205
-591.967	57.946	0.079	-0.077
-590.952	160.273	0.180	-0.251
-589.938	-200.000	0.011	-0.063
-588.923	-200.000	-0.125	0.649
-587.909	-107.963	0.122	0.027
-586.894	-134.203	-0.281	-0.035
-585.879	20.956	0.306	0.248
-584.865	-109.758	-0.203	0.043
-583.850	51.250	-0.193	-0.183
-582.836	396.145	-0.074	0.154
-581.821	800.000	-0.106	-0.377
-580.806	-48.290	0.458	-0.221
-579.792	800.000	0.057	-0.247
-578.777	-173.556	-0.048	-0.001
-577.763	-200.000	0.075	0.342
-576.748	-200.000	0.021	0.094
-575.733	-23.586	-0.150	0.090
-574.719	81.118	0.092	-0.099
-573.704	800.000	0.064	-0.276
-572.690	-161.647	-0.143	0.007
-571.675	-2.445	0.123	0.086
-570.661	71.228	0.076	0.079
-569.646	-148.560	-0.383	-0.031
-568.631	-200.000	0.001	0.005
-567.617	122.900	0.132	-0.165
-566.602	800.000	0.064	-0.219
-565.588	399.418	-0.141	-0.295
-564.573	-49.750	-0.147	-0.070
-563.558	234.115	0.075	0.123
-562.544	64.526	-0.287	0.289
-561.529	-200.000	0.152	0.000
-560.515	-29.942	0.150	-0.085
-559.500	-8.920	-0.235	0.158
-558.485	1.573	0.104	0.075
-557.471	410.426	-0.075	-0.158
-556.456	-68.712	-0.148	0.057
-555.442	56.468	-0.103	-0.100
-554.427	-118.168	-0.526	-0.094
-553.412	-82.623	-0.022	-0.007
-552.398	43.633	-0.138	-0.126
-551.383	218.716	-0.080	-0.128
-550.369	-89.086	-0.030	0.009
-549.354	278.801	-0.143	-0.255
-548.339	527.665	-0.121	0.286
-547.325	-39.616	-0.185	-0.097
-546.310	-127.153	-0.145	-0.021
-545.296	-200.000	0.059	-0.406
-544.281	235.109	0.204	-0.337
-543.266	-38.275	-0.125	0.066
-542.252	800.000	-0.067	-0.205
-541.237	-200.000	-0.032	0.470
-540.223	-137.820	-0.102	-0.011
-539.208	149.299	0.173	-0.234
-538.193	106.726	0.117	-0.139
-537.179	-200.000	0.069	-0.437
-536.164	368.275	0.130	-0.262
-535.150	499.764	-0.055	0.126
-534.135	47.319	0.010	-0.009
-533.121	800.000	-0.054	0.177
-532.106	-18.648	-0.244	0.152
-531.091	-58.939	-0.289	0.125
-530.077	9.120	0.229	0.173
-529.062	-28.440	-0.110	-0.063
-528.048	-10.546	0.223	-0.148
-527.033	-93.805	0.057	-0.016
-526.018	-73.549	-0.078	0.028
-525.004	-25.022	-0.059	0.035
-523.989	-200.000	-0.013	-0.258
-522.975	-137.101	0.179	-0.020
-521.960	-108.359	0.099	0.021
-520.945	-115.933	-0.148	-0.028
-519.931	-144.765	0.352	-0.032
-518.916	-200.000	-0.064	0.439
-517.902	12.942	0.387	-0.299
-516.887	-81.472	-0.252	-0.083
-515.872	74.094	-0.355	-0.371
-514.858	-200.000	-0.005	-0.101
-513.843	236.621	0.050	0.083
-512.829	417.556	0.090	0.191
-511.814	-6.865	-0.153	0.104
-510.799	-161.777	0.124	0.006
-509.785	-44.143	-0.335	0.168
-508.770	-25.098	0.186	-0.110
-507.756	-200.000	0.010	-0.157
-506.741	800.000	0.074	-0.277
-505.726	-54.906	0.183	0.082
-504.712	-200.000	0.021	0.301
-503.697	-161.557	-0.131	0.007
-502.683	282.605	-0.067	-0.120
-501.668	-200.000	0.025	0.227
-500.653	217.416	-0.059	0.094
-499.639	201.367	0.035	-0.053
-498.624	800.000	0.057	0.163
-497.610	259.585	0.125	-0.215
-496.595	-67.710	-0.025	-0.010
-495.581	-200.000	0.011	-0.054
-494.566	-36.245	-0.187	0.100
-493.551	-21.501	-0.060	0.037
-492.537	22.807	0.202	-0.165
-491.522	8.087	-0.246	-0.184
-490.508	-200.000	0.009	-0.214
-489.493	-8.108	0.226	-0.152
-488.478	649.188	0.074	0.188
-487.464	-3.943	-0.200	0.138
-486.449	-63.091	0.056	-0.023
-485.435	152.099	-0.132	0.180
-484.420	82.241	-0.104	0.113
-483.405	172.693	0.241	-0.346
-482.391	55.203	-0.074	0.071
-481.376	139.915	-0.170	0.224
-480.362	-38.117	0.440	-0.233
-479.347	-138.251	0.111	0.012
-478.332	99.414	-0.247	-0.284
-477.318	369.963	0.072	0.146
-476.303	21.661	-0.183	0.148
-475.289	-74.831	-0.340	0.121
-474.274	82.230	0.234	0.253
-473.259	28.906	-0.177	0.149
-472.245	173.310	-0.145	0.208
-471.230	-2.738	0.198	0.138
-470.216	800.000	-0.118	-0.404
-469.201	800.000	0.021	0.080
-468.186	-78.067	0.322	0.110
-467.172	16.667	-0.165	-0.130
-466.157	-200.000	-0.029	0.218
-465.143	145.575	0.070	0.093
-464.128	-70.703	0.054	-0.020
-463.113	-51.896	-0.192	-0.089
-462.099	-157.169	-0.221	0.013
-461.084	-200.000	-0.037	0.165
-460.070	800.000	-0.055	-0.206
-459.055	800.000	-0.061	0.221
-458.040	-96.879	0.228	-0.060
-457.026	-160.788	0.143	-0.008
-456.011	246.822	-0.092	-0.155
-454.997	-86.440	-0.166	-0.051
-453.982	800.000	-0.064	-0.188
-452.968	-200.000	0.053	0.000
-451.953	800.000	0.069	0.291
-450.938	62.318	0.149	-0.148
-449.924	-72.973	-0.134	0.049
-448.909	53.318	0.202	0.192
-447.895	444.310	0.105	-0.229
-446.880	8.802	-0.216	0.162
-445.865	16.542	0.098	-0.077
-444.851	246.141	-0.040	0.068
-443.836	475.183	0.060	0.134
-442.822	800.000	-0.074	0.301
-441.807	-200.000	0.009	0.120
-440.792	-39.717	0.290	-0.151
-439.778	-0.317	0.062	0.044
-438.763	283.945	-0.076	0.136
-437.749	334.045	-0.126	0.242
-436.734	-94.645	-0.046	0.013
-435.719	-200.000	-0.010	-0.187
-434.705	-72.569	-0.018	-0.007
-433.690	-150.650	0.411	0.031
-432.676	35.099	-0.067	0.059
-431.661	3.307	0.112	0.081
-430.646	-119.923	-0.131	-0.022
-429.632	-41.170	-0.136	0.070
-428.617	-103.090	-0.140	-0.033
-427.603	-200.000	0.030	0.131
-426.588	-200.000	-0.002	-0.040
-425.573	-191.087	-0.133	0.001
-424.559	46.621	0.023	0.021
-423.544	380.345	-0.173	-0.352
-422.530	-85.040	-0.192	0.060
-421.515	-92.282	0.156	0.044
-420.500	-130.140	0.129	-0.017
-419.486	-79.809	-0.314	0.105
-418.471	160.659	-0.089	0.124
-417.457	-114.141	-0.048	-0.009
-416.442	800.000	0.075	-0.288
-415.428	-132.499	-0.300	-0.038
-414.413	326.232	-0.090	-0.171
-413.398	67.243	0.107	0.108
-412.384	-200.000	-0.001	0.132
-411.369	595.627	0.063	0.154
-410.355	179.020	-0.110	0.160
-409.340	19.668	-0.085	-0.068
-408.325	-60.541	-0.172	0.073
-407.311	47.719	0.147	0.137
-406.296	800.000	0.042	-0.124
-405.282	-200.000	-0.014	-0.183
-404.267	-200.000	-0.008	0.036
-403.252	-161.488	0.369	0.019
-402.238	-200.000	-0.043	0.243
-401.223	84.605	0.140	-0.152
-400.209	170.290	-0.110	0.156
-399.194	-172.138	0.062	0.002
-398.179	-80.783	0.132	-0.044
-397.165	-59.073	-0.200	0.086
-396.150	220.481	0.042	0.066
-395.136	204.734	0.159	0.245
-394.121	209.145	0.091	-0.141
-393.106	-141.431	0.175	-0.018
-392.092	-69.631	0.090	-0.034
-391.077	800.000	0.009	0.026
-390.063	-98.668	-0.211	-0.054
-389.048	800.000	0.015	-0.049
-388.033	100.037	0.069	0.079
-387.019	-146.289	-0.173	0.015
-386.004	370.045	0.065	0.130
-384.990	-200.000	-0.077	-0.453
-383.975	351.965	0.141	-0.277
-382.960	-200.000	-0.008	-0.120
-381.946	-54.156	0.159	0.072
-380.931	-200.000	-0.077	-0.501
-379.917	-18.784	-0.066	-0.041
-378.902	769.677	0.075	-0.203
-377.888	97.620	0.188	-0.215
-376.873	-8.544	-0.049	0.032
-375.858	-68.075	-0.179	-0.069
-374.844	134.218	0.339	-0.436
-373.829	-35.315	-0.129	0.069
-372.815	285.591	-0.128	0.228
-371.800	737.163	-0.099	0.264
-370.785	26.790	-0.111	0.092
-369.771	76.100	0.134	0.141
-368.756	48.698	0.249	0.232
-367.742	-108.903	-0.022	0.005
-366.727	-52.903	0.180	-0.082
-365.712	74.760	-0.192	-0.201
-364.698	-173.587	0.146	0.004
-363.683	377.152	-0.254	0.514
-362.669	94.628	-0.244	0.275
-361.654	-200.000	0.073	0.364
-360.639	96.083	-0.178	0.202
-359.625	445.880	0.065	-0.141
-358.610	-140.169	0.282	-0.029
-357.596	183.806	-0.111	-0.163
-356.581	-118.214	-0.248	-0.044
-355.566	-135.047	-0.337	0.040
-354.552	82.856	-0.248	-0.267
-353.537	458.833	0.200	0.441
-352.523	-200.000	-0.001	-0.069
-351.508	-62.608	0.202	0.083
-350.493	800.000	0.022	-0.080
-349.479	179.600	-0.119	-0.173
-348.464	-200.000	-0.018	0.191
-347.450	78.119	0.251	-0.266
-346.435	-26.466	0.276	-0.161
-345.420	-145.147	0.052	-0.005
-344.406	-35.358	-0.128	-0.069
-343.391	52.086	0.276	-0.261
-342.377	409.221	-0.100	0.210
-341.362	176.842	-0.092	0.133
-340.348	-86.952	0.336	-0.101
-339.333	800.000	-0.037	0.122
-338.318	-20.877	-0.114	0.069
-337.304	-200.000	-0.025	0.195
-336.289	172.722	0.202	-0.288
-335.275	-98.077	0.363	-0.093
-334.260	800.000	0.048	0.200
-333.245	-178.264	0.075	-0.002
-332.231	-172.465	0.280	0.009
-331.216	-184.929	-0.249	0.004
-330.202	49.012	-0.190	0.176
-329.187	110.827	0.059	-0.070
-328.172	75.662	0.090	-0.094
-327.158	-83.228	0.211	0.067
-326.143	-200.000	-0.018	0.172
-325.129	-75.082	0.405	0.143
-324.114	287.699	0.074	0.132
-323.099	170.963	-0.186	-0.264
-322.085	-200.000	0.045	-0.270
-321.070	-200.000	-0.020	-0.375
-320.056	44.123	0.297	-0.269
-319.041	432.842	-0.108	0.232
-318.026	-200.000	0.033	0.353
-317.012	-200.000	0.043	-0.291
-315.997	-58.852	-0.246	0.105
-314.983	11.309	0.127	0.097
-313.968	-144.571	-0.090	-0.008
-312.953	84.518	-0.078	-0.085
-311.939	-161.394	0.336	-0.017
-310.924	113.993	0.278	0.335
-309.910	40.955	0.289	0.258
-308.895	230.288	0.081	0.132
-307.880	401.630	-0.083	-0.172
-306.866	99.083	-0.191	-0.219
-305.851	-83.644	-0.160	0.051
-304.837	195.521	-0.040	-0.061
-303.822	-200.000	-0.054	-0.377
-302.807	-89.704	-0.326	0.094
-301.793	29.393	-0.093	-0.078
-300.778	-200.000	0.021	-0.095
-299.764	75.212	-0.099	0.103
-298.749	178.160	-0.208	0.300
-297.735	55.072	0.149	0.142
-296.720	61.056	-0.157	-0.154
-295.705	-6.668	-0.163	0.110
-294.691	65.027	0.104	-0.104
-293.676	283.276	0.103	-0.183
-292.662	-23.554	-0.123	0.073
-291.647	154.579	-0.306	0.416
-290.632	-150.638	0.222	-0.017
-289.618	50.654	0.119	0.111
-288.603	-59.863	0.250	-0.106
-287.589	-80.201	-0.143	0.047
-286.574	-200.000	-0.038	0.218
-285.559	54.733	0.149	0.142
-284.545	362.843	-0.049	-0.097
-283.530	230.769	0.093	-0.150
-282.516	246.062	0.148	0.246
-281.501	70.049	0.063	0.065
-280.486	-107.154	-0.412	-0.090
-279.472	196.397	0.118	-0.178
-278.457	-73.098	0.218	-0.079
-277.443	626.500	0.094	-0.235
-276.428	-12.189	0.183	-0.118
-275.413	-200.000	0.017	0.111
-274.399	502.271	-0.113	0.258
-273.384	666.119	-0.055	-0.140
-272.370	112.923	0.140	0.167
-271.355	53.666	-0.125	0.118
-270.340	-109.617	0.090	-0.019
-269.326	50.925	-0.136	0.127
-268.311	800.000	0.059	-0.203
-267.297	800.000	0.072	0.198
-266.282	-52.119	-0.187	-0.086
-265.267	7.592	-0.297	-0.220
-264.253	-200.000	0.008	-0.050
-263.238	65.740	0.099	0.099
-262.224	301.989	0.058	-0.106
-261.209	800.000	0.018	0.053
-260.195	-131.455	0.366	-0.048
-259.180	-101.239	-0.088	-0.021
-258.165	-77.778	0.171	-0.058
-257.151	-6.796	-0.137	0.092
-256.136	-178.627	0.008	0.000
-255.122	398.900	0.138	0.285
-254.107	-27.759	0.309	0.177
-253.092	-200.000	-0.009	-0.139
-252.078	40.193	0.159	0.141
-251.063	-125.781	-0.302	0.045
-250.049	-17.010	-0.406	0.253
-249.034	-200.000	0.052	0.323
-248.019	-200.000	0.013	0.150
-247.005	-98.488	0.290	0.073
-245.990	344.272	0.051	-0.099
-244.976	-26.514	0.182	0.106
-243.961	-87.958	0.076	0.023
-242.946	98.256	0.144	-0.164
-241.932	166.484	-0.049	-0.069
-240.917	-180.638	-0.222	0.004
-239.903	-200.000	0.034	-0.201
-238.888	-138.759	0.157	0.017
-237.873	653.283	0.186	-0.470
-236.859	548.845	0.122	-0.289
-235.844	108.968	-0.170	0.201
-234.830	162.450	-0.152	0.211
-233.815	-64.310	-0.051	0.021
-232.800	-10.163	-0.068	-0.044
-231.786	-5.096	0.287	-0.195
-230.771	-23.327	0.100	-0.059
-229.757	-200.000	-0.002	-0.013
-228.742	-88.297	-0.084	0.025
-227.727	52.357	-0.232	-0.219
-226.713	608.263	0.065	-0.159
-225.698	1.257	-0.162	-0.115
-224.684	302.021	0.066	-0.121
-223.669	17.790	0.043	-0.034
-222.655	99.712	-0.129	0.148
-221.640	-89.831	-0.342	-0.099
-220.625	-200.000	-0.008	0.275
-219.611	-24.257	-0.108	0.064
-218.596	-83.322	-0.230	-0.073
-217.582	-200.000	-0.012	-0.068
-216.567	101.336	0.192	-0.221
-215.552	-150.691	-0.214	0.016
-214.538	225.976	0.122	0.196
-213.523	800.000	-0.054	-0.184
-212.509	-200.000	0.020	0.096
-211.494	178.884	-0.121	-0.174
-210.479	225.409	-0.064	0.102
-209.465	-193.400	0.420	0.004
-208.450	490.327	0.093	-0.209
-207.436	800.000	-0.032	0.130
-206.421	246.419	0.043	0.071
-205.406	32.637	0.123	-0.105
-204.392	182.894	-0.044	0.064
-203.377	127.342	-0.170	0.213
-202.363	89.251	-0.025	0.028
-201.348	142.717	-0.135	-0.176
-200.333	800.000	0.067	0.189
-199.319	-53.735	-0.236	0.106
-198.304	196.434	0.073	0.109
-197.290	-74.290	-0.168	-0.060
-196.275	-129.025	-0.133	-0.018
-195.260	-151.148	0.165	0.012
-194.246	104.547	-0.069	0.080
-193.231	-54.377	0.326	0.146
-192.217	-148.107	-0.066	0.005
-191.202	79.945	-0.052	0.055
-190.187	800.000	0.040	-0.143
-189.173	-83.406	0.369	0.117
-188.158	-33.023	0.290	0.158
-187.144	37.798	-0.230	0.201
-186.129	800.000	0.066	0.235
-185.114	800.000	-0.047	-0.162
-184.100	456.006	0.141	0.308
-183.085	-200.000	0.061	0.294
-182.071	-97.115	-0.176	-0.045
-181.056	93.347	-0.194	0.217
-180.042	800.000	-0.046	0.145
-179.027	-200.000	0.035	0.384
-178.012	23.414	-0.189	-0.153
-176.998	800.000	-0.031	0.097
-175.983	41.645	0.238	0.212
-174.969	-200.000	0.032	-0.333
-173.954	-200.000	0.047	0.214
-172.939	-31.655	-0.162	-0.089
-171.925	-123.429	-0.113	-0.018
-170.910	73.556	0.235	0.243
-169.896	204.530	0.118	-0.180
-168.881	280.331	0.070	-0.123
-167.866	-134.430	-0.178	-0.021
-166.852	-68.921	-0.246	-0.094
-165.837	-62.642	0.127	-0.052
-164.823	-1.850	0.335	-0.232
-163.808	226.375	-0.058	0.092
-162.793	-55.022	-0.152	-0.067
-161.779	-200.000	-0.009	-0.106
-160.764	-0.143	-0.288	0.202
-159.750	-200.000	-0.051	-0.243
-158.735	-127.850	-0.109	-0.015
-157.720	-170.401	0.210	-0.007
-156.706	-200.000	0.011	-0.133
-155.691	-61.799	0.409	0.168
-154.677	406.899	-0.139	-0.290
-153.662	-97.028	-0.326	-0.084
-152.647	29.793	-0.154	-0.129
-151.633	0.530	0.179	0.126
-150.618	80.216	0.196	0.208
-149.604	93.093	-0.178	-0.198
-148.589	-200.000	0.033	0.189
-147.574	-200.000	0.062	0.548
-146.560	-43.000	-0.362	-0.181
-145.545	-200.000	0.082	-0.387
-144.531	64.668	0.209	-0.207
-143.516	109.740	0.176	-0.207
-142.502	600.737	-0.116	0.284
-141.487	448.635	0.058	0.126
-140.472	151.436	0.251	0.337
-139.458	-200.000	0.020	-0.225
-138.443	800.000	-0.036	-0.109
-137.429	153.188	0.242	0.325
-136.414	800.000	0.080	0.264
-135.399	-200.000	-0.044	0.350
-134.385	-100.602	-0.100	0.024
-133.370	-200.000	0.010	0.188
-132.356	-80.280	-0.369	-0.121
-131.341	-200.000	-0.039	0.318
-130.326	405.705	-0.037	-0.077
-129.312	-181.961	0.360	0.007
-128.297	374.423	-0.103	0.207
-127.283	21.031	0.219	-0.175
-126.268	-200.000	-0.008	-0.199
-125.253	-85.849	0.152	0.046
-124.239	-86.608	-0.182	-0.055
-123.224	-165.685	0.194	-0.008
-122.210	-200.000	-0.041	0.256
-121.195	-200.000	0.001	-0.114
-120.180	130.958	-0.035	-0.044
-119.166	106.719	0.015	-0.018
-118.151	-89.040	0.157	0.046
-117.137	800.000	-0.094	-0.339
-116.122	640.941	0.096	0.241
-115.107	800.000	-0.084	-0.229
-114.093	448.151	0.134	0.289
-113.078	-60.594	0.284	0.119
-112.064	-120.643	0.197	0.033
-111.049	800.000	0.004	0.013
-110.034	-96.711	-0.160	0.041
-109.020	800.000	0.028	-0.104
-108.005	102.263	-0.177	0.203
-106.991	-47.193	0.246	0.118
-105.976	-200.000	0.013	-0.278
-104.962	72.706	0.046	0.048
-103.947	-112.172	-0.290	-0.057
-102.932	-196.097	0.200	0.001
-101.918	-134.959	-0.480	-0.057
-100.903	-68.085	0.540	-0.207
-99.889	-42.614	-0.049	0.025
-98.874	0.629	0.157	0.110
-97.859	-82.041	-0.092	-0.029
-96.845	-52.785	-0.346	-0.157
-95.830	-200.000	-0.019	-0.138
-94.816	-200.000	-0.006	0.156
-93.801	-189.375	0.280	-0.003
-92.786	-200.000	-0.044	0.195
-91.772	41.681	0.177	-0.158
-90.757	216.030	-0.084	-0.131
-89.743	326.400	0.174	-0.327
-88.728	507.398	0.128	0.291
-87.713	-58.719	0.176	0.075
-86.699	-175.941	0.263	0.007
-85.684	644.603	-0.215	0.538
-84.670	267.516	-0.273	0.469
-83.655	-37.580	0.123	-0.064
-82.640	800.000	0.047	0.181
-81.626	-142.617	0.139	-0.013
-80.611	613.675	0.014	0.034
-79.597	-127.706	0.292	0.041
-78.582	30.784	0.251	0.211
-77.567	800.000	-0.016	0.068
-76.553	-77.075	0.268	0.092
-75.538	800.000	0.035	0.120
-74.524	800.000	-0.050	0.193
-73.509	214.189	-0.083	-0.128
-72.494	-101.647	-0.103	0.025
-71.480	-86.380	-0.219	0.066
-70.465	-200.000	0.005	-0.118
-69.451	-76.614	-0.210	-0.072
-68.436	-131.290	0.125	0.016
-67.422	-45.381	-0.007	-0.004
-66.407	-74.452	-0.056	-0.020
-65.392	76.921	-0.096	0.100
-64.378	-158.887	0.269	0.015
-63.363	697.880	-0.115	0.297
-62.349	-200.000	0.005	-0.063
-61.334	31.690	-1.157	-0.976
-60.319	54.630	0.608	0.575
-59.305	562.168	-0.404	-0.958
-58.290	800.000	0.385	1.318
-57.276	276.716	0.810	1.411
-56.261	-200.000	113.418	647.921
-55.246	541.917	1518.105	3545.975
-54.232	179.379	2681.713	3845.977
-53.217	111.111	2146.703	2533.628
-52.203	39.454	1596.955	1401.811
-51.188	31.268	1344.536	1130.874
-50.173	28.320	1305.983	1081.032
-49.159	55.805	1362.181	1293.740
-48.144	54.565	1377.001	1300.319
-47.130	31.467	1332.070	1121.405
-46.115	28.075	1314.285	1086.275
-45.100	27.901	1309.415	1081.177
-44.086	27.788	1307.770	1079.110
-43.071	27.803	1304.964	1076.840
-42.057	27.738	1302.820	1074.645
-41.042	27.813	1301.132	1073.654
-40.027	27.807	1299.650	1072.353
-39.013	27.733	1298.020	1070.526
-37.998	27.854	1295.989	1069.518
-36.984	27.991	1293.876	1068.533
-35.969	27.857	1292.368	1066.464
-34.954	27.877	1290.729	1065.188
-33.940	28.035	1289.064	1064.691
-32.925	27.963	1288.147	1063.470
-31.911	27.915	1286.645	1061.912
-30.896	27.925	1285.533	1061.010
-29.881	27.988	1284.061	1060.115
-28.867	27.950	1282.839	1058.846
-27.852	27.976	1281.944	1058.214
-26.838	28.053	1279.835	1056.877
-25.823	27.981	1278.617	1055.413
-24.809	27.949	1277.494	1054.264
-23.794	27.783	1276.724	1052.630
-22.779	27.949	1274.430	1051.647
-21.765	27.984	1273.226	1050.813
-20.750	27.972	1272.035	1049.722
-19.736	27.992	1270.879	1048.841
-18.721	27.989	1269.474	1047.624
-17.706	27.879	1268.209	1045.907
-16.692	27.917	1267.569	1045.554
-15.677	27.850	1266.165	1043.970
-14.663	27.810	1264.928	1042.682
-13.648	27.805	1264.153	1041.976
-12.633	27.909	1262.996	1041.574
-11.619	27.766	1262.100	1039.979
-10.604	27.809	1261.643	1039.806
-9.590	27.849	1260.200	1038.804
-8.575	27.811	1259.805	1038.215
-7.560	27.771	1258.673	1037.014
-6.546	27.789	1258.028	1036.545
-5.531	27.831	1256.927	1035.839
-4.517	27.755	1256.338	1034.881
-3.502	27.889	1255.169	1034.635
-2.487	27.876	1254.578	1034.031
-1.473	27.878	1249.964	1030.197
-0.458	26.273	1234.784	1008.698
0.556	24.196	1217.741	970.819
1.571	20.381	1222.847	953.890
2.586	19.323	1237.542	959.382
3.600	19.136	1225.753	949.129
4.615	14.666	1154.539	870.646
5.629	7.200	1082.433	779.567
6.644	4.076	1063.740	750.907
7.659	3.704	1061.448	747.426
8.673	3.561	1060.668	746.120
9.688	3.461	1058.973	744.376
10.702	3.962	1056.853	745.233
11.717	8.685	1063.664	772.816
12.731	16.979	1074.898	821.223
13.746	21.818	1080.809	849.159
14.761	22.633	1081.971	853.946
15.775	21.988	1080.288	849.423
16.790	21.138	1078.396	843.752
17.804	20.599	1076.815	839.837
18.819	20.414	1076.305	838.474
19.834	20.398	1075.644	837.810
20.848	20.459	1075.114	837.615
21.863	20.369	1074.404	836.553
22.877	20.101	1073.871	834.773
23.892	20.040	1072.726	833.519
24.907	20.015	1071.939	832.713
25.921	20.078	1070.378	831.728
26.936	19.890	1069.863	830.350
27.950	19.963	1068.293	829.408
28.965	20.070	1066.841	828.719
29.980	20.167	1065.761	828.273
30.994	20.288	1064.899	828.105
32.009	20.340	1063.665	827.323
33.023	20.314	1062.711	826.381
34.038	20.179	1061.676	824.864
35.053	20.001	1060.590	823.100
36.067	19.893	1059.771	821.878
37.082	19.885	1059.565	821.607
38.096	20.084	1058.784	821.872
39.111	20.263	1057.699	821.804
40.126	19.986	1056.525	819.509
41.140	19.604	1055.003	816.454
42.155	19.476	1053.664	814.738
43.169	19.469	1052.273	813.559
44.184	19.487	1051.330	812.845
45.199	19.525	1050.422	812.246
46.213	19.686	1049.715	812.388
47.228	20.015	1048.854	813.195
48.242	20.157	1048.360	813.406
49.257	20.090	1047.332	812.218
50.271	20.243	1046.261	812.034
51.286	20.193	1045.878	811.430
52.301	20.111	1044.707	810.070
53.315	19.912	1044.014	808.528
54.330	19.835	1042.760	807.126
55.344	19.688	1041.743	805.584
56.359	19.788	1040.739	805.200
57.374	19.628	1039.997	803.814
58.388	19.605	1038.668	802.604
59.403	19.455	1038.309	801.564
60.417	19.471	1037.691	801.088
61.432	19.404	1036.987	800.160
62.447	19.481	1035.897	799.608
63.461	19.267	1035.347	798.123
64.476	19.252	1033.798	796.788
65.490	19.160	1033.537	796.088
66.505	19.327	1032.637	796.100
67.520	19.400	1032.054	795.915
68.534	19.254	1031.369	794.643
69.549	19.181	1030.612	793.654
70.563	19.102	1029.832	792.619
71.578	18.922	1028.661	790.817
72.593	18.882	1027.607	789.753
73.607	18.831	1026.999	788.985
74.622	18.956	1026.568	789.156
75.636	18.922	1025.979	788.479
76.651	19.009	1025.272	788.262
77.666	19.134	1024.455	788.136
78.680	19.145	1023.788	787.605
79.695	19.207	1023.219	787.381
80.709	19.467	1022.629	788.045
81.724	19.545	1022.178	787.983
82.739	19.690	1021.510	788.062
83.753	19.975	1021.596	789.356
84.768	20.341	1020.892	790.410
85.782	20.616	1019.897	790.818
86.797	20.480	1019.642	789.933
87.812	20.162	1018.176	787.286
88.826	20.299	1017.248	787.119
89.841	20.319	1016.420	786.498
90.855	20.443	1015.920	786.605
91.870	20.322	1015.395	785.582
92.884	20.405	1013.834	784.679
93.899	20.378	1013.183	783.981
94.914	20.506	1012.299	783.807
95.928	20.459	1011.270	782.728
96.943	20.222	1010.180	780.750
97.957	20.149	1009.460	779.795
98.972	20.257	1008.416	779.404
99.987	20.374	1007.901	779.462
101.001	20.309	1006.671	778.152
102.016	20.234	1005.403	776.767
103.030	20.174	1005.581	776.567
104.045	20.391	1004.246	776.438
105.060	20.107	1003.221	774.309
106.074	19.865	1002.071	772.271
107.089	19.521	1001.046	769.880
108.103	19.443	999.540	768.305
109.118	19.324	998.384	766.822
110.133	19.239	997.723	765.868
111.147	19.202	996.725	764.871
112.162	19.228	995.910	764.290
113.176	19.573	995.395	765.357
114.191	19.601	994.983	765.099
115.206	19.510	994.462	764.224
116.220	19.350	993.340	762.589
117.235	19.519	991.980	762.224
118.249	19.404	991.117	760.986
119.264	19.215	990.511	759.620
120.279	19.103	989.956	758.632
121.293	19.035	988.827	757.402
122.308	19.020	987.703	756.407
123.322	18.837	986.638	754.721
124.337	18.886	985.864	754.278
125.352	18.968	984.690	753.673
126.366	18.928	983.754	752.713
127.381	18.980	982.886	752.209
128.395	19.037	982.666	752.225
129.410	19.051	981.431	751.274
130.424	19.361	980.629	751.947
131.439	19.437	980.173	751.859
132.454	19.545	979.127	751.460
133.468	19.504	978.828	750.986
134.483	19.490	977.653	749.960
135.497	19.551	976.842	749.537
136.512	19.589	976.003	748.990
137.527	19.600	975.161	748.327
138.541	19.661	974.490	748.010
139.556	19.540	974.181	747.181
140.570	19.890	973.493	748.101
141.585	20.052	972.948	748.317
142.600	20.068	971.959	747.556
143.614	20.269	971.393	747.921
144.629	20.402	970.601	747.821
145.643	20.325	969.526	746.593
146.658	20.044	967.719	743.928
147.673	19.687	966.909	741.711
148.687	19.660	966.094	740.903
149.702	19.539	964.884	739.393
150.716	19.672	963.726	739.007
151.731	19.598	963.688	738.598
152.746	19.637	962.620	737.880
153.760	19.862	962.236	738.478
154.775	19.923	961.775	738.322
155.789	19.876	961.184	737.604
156.804	19.949	960.368	737.222
157.819	20.023	960.081	737.249
158.833	20.109	959.534	737.129
159.848	20.464	958.238	737.579
160.862	20.231	957.340	735.832
161.877	19.720	955.757	732.387
162.892	19.428	954.924	730.446
163.906	19.411	953.864	729.498
164.921	19.540	953.135	729.422
165.935	19.555	952.272	728.759
166.950	19.797	951.606	729.208
167.964	19.736	950.277	727.866
168.979	19.647	949.468	726.809
169.994	19.613	948.448	725.819
171.008	19.747	947.970	725.955
172.023	20.072	947.504	726.897
173.037	20.272	947.200	727.436
174.052	19.945	945.844	724.961
175.067	19.675	944.758	722.938
176.081	19.566	943.576	721.513
177.096	19.299	943.737	720.458
178.110	19.484	942.890	720.518
179.125	19.702	942.483	721.054
180.140	19.663	942.533	720.864
181.154	19.817	942.600	721.496
182.169	20.101	941.678	721.909
183.183	20.069	941.035	721.218
184.198	20.128	939.876	720.513
185.213	20.114	939.148	719.832
186.227	20.267	938.465	719.881
187.242	20.275	938.361	719.768
188.256	20.383	937.825	719.741
189.271	20.460	937.141	719.474
190.286	20.017	935.631	716.417
191.300	19.511	934.237	713.198
192.315	19.269	933.685	711.715
193.329	19.373	933.643	712.048
194.344	19.758	932.590	712.770
195.359	19.643	932.294	712.007
196.373	19.931	931.621	712.613
197.388	20.092	932.174	713.638
198.402	20.360	931.553	714.203
199.417	20.556	931.003	714.522
200.432	20.729	930.379	714.688
201.446	20.760	930.651	714.963
202.461	20.902	930.031	715.007
203.475	20.615	928.899	712.898
204.490	20.343	927.644	710.756
205.504	20.161	926.995	709.453
206.519	20.208	926.207	708.979
207.534	20.088	925.582	707.949
208.548	20.109	924.843	707.406
209.563	20.239	924.086	707.294
210.577	20.168	923.852	706.762
211.592	20.548	923.281	707.810
212.607	20.608	922.585	707.457
213.621	20.535	921.846	706.533
214.636	20.405	921.040	705.323
215.650	20.530	920.217	705.140
216.665	20.598	919.681	704.939
217.680	20.744	919.376	705.238
218.694	20.697	918.599	704.388
219.709	20.789	917.544	703.889
220.723	20.573	917.311	702.776
221.738	20.653	916.205	702.189
222.753	20.478	915.673	701.012
223.767	20.449	915.724	700.873
224.782	20.802	915.150	701.793
225.796	20.940	914.689	701.933
226.811	20.640	913.709	699.914
227.826	20.277	913.105	697.927
228.840	20.404	912.049	697.571
229.855	20.485	911.076	697.089
230.869	20.327	910.663	696.078
231.884	20.263	909.609	694.953
232.899	20.192	909.028	694.166
233.913	20.197	907.993	693.331
234.928	20.008	907.310	691.995
235.942	19.866	907.249	691.319
236.957	19.965	906.584	691.146
237.972	19.972	906.160	690.792
238.986	20.097	905.091	690.412
240.001	20.021	904.457	689.565
241.015	20.145	904.023	689.668
242.030	20.327	903.864	690.210
243.045	20.303	903.096	689.466
244.059	20.329	902.799	689.281
245.074	20.417	901.981	688.945
246.088	20.531	901.849	689.234
247.103	20.788	901.359	689.819
248.117	20.988	901.036	690.300
249.132	21.407	900.992	691.863
250.147	21.610	900.414	692.161
251.161	21.643	899.927	691.856
252.176	21.525	899.842	691.262
253.190	21.619	898.742	690.730
254.205	21.844	897.660	690.724
255.220	21.513	897.266	689.054
256.234	21.484	896.384	688.201
257.249	21.585	895.891	688.162
258.263	21.553	894.939	687.242
259.278	21.445	894.421	686.361
260.293	21.612	894.089	686.700
261.307	21.798	893.490	686.908
262.322	21.635	893.245	686.020
263.336	21.830	891.881	685.676
264.351	21.776	891.326	684.977
265.366	21.737	890.597	684.204
266.380	21.791	890.234	684.072
267.395	21.525	889.261	682.228
268.409	21.474	888.708	681.545
269.424	21.552	887.997	681.244
270.439	21.416	887.142	679.999
271.453	21.240	886.328	678.630
272.468	21.169	886.141	678.153
273.482	21.265	885.539	678.004
274.497	21.339	884.628	677.534
275.512	21.308	883.605	676.571
276.526	21.199	883.999	676.387
277.541	21.218	883.612	676.107
278.555	21.665	883.209	677.467
279.570	21.795	882.702	677.522
280.585	21.818	881.655	676.749
281.599	21.492	880.421	674.483
282.614	21.402	879.749	673.560
283.628	21.397	879.242	673.096
284.643	21.341	878.686	672.394
285.657	21.355	878.147	671.978
286.672	21.354	877.740	671.602
287.687	21.490	876.696	671.266
288.701	21.487	876.300	670.892
289.716	21.380	876.134	670.295
290.730	21.499	875.133	669.927
291.745	21.439	874.992	669.529
292.760	21.752	874.039	669.934
293.774	21.898	873.833	670.277
294.789	21.836	872.816	669.201
295.803	21.488	871.920	667.128
296.818	21.406	871.262	666.253
297.833	21.411	870.474	665.611
298.847	21.435	869.982	665.269
299.862	21.637	869.737	665.787
300.876	21.822	869.226	666.042
301.891	21.989	868.901	666.368
302.906	22.032	868.687	666.307
303.920	22.196	868.121	666.438
304.935	22.210	867.674	666.089
305.949	22.001	866.695	664.485
306.964	21.839	866.188	663.427
307.979	21.869	865.750	663.146
308.993	21.909	865.203	662.819
310.008	22.118	864.504	663.011
311.022	21.948	863.771	661.752
312.037	21.515	863.184	659.610
313.052	21.411	862.085	658.321
314.066	21.392	861.595	657.819
315.081	21.400	860.795	657.177
316.095	21.406	860.023	656.553
317.110	21.356	859.609	655.992
318.125	21.331	858.905	655.300
319.139	21.285	858.831	655.013
320.154	21.290	858.325	654.590
321.168	21.410	857.532	654.378
322.183	21.479	857.282	654.387
323.197	21.554	857.214	654.555
324.212	21.424	856.551	653.505
325.227	21.492	855.569	652.952
326.241	21.393	854.907	652.021
327.256	21.422	854.287	651.598
328.270	21.511	853.487	651.262
329.285	21.322	853.271	650.336
330.300	21.332	852.875	650.015
331.314	21.487	852.267	650.070
332.329	21.599	852.279	650.436
333.343	21.844	851.921	651.016
334.358	21.783	851.548	650.448
335.373	21.774	850.776	649.768
336.387	21.935	850.667	650.223
337.402	22.056	850.696	650.634
338.416	22.293	850.164	651.048
339.431	22.355	849.988	651.087
340.446	22.600	849.329	651.427
341.460	22.392	849.463	650.703
342.475	22.702	848.692	651.201
343.489	22.673	848.267	650.709
344.504	22.712	848.129	650.691
345.519	22.743	847.862	650.542
346.533	22.757	846.748	649.683
347.548	22.282	845.999	647.302
348.562	22.146	845.079	646.040
349.577	21.886	844.606	644.665
350.592	21.789	843.639	643.516
351.606	21.734	842.888	642.686
352.621	21.944	842.279	642.933
353.635	22.149	841.753	643.225
354.650	21.995	841.026	642.051
355.665	22.093	840.405	641.875
356.679	22.020	840.441	641.581
357.694	22.128	838.978	640.799
358.708	21.967	838.812	640.029
359.723	22.088	838.302	640.023
360.738	22.178	837.926	640.008
361.752	22.258	837.475	639.899
362.767	22.492	837.040	640.360
363.781	22.652	836.427	640.416
364.796	22.832	835.926	640.630
365.810	22.900	836.057	640.919
366.825	23.024	835.470	640.864
367.840	23.023	834.642	640.166
368.854	22.636	833.975	638.199
369.869	22.624	833.590	637.803
370.883	22.574	833.275	637.326
371.898	22.829	832.940	637.933
372.913	22.748	832.860	637.523
373.927	22.693	831.882	636.520
374.942	22.615	831.341	635.767
375.956	22.734	831.327	636.133
376.971	23.098	830.844	637.016
377.986	23.071	830.398	636.519
379.000	23.058	830.017	636.127
380.015	23.027	829.083	635.242
381.029	23.128	828.434	635.052
382.044	23.095	827.987	634.533
383.059	23.049	827.441	633.897
384.073	23.092	826.746	633.459
385.088	22.654	825.529	630.904
386.102	22.495	824.627	629.593
387.117	22.532	824.093	629.261
388.132	22.582	823.909	629.243
389.146	22.617	823.454	628.965
390.161	22.972	823.264	630.029
391.175	22.989	822.850	629.716
392.190	22.753	822.277	628.385
393.205	22.576	821.709	627.264
394.219	22.410	821.188	626.219
395.234	22.388	820.366	625.459
396.248	22.221	820.102	624.610
397.263	22.146	819.924	624.151
398.278	22.186	819.374	623.819
399.292	22.249	818.614	623.411
400.307	22.262	817.956	622.899
401.321	22.297	817.990	622.996
402.336	22.388	817.541	622.920
403.350	22.650	817.331	623.629
404.365	22.981	817.011	624.501
405.380	23.288	816.481	625.126
406.394	23.330	816.179	624.988
407.409	23.244	815.864	624.388
408.423	23.160	815.714	623.919
409.438	23.331	815.579	624.365
410.453	23.419	814.732	623.971
411.467	23.612	814.257	624.230
412.482	23.558	814.114	623.875
413.496	23.700	813.573	623.907
414.511	23.530	813.184	622.955
415.526	23.376	812.684	621.977
416.540	23.433	811.919	621.534
417.555	23.397	811.428	620.979
418.569	23.381	811.114	620.627
419.584	23.476	810.438	620.386
420.599	23.385	810.181	619.816
421.613	164.198	1372.571	1799.569
422.628	142.985	1454.507	1799.669
