DTS Sentinel unit serial number:	SN413079Multiplexer serial number:	ORYXHardware model number:	OX4-SRSoftware version number:	ORYX F/W v4.00 Oryx Data Collector v3.7.2.0data status	okinstallation	princeton_trtdifferential loss correction	single-endedforward channel	channel 1reverse channel	N/Adate	2019/09/19time	11:18:35forward acquisition time	60.00reverse acquisition time	0.00gamma	496.2192k internal	0.2338k external	0.2338temperature offset calibration	1.0010default loss term (dB/km)	0.3790temperature slope calibration	1.0000multiplexer offset coefficient	1.0000multiplexer slope coefficient	1.0000fibre end	0.00T internal ref (°C)	25.19T ext. ref 1 (°C)	0.79T ext. ref 2 (°C)	20.83length (m)	temperature (°C)	Stokes	anti-Stokes-747.200	190.700	-0.086	0.130
-746.185	92.684	-0.293	0.332
-745.171	800.000	-0.056	0.226
-744.156	683.144	-0.059	0.155
-743.142	-200.000	0.066	0.314
-742.127	-15.285	-0.135	0.087
-741.112	-109.137	-0.422	0.090
-740.098	366.348	0.096	0.194
-739.083	-111.115	0.296	0.061
-738.069	-89.984	-0.376	0.110
-737.054	-49.569	0.079	0.038
-736.039	-200.000	-0.000	-0.112
-735.025	162.523	0.062	0.088
-734.010	-200.000	0.064	-0.375
-732.996	303.093	-0.096	0.178
-731.981	216.426	-0.152	-0.242
-730.966	557.883	-0.101	-0.244
-729.952	-154.623	0.081	0.005
-728.937	-70.471	0.142	0.054
-727.923	-200.000	-0.017	-0.452
-726.908	87.419	-0.207	-0.230
-725.894	595.930	0.072	0.178
-724.879	-200.000	-0.001	-0.050
-723.864	35.290	0.162	-0.143
-722.850	-200.000	0.049	-0.361
-721.835	616.112	0.111	-0.279
-720.821	43.845	0.205	-0.188
-719.806	294.501	-0.147	-0.269
-718.791	387.865	-0.108	-0.225
-717.777	800.000	0.051	-0.192
-716.762	-102.836	-0.119	0.028
-715.748	-200.000	0.037	-0.270
-714.733	-81.258	-0.069	0.023
-713.718	7.577	0.331	-0.248
-712.704	-104.265	-0.251	-0.058
-711.689	-60.374	0.174	-0.074
-710.675	-200.000	0.024	0.142
-709.660	-200.000	0.079	0.359
-708.645	-32.097	-0.096	0.054
-707.631	1.286	0.194	-0.140
-706.616	-124.793	-0.131	-0.020
-705.602	-200.000	0.047	0.000
-704.587	800.000	-0.057	0.192
-703.572	800.000	-0.034	0.120
-702.558	451.085	0.043	0.095
-701.543	-200.000	-0.000	-0.013
-700.529	-31.998	0.182	-0.102
-699.514	800.000	-0.023	-0.069
-698.499	30.290	-0.144	0.123
-697.485	-200.000	-0.025	-0.191
-696.470	261.453	-0.034	-0.059
-695.456	118.552	-0.157	0.194
-694.441	-93.650	-0.253	0.070
-693.426	-52.768	-0.254	0.117
-692.412	439.969	-0.118	0.258
-691.397	-200.000	0.035	-0.166
-690.383	-22.932	0.225	-0.136
-689.368	123.881	0.240	-0.302
-688.354	-96.820	-0.076	0.020
-687.339	-116.154	-0.063	-0.012
-686.324	-8.751	-0.180	-0.121
-685.310	137.003	-0.062	0.081
-684.295	149.956	-0.142	-0.193
-683.281	-38.103	-0.485	-0.258
-682.266	-54.395	-0.208	0.094
-681.251	-123.138	-0.247	-0.040
-680.237	800.000	0.038	0.159
-679.222	81.637	-0.318	-0.344
-678.208	-200.000	0.021	-0.221
-677.193	66.551	0.278	-0.283
-676.178	80.025	-0.172	0.185
-675.164	52.852	-0.116	-0.111
-674.149	-122.639	-0.344	0.056
-673.135	61.296	-0.139	0.138
-672.120	756.112	-0.099	-0.269
-671.105	-124.737	0.307	-0.048
-670.091	-138.152	0.184	-0.020
-669.076	-128.169	-0.179	0.026
-668.062	2.563	0.197	0.142
-667.047	44.161	0.131	0.120
-666.032	-200.000	-0.004	-0.190
-665.018	87.007	0.298	-0.329
-664.003	-35.142	0.206	-0.112
-662.989	714.059	0.075	0.199
-661.974	217.623	0.070	-0.112
-660.959	-37.295	-0.144	-0.077
-659.945	-200.000	0.007	0.241
-658.930	-33.314	0.179	0.099
-657.916	81.471	0.082	-0.089
-656.901	-200.000	-0.025	0.264
-655.886	-146.676	-0.181	-0.016
-654.872	-59.276	-0.165	-0.071
-653.857	800.000	0.010	0.031
-652.843	-200.000	-0.007	0.249
-651.828	77.418	0.196	-0.208
-650.814	-164.250	-0.285	-0.013
-649.799	555.946	-0.277	0.667
-648.784	387.487	0.065	0.134
-647.770	-120.975	-0.228	-0.038
-646.755	768.504	0.080	0.218
-645.741	-17.708	-0.182	-0.114
-644.726	-200.000	0.030	0.259
-643.711	-33.536	-0.271	0.149
-642.697	-83.068	0.333	-0.107
-641.682	-200.000	-0.071	-0.372
-640.668	-133.590	0.163	-0.020
-639.653	-109.980	-0.338	0.071
-638.638	800.000	-0.106	0.349
-637.624	-200.000	-0.002	0.054
-636.609	800.000	-0.045	-0.192
-635.595	393.557	-0.140	-0.292
-634.580	800.000	0.031	-0.127
-633.565	-156.998	-0.210	0.013
-632.551	-62.440	-0.309	0.128
-631.536	-135.685	-0.345	0.041
-630.522	-144.057	0.362	0.034
-629.507	-200.000	-0.027	0.146
-628.492	304.431	0.035	-0.064
-627.478	432.612	0.157	-0.341
-626.463	-62.666	-0.179	-0.074
-625.449	-47.124	-0.082	-0.040
-624.434	121.761	0.032	-0.039
-623.419	-47.407	0.278	-0.135
-622.405	417.222	0.079	-0.169
-621.390	40.969	-0.165	0.149
-620.376	-200.000	-0.004	0.170
-619.361	-200.000	-0.006	-0.282
-618.346	-200.000	0.002	-0.289
-617.332	-110.415	0.152	-0.032
-616.317	480.814	-0.078	0.176
-615.303	800.000	0.064	-0.185
-614.288	361.661	-0.147	0.295
-613.273	126.065	0.158	0.199
-612.259	-200.000	-0.016	0.203
-611.244	-200.000	0.071	-0.414
-610.230	144.685	0.080	0.107
-609.215	-200.000	-0.074	0.000
-608.201	-200.000	0.033	-0.272
-607.186	-123.148	-0.203	0.032
-606.171	-9.240	-0.127	0.085
-605.157	-94.515	0.070	-0.019
-604.142	-49.209	-0.174	-0.083
-603.128	23.906	-0.230	-0.189
-602.113	530.228	0.046	-0.108
-601.098	-126.885	-0.352	0.052
-600.084	57.496	-0.166	0.162
-599.069	394.809	0.036	-0.076
-598.055	-146.376	-0.015	0.001
-597.040	-200.000	-0.058	0.257
-596.025	56.360	-0.173	-0.168
-595.011	-200.000	0.006	-0.073
-593.996	-79.220	-0.405	0.137
-592.982	-168.118	0.045	-0.002
-591.967	-93.226	0.257	-0.071
-590.952	-3.482	0.051	0.035
-589.938	800.000	0.035	-0.119
-588.923	-145.925	-0.370	0.033
-587.909	-82.166	-0.441	-0.143
-586.894	-200.000	0.014	-0.079
-585.879	-58.828	0.204	-0.088
-584.865	-59.470	0.188	-0.081
-583.850	74.564	-0.051	-0.053
-582.836	-136.525	0.060	-0.007
-581.821	-142.912	-0.197	-0.019
-580.806	-13.127	0.260	0.169
-579.792	51.622	-0.255	-0.242
-578.777	-200.000	-0.003	0.257
-577.763	49.431	0.232	0.218
-576.748	18.231	-0.326	-0.260
-575.733	67.786	-0.020	-0.021
-574.719	-50.801	0.051	-0.024
-573.704	800.000	-0.096	-0.292
-572.690	292.971	-0.043	-0.078
-571.675	-200.000	-0.011	-0.138
-570.661	53.441	-0.088	0.084
-569.646	57.999	0.277	-0.270
-568.631	765.662	0.096	-0.259
-567.617	-111.192	0.074	0.015
-566.602	-83.191	-0.208	-0.067
-565.588	-200.000	-0.058	-0.313
-564.573	-80.441	-0.274	0.091
-563.558	-32.744	-0.336	0.186
-562.544	-135.564	-0.191	0.023
-561.529	-167.121	-0.101	0.004
-560.515	-200.000	0.000	0.175
-559.500	191.857	0.134	-0.201
-558.485	-169.214	-0.227	0.008
-557.471	-30.821	-0.242	-0.136
-556.456	36.917	0.108	-0.095
-555.442	119.843	0.231	0.285
-554.427	-200.000	0.055	0.270
-553.412	-200.000	0.036	0.190
-552.398	493.553	0.073	-0.166
-551.383	-160.835	0.298	0.016
-550.369	354.458	-0.119	0.236
-549.354	-200.000	-0.007	0.474
-548.339	142.014	-0.140	-0.184
-547.325	311.385	0.212	-0.396
-546.310	-52.354	0.109	-0.050
-545.296	171.306	0.181	-0.258
-544.281	-196.215	0.330	0.002
-543.266	65.723	0.154	-0.156
-542.252	-29.473	0.157	0.089
-541.237	54.165	-0.065	-0.062
-540.223	122.578	0.173	-0.215
-539.208	-200.000	-0.053	-0.363
-538.193	800.000	-0.048	0.145
-537.179	-200.000	0.007	-0.058
-536.164	37.273	-0.221	-0.195
-535.150	-66.930	0.193	0.076
-534.135	800.000	0.025	0.077
-533.121	-114.643	-0.207	-0.039
-532.106	-99.729	0.070	0.018
-531.091	284.246	0.083	-0.148
-530.077	-65.532	0.144	0.058
-529.062	-37.123	0.181	-0.096
-528.048	60.520	-0.042	0.042
-527.033	-96.728	0.287	0.075
-526.018	-136.140	0.186	0.022
-525.004	15.650	-0.089	0.070
-523.989	63.662	-0.024	0.024
-522.975	180.730	-0.142	0.208
-521.960	110.942	-0.103	0.123
-520.945	49.782	0.228	0.213
-519.931	114.785	-0.139	0.169
-518.916	199.807	-0.200	-0.306
-517.902	-200.000	-0.010	-0.106
-516.887	-38.068	0.377	0.199
-515.872	-200.000	-0.014	0.064
-514.858	-49.195	-0.164	0.078
-513.843	-53.921	-0.404	0.183
-512.829	173.963	-0.131	0.188
-511.814	-9.379	0.151	0.100
-510.799	-108.487	0.311	0.067
-509.785	-200.000	-0.012	-0.105
-508.770	-65.063	0.274	-0.110
-507.756	-61.965	-0.396	-0.165
-506.741	119.994	0.183	-0.226
-505.726	-3.843	-0.271	-0.187
-504.712	-200.000	-0.001	0.169
-503.697	5.512	0.049	0.036
-502.683	39.808	0.128	-0.114
-501.668	-119.015	-0.177	-0.031
-500.653	742.214	-0.046	0.123
-499.639	-200.000	0.001	-0.079
-498.624	29.766	0.028	0.023
-497.610	-200.000	0.000	-0.074
-496.595	-68.850	-0.225	-0.086
-495.581	-46.191	-0.069	-0.034
-494.566	-200.000	0.015	0.247
-493.551	100.997	-0.256	0.296
-492.537	-200.000	-0.068	-0.468
-491.522	-200.000	0.029	0.179
-490.508	-190.877	-0.403	-0.004
-489.493	210.256	0.059	-0.093
-488.478	-200.000	-0.014	0.099
-487.464	12.735	-0.281	-0.215
-486.449	132.779	0.192	-0.246
-485.435	25.643	-0.081	-0.067
-484.420	148.589	0.172	-0.231
-483.405	-108.356	-0.374	0.080
-482.391	-200.000	0.026	0.355
-481.376	78.073	0.135	-0.143
-480.362	-49.265	0.133	0.063
-479.347	-110.679	-0.194	0.040
-478.332	-200.000	-0.035	0.246
-477.318	-200.000	-0.064	0.363
-476.303	800.000	0.026	-0.074
-475.289	-41.305	0.203	0.104
-474.274	-12.205	-0.086	-0.056
-473.259	713.955	-0.077	-0.201
-472.245	-25.769	-0.088	-0.051
-471.230	36.381	-0.246	-0.215
-470.216	-200.000	-0.002	0.199
-469.201	-166.047	0.139	-0.006
-468.186	47.551	0.133	0.123
-467.172	117.280	0.104	-0.127
-466.157	674.320	-0.129	0.332
-465.143	244.776	-0.094	0.157
-464.128	-200.000	0.021	0.104
-463.113	-2.905	0.230	0.160
-462.099	170.765	0.223	-0.317
-461.084	668.374	0.084	-0.215
-460.070	-70.763	-0.053	-0.020
-459.055	800.000	-0.054	-0.180
-458.040	-200.000	0.005	-0.034
-457.026	61.388	0.163	-0.161
-456.011	-29.344	-0.290	0.165
-454.997	249.861	-0.058	0.097
-453.982	216.342	-0.167	0.263
-452.968	-68.362	0.358	0.138
-451.953	-200.000	-0.053	0.254
-450.938	-5.450	-0.076	-0.052
-449.924	178.279	0.080	-0.116
-448.909	-18.624	0.200	-0.124
-447.895	-53.981	-0.278	-0.126
-446.880	88.264	-0.241	-0.265
-445.865	135.895	-0.047	-0.060
-444.851	-155.054	-0.113	0.007
-443.836	-200.000	0.024	-0.130
-442.822	800.000	0.037	0.158
-441.807	-200.000	0.013	-0.064
-440.792	230.317	-0.139	0.226
-439.778	318.505	0.072	-0.135
-438.763	89.034	0.313	0.345
-437.749	-64.354	-0.105	-0.043
-436.734	-16.019	-0.139	-0.088
-435.719	-88.590	0.166	0.049
-434.705	27.806	0.195	-0.163
-433.690	-200.000	0.021	-0.221
-432.676	-164.623	-0.262	0.012
-431.661	266.470	-0.085	-0.148
-430.646	-72.835	-0.051	-0.019
-429.632	224.581	0.246	0.395
-428.617	-54.424	0.218	0.098
-427.603	0.527	0.381	0.270
-426.588	800.000	-0.128	0.399
-425.573	-200.000	-0.021	0.245
-424.559	-89.042	0.213	0.062
-423.544	204.732	-0.083	0.128
-422.530	216.544	-0.079	0.125
-421.515	-200.000	-0.011	-0.066
-420.500	-108.485	0.381	0.081
-419.486	58.998	-0.148	-0.145
-418.471	86.259	0.243	0.265
-417.457	800.000	-0.101	0.280
-416.442	-200.000	0.033	-0.325
-415.428	410.798	0.079	-0.166
-414.413	-200.000	0.012	-0.111
-413.398	-200.000	-0.002	0.340
-412.384	800.000	-0.035	0.102
-411.369	548.322	-0.164	0.390
-410.355	-92.411	0.119	-0.033
-409.340	265.798	0.099	0.172
-408.325	64.947	0.180	-0.180
-407.311	136.821	0.101	0.130
-406.296	-200.000	0.006	-0.036
-405.282	-36.857	0.083	0.044
-404.267	-24.864	0.292	-0.171
-403.252	223.618	0.184	0.294
-402.238	-200.000	0.040	0.180
-401.223	-200.000	0.033	-0.309
-400.209	-200.000	-0.048	-0.221
-399.194	115.437	-0.110	0.133
-398.179	118.832	0.025	0.031
-397.165	-74.624	0.268	-0.095
-396.150	56.612	0.292	0.281
-395.136	110.728	-0.116	-0.138
-394.121	-44.751	-0.047	0.023
-393.106	-200.000	-0.032	0.238
-392.092	-89.723	0.325	-0.094
-391.077	729.777	0.167	-0.441
-390.063	-200.000	-0.001	-0.086
-389.048	551.214	-0.093	-0.221
-388.033	40.792	0.163	-0.145
-387.019	40.440	0.340	-0.303
-386.004	8.183	-0.320	0.238
-384.990	-139.385	-0.114	0.012
-383.975	21.544	0.136	0.110
-382.960	2.539	-0.075	0.053
-381.946	800.000	-0.091	0.338
-380.931	136.642	0.154	0.199
-379.917	127.864	-0.237	-0.298
-378.902	27.566	-0.248	-0.207
-377.888	-48.685	0.219	-0.104
-376.873	495.909	0.114	0.259
-375.858	-200.000	0.327	-0.000
-374.844	800.000	-0.044	0.127
-373.829	-12.386	-0.258	-0.167
-372.815	293.759	-0.075	0.135
-371.800	-200.000	-0.024	0.371
-370.785	-200.000	-0.001	-0.072
-369.771	6.581	-0.259	0.190
-368.756	-183.488	-0.214	0.004
-367.742	64.872	0.320	-0.320
-366.727	800.000	0.012	-0.049
-365.712	-53.913	0.126	-0.057
-364.698	93.400	0.161	-0.180
-363.683	290.299	-0.074	0.133
-362.669	257.223	-0.054	-0.093
-361.654	87.690	-0.126	0.138
-360.639	-200.000	-0.184	0.000
-359.625	-105.963	0.265	-0.059
-358.610	-24.749	-0.335	0.197
-357.596	148.475	-0.183	0.245
-356.581	-57.700	-0.206	-0.089
-355.566	100.685	-0.247	-0.284
-354.552	-151.903	-0.254	0.018
-353.537	292.831	-0.027	-0.048
-352.523	-147.258	-0.163	-0.014
-351.508	-200.000	0.074	0.329
-350.493	301.487	-0.091	0.166
-349.479	88.457	-0.099	0.108
-348.464	-127.111	-0.279	0.040
-347.450	-200.000	0.008	0.238
-346.435	800.000	-0.030	0.107
-345.420	262.045	0.145	0.249
-344.406	-75.417	-0.126	-0.044
-343.391	-62.981	-0.117	0.048
-342.377	-105.443	-0.170	0.038
-341.362	122.528	0.122	0.150
-340.348	171.474	0.126	0.179
-339.333	800.000	-0.087	0.306
-338.318	-29.663	0.108	-0.061
-337.304	-57.792	-0.134	-0.058
-336.289	-100.166	0.292	0.072
-335.275	-54.215	0.153	-0.069
-334.260	-132.752	0.129	0.016
-333.245	129.958	-0.105	-0.133
-332.231	95.423	-0.068	0.077
-331.216	194.022	-0.055	-0.083
-330.202	689.569	-0.070	0.181
-329.187	33.440	0.251	-0.215
-328.172	35.392	0.201	0.174
-327.158	-121.900	-0.261	0.043
-326.143	800.000	0.082	0.276
-325.129	-95.297	0.180	-0.048
-324.114	-103.751	0.362	0.084
-323.099	174.929	-0.018	0.025
-322.085	97.787	-0.072	-0.082
-321.070	-200.000	-0.025	0.141
-320.056	84.941	-0.158	0.171
-319.041	-100.704	0.206	-0.050
-318.026	104.245	-0.286	0.333
-317.012	-79.818	-0.057	0.019
-315.997	78.207	0.215	-0.227
-314.983	-34.756	-0.177	-0.095
-313.968	128.998	0.173	0.218
-312.953	800.000	-0.159	0.556
-311.939	681.469	0.027	0.070
-310.924	-101.019	0.265	0.064
-309.910	-27.696	-0.356	-0.204
-308.895	304.361	0.070	-0.129
-307.880	-83.757	0.284	-0.089
-306.866	-200.000	0.024	-0.139
-305.851	188.832	0.084	0.124
-304.837	-84.119	0.177	-0.055
-303.822	-22.395	-0.231	0.138
-302.807	-23.052	-0.193	-0.115
-301.793	-200.000	0.037	0.181
-300.778	-200.000	-0.011	-0.110
-299.764	14.433	-0.211	0.162
-298.749	2.460	0.273	0.195
-297.735	-200.000	-0.035	-0.288
-296.720	-110.215	-0.130	0.027
-295.705	-88.080	0.172	-0.051
-294.691	145.363	0.217	-0.286
-293.676	-200.000	0.055	-0.558
-292.662	800.000	0.085	0.306
-291.647	19.166	-0.278	-0.220
-290.632	-170.126	-0.163	0.006
-289.618	140.390	-0.239	0.310
-288.603	-81.237	0.236	0.077
-287.589	125.210	-0.106	0.132
-286.574	800.000	-0.034	-0.108
-285.559	-200.000	-0.005	-0.131
-284.545	296.915	0.275	-0.497
-283.530	146.575	-0.134	0.178
-282.516	-200.000	-0.045	-0.295
-281.501	800.000	-0.088	-0.341
-280.486	148.823	-0.135	-0.180
-279.472	-121.617	0.168	0.027
-278.457	-127.540	0.212	-0.030
-277.443	96.508	-0.267	0.301
-276.428	-181.320	0.148	0.003
-275.413	800.000	-0.081	-0.257
-274.399	800.000	-0.089	-0.266
-273.384	460.346	0.147	-0.323
-272.370	-93.174	0.280	0.077
-271.355	-131.070	0.164	0.021
-270.340	410.905	-0.077	-0.162
-269.326	800.000	-0.127	-0.407
-268.311	-84.595	-0.062	-0.019
-267.297	-30.234	0.256	-0.143
-266.282	131.877	0.300	-0.381
-265.267	800.000	0.078	0.333
-264.253	-200.000	0.006	0.218
-263.238	-141.590	-0.243	0.024
-262.224	-200.000	-0.013	-0.421
-261.209	-25.547	0.182	-0.106
-260.195	-92.787	0.326	-0.090
-259.180	800.000	-0.022	-0.060
-258.165	378.278	0.101	-0.204
-257.151	43.727	0.156	0.140
-256.136	800.000	0.067	-0.247
-255.122	222.183	-0.062	-0.099
-254.107	-75.138	-0.078	-0.028
-253.092	800.000	0.037	0.144
-252.078	-23.293	0.103	0.061
-251.063	52.925	-0.214	0.202
-250.049	-80.467	0.183	0.060
-249.034	328.534	-0.145	0.274
-248.019	89.500	-0.194	0.213
-247.005	-125.406	0.076	-0.011
-245.990	-120.074	-0.312	-0.053
-244.976	-135.620	-0.102	-0.012
-243.961	800.000	-0.105	0.369
-242.946	787.269	0.106	-0.287
-241.932	-200.000	0.037	-0.491
-240.917	-200.000	0.287	0.000
-239.903	-103.262	0.243	-0.057
-238.888	-100.987	-0.106	0.025
-237.873	-200.000	-0.059	0.343
-236.859	-200.000	0.034	-0.373
-235.844	-167.018	0.099	-0.004
-234.830	800.000	0.055	-0.210
-233.815	-142.127	0.114	-0.011
-232.800	46.387	-0.114	-0.104
-231.786	123.355	-0.087	-0.107
-230.771	800.000	-0.039	0.153
-229.757	-118.653	-0.106	0.018
-228.742	44.886	-0.252	-0.228
-227.727	110.854	0.111	0.131
-226.713	-185.635	0.026	0.000
-225.698	-12.591	0.201	0.129
-224.684	-200.000	0.005	0.041
-223.669	-55.605	0.047	0.021
-222.655	-200.000	0.024	-0.202
-221.640	157.830	-0.137	-0.187
-220.625	-37.990	-0.189	0.099
-219.611	-33.460	-0.200	-0.109
-218.596	153.235	0.091	0.122
-217.582	-104.516	0.141	-0.032
-216.567	408.681	-0.111	0.231
-215.552	-200.000	-0.005	-0.135
-214.538	192.242	0.132	0.196
-213.523	-63.114	0.208	-0.084
-212.509	-185.427	0.152	-0.002
-211.494	-3.087	0.016	-0.011
-210.479	800.000	0.048	0.160
-209.465	-136.776	-0.471	-0.053
-208.450	405.366	0.193	-0.400
-207.436	160.387	0.065	0.089
-206.421	74.883	0.296	-0.306
-205.406	-200.000	-0.031	-0.204
-204.392	58.536	-0.265	-0.255
-203.377	-76.080	0.121	-0.042
-202.363	244.712	-0.129	0.212
-201.348	-61.846	0.246	0.101
-200.333	-200.000	-0.024	-0.118
-199.319	-58.138	-0.099	-0.043
-198.304	-77.871	-0.210	-0.071
-197.290	53.849	-0.195	-0.184
-196.275	-68.499	0.277	0.106
-195.260	-200.000	-0.025	-0.192
-194.246	800.000	-0.056	-0.202
-193.231	-149.352	0.073	0.006
-192.217	79.197	0.134	0.141
-191.202	510.300	0.071	0.162
-190.187	79.837	-0.315	-0.332
-189.173	-133.315	0.282	0.035
-188.158	-200.000	0.036	0.286
-187.144	-20.164	-0.238	0.144
-186.129	-129.348	0.398	-0.054
-185.114	-96.537	0.090	-0.023
-184.100	125.043	-0.120	-0.148
-183.085	-101.666	-0.352	0.084
-182.071	800.000	0.061	0.169
-181.056	-200.000	0.031	0.328
-180.042	384.797	0.078	0.158
-179.027	472.638	0.034	-0.076
-178.012	657.363	-0.033	0.084
-176.998	477.836	0.044	0.097
-175.983	-8.290	0.173	0.114
-174.969	-15.203	0.100	-0.063
-173.954	-11.794	-0.147	-0.095
-172.939	118.446	0.172	0.209
-171.925	546.968	0.162	-0.381
-170.910	774.171	-0.076	-0.204
-169.896	-200.000	0.007	-0.286
-168.881	-95.892	0.169	0.044
-167.866	-104.390	0.056	-0.013
-166.852	-174.609	-0.400	0.011
-165.837	64.514	-0.125	-0.123
-164.823	-200.000	-0.022	-0.194
-163.808	247.314	0.149	-0.247
-162.793	44.664	-0.246	0.222
-161.779	-140.377	-0.134	0.014
-160.764	246.436	-0.133	0.220
-159.750	-87.417	-0.223	0.066
-158.735	-140.041	0.357	0.037
-157.720	-21.172	0.169	0.101
-156.706	-19.379	0.261	0.159
-155.691	183.031	0.139	0.201
-154.677	196.539	0.254	0.379
-153.662	-162.197	0.252	-0.012
-152.647	43.248	0.329	0.295
-151.633	-65.793	-0.152	0.059
-150.618	27.158	0.106	-0.087
-149.604	659.740	0.106	0.268
-148.589	800.000	0.080	-0.255
-147.574	153.684	0.252	-0.339
-146.560	-193.159	-0.194	0.002
-145.545	-176.373	0.213	0.005
-144.531	-107.422	-0.254	0.055
-143.516	800.000	-0.102	-0.288
-142.502	99.496	-0.134	0.152
-141.487	207.259	0.153	-0.233
-140.472	243.086	0.054	0.088
-139.458	-25.026	-0.259	-0.150
-138.443	-56.447	-0.355	-0.154
-137.429	-99.986	0.121	0.029
-136.414	-200.000	0.044	0.307
-135.399	-200.000	-0.059	-0.353
-134.385	0.331	-0.246	0.172
-133.370	301.986	0.063	-0.114
-132.356	231.594	-0.199	0.319
-131.341	-61.725	0.093	-0.038
-130.326	-32.681	0.220	0.120
-129.312	-112.845	0.161	0.031
-128.297	332.183	0.106	0.200
-127.283	-91.636	-0.180	-0.050
-126.268	5.516	-0.254	-0.184
-125.253	-27.586	-0.148	-0.084
-124.239	-200.000	0.015	-0.106
-123.224	-97.471	0.307	-0.078
-122.210	-200.000	0.028	-0.357
-121.195	-72.879	0.422	0.152
-120.180	-125.161	-0.059	-0.009
-119.166	800.000	-0.075	-0.258
-118.151	53.635	0.348	-0.327
-117.137	-151.970	0.363	0.026
-116.122	4.657	0.396	0.285
-115.107	-26.137	-0.150	-0.086
-114.093	69.403	0.131	0.132
-113.078	-200.000	0.005	0.532
-112.064	-140.660	0.187	-0.019
-111.049	420.555	0.150	-0.315
-110.034	288.707	0.051	-0.090
-109.020	16.047	-0.161	0.124
-108.005	127.835	-0.221	0.275
-106.991	-109.690	0.098	0.020
-105.976	570.488	-0.011	-0.026
-104.962	-66.114	0.335	-0.131
-103.947	53.814	0.089	-0.084
-102.932	-49.996	0.306	0.142
-101.918	1.920	-0.489	0.345
-100.903	47.423	0.121	-0.111
-99.889	-131.480	0.212	0.027
-98.874	318.716	-0.127	-0.236
-97.859	138.981	-0.168	-0.216
-96.845	-200.000	-0.005	-0.200
-95.830	-200.000	0.014	0.069
-94.816	-200.000	0.037	0.298
-93.801	-38.710	-0.246	-0.127
-92.786	280.643	-0.103	0.179
-91.772	-150.663	-0.352	-0.026
-90.757	253.711	-0.069	-0.115
-89.743	-49.513	0.164	-0.077
-88.728	75.913	-0.197	-0.204
-87.713	363.132	0.196	-0.384
-86.699	466.380	-0.015	-0.032
-85.684	-39.784	-0.102	0.052
-84.670	60.527	0.141	-0.136
-83.655	-200.000	0.025	-0.260
-82.640	212.701	-0.021	-0.033
-81.626	800.000	0.104	0.330
-80.611	497.782	0.018	0.040
-79.597	-161.265	0.136	0.007
-78.582	-77.746	-0.203	-0.069
-77.567	-78.461	0.206	0.069
-76.553	-34.717	0.130	-0.070
-75.538	-131.113	0.214	-0.028
-74.524	-200.000	0.051	0.428
-73.509	263.226	-0.108	0.183
-72.494	-200.000	0.002	-0.221
-71.480	354.431	0.113	0.219
-70.465	-45.166	0.285	-0.138
-69.451	-120.227	0.256	-0.043
-68.436	-158.797	0.212	0.012
-67.422	-167.227	0.144	0.006
-66.407	182.719	-0.054	-0.078
-65.392	-200.000	0.005	-0.375
-64.378	61.444	-0.201	-0.196
-63.363	198.955	0.218	0.326
-62.349	-59.905	0.111	0.046
-61.334	119.519	-0.867	-1.049
-60.319	218.292	0.408	0.636
-59.305	600.409	-0.298	-0.722
-58.290	220.759	0.853	1.337
-57.276	-200.000	0.363	1.556
-56.261	-200.000	120.608	620.892
-55.246	387.450	1578.873	3188.456
-54.232	138.866	2753.732	3534.375
-53.217	96.597	2189.712	2448.873
-52.203	36.780	1615.951	1394.764
-51.188	28.496	1355.779	1119.821
-50.173	25.714	1316.974	1071.196
-49.159	51.284	1381.112	1280.368
-48.144	49.450	1393.766	1280.860
-47.130	28.632	1344.314	1111.000
-46.115	25.315	1325.885	1075.884
-45.100	25.082	1320.886	1070.394
-44.086	24.998	1318.428	1067.859
-43.071	24.987	1316.022	1065.798
-42.057	25.171	1313.295	1064.641
-41.042	25.053	1312.090	1062.925
-40.027	25.007	1310.783	1061.551
-39.013	25.029	1308.959	1060.163
-37.998	25.135	1306.703	1058.916
-36.984	25.161	1305.371	1057.951
-35.969	25.137	1303.707	1056.418
-34.954	25.284	1301.720	1055.633
-33.940	25.247	1300.639	1054.494
-32.925	25.216	1298.882	1052.847
-31.911	25.269	1297.278	1051.817
-30.896	25.246	1296.204	1050.766
-29.881	25.252	1295.049	1049.824
-28.867	25.198	1293.989	1048.607
-27.852	25.244	1292.375	1047.527
-26.838	25.260	1290.927	1046.403
-25.823	25.418	1288.832	1045.582
-24.809	25.269	1288.094	1044.078
-23.794	25.335	1286.643	1043.244
-22.779	25.273	1285.235	1041.704
-21.765	25.277	1284.174	1040.821
-20.750	25.207	1282.757	1039.230
-19.736	25.119	1281.798	1037.900
-18.721	25.139	1280.057	1036.567
-17.706	25.104	1278.669	1035.199
-16.692	25.176	1277.587	1034.696
-15.677	25.270	1276.375	1034.215
-14.663	25.120	1275.528	1032.622
-13.648	25.172	1274.306	1031.894
-12.633	25.117	1273.577	1030.948
-11.619	25.076	1273.416	1030.541
-10.604	25.241	1271.511	1029.903
-9.590	25.067	1270.652	1028.167
-8.575	25.180	1269.472	1027.820
-7.560	25.108	1268.903	1026.908
-6.546	25.152	1267.824	1026.243
-5.531	25.090	1266.798	1025.019
-4.517	25.127	1265.996	1024.540
-3.502	25.172	1265.121	1024.048
-2.487	25.121	1264.610	1023.301
-1.473	25.121	1260.508	1019.944
-0.458	23.831	1245.359	1000.393
0.556	19.565	1230.018	964.748
1.571	15.991	1237.617	950.498
2.586	15.192	1252.878	957.568
3.600	14.844	1241.043	946.469
4.615	11.131	1167.336	870.367
5.629	4.125	1095.143	781.243
6.644	1.009	1076.891	752.687
7.659	0.780	1075.257	750.341
8.673	0.701	1074.047	749.037
9.688	0.651	1073.416	748.284
10.702	0.930	1071.079	747.966
11.717	5.063	1075.650	771.571
12.731	11.840	1084.896	811.846
13.746	16.200	1089.965	837.250
14.761	17.183	1090.850	842.730
15.775	16.546	1089.324	838.323
16.790	15.663	1087.572	832.531
17.804	14.903	1085.850	827.379
18.819	14.562	1084.285	824.427
19.834	14.326	1084.037	823.000
20.848	14.000	1082.808	820.383
21.863	13.925	1082.148	819.442
22.877	13.706	1081.301	817.646
23.892	13.648	1080.043	816.340
24.907	13.614	1079.990	816.060
25.921	13.612	1079.123	815.322
26.936	13.668	1078.128	814.773
27.950	13.666	1077.251	814.027
28.965	13.890	1075.630	813.830
29.980	13.688	1074.741	812.094
30.994	13.783	1073.666	811.676
32.009	13.882	1072.582	811.269
33.023	13.887	1071.479	810.386
34.038	13.757	1070.534	808.967
35.053	13.879	1069.586	808.774
36.067	13.794	1068.405	807.397
37.082	13.845	1067.639	806.995
38.096	13.860	1067.207	806.670
39.111	13.608	1066.831	805.088
40.126	13.677	1065.479	804.332
41.140	13.589	1064.029	802.738
42.155	13.632	1062.853	801.991
43.169	13.597	1062.069	801.158
44.184	13.564	1060.810	799.976
45.199	13.768	1059.648	800.016
46.213	13.694	1058.884	799.008
47.228	13.702	1057.662	798.056
48.242	13.768	1056.683	797.562
49.257	13.649	1056.021	796.420
50.271	13.761	1054.742	795.927
51.286	13.865	1053.773	795.623
52.301	13.667	1052.730	793.815
53.315	13.707	1051.770	793.215
54.330	13.789	1050.694	792.722
55.344	13.675	1050.088	791.652
56.359	13.730	1048.988	791.012
57.374	13.735	1047.734	790.024
58.388	13.686	1047.272	789.373
59.403	13.525	1046.421	787.892
60.417	13.607	1045.466	787.494
61.432	13.659	1044.601	787.021
62.447	13.531	1043.978	785.873
63.461	13.566	1043.138	785.338
64.476	13.543	1042.153	784.420
65.490	13.529	1041.613	783.879
66.505	13.663	1040.647	783.714
67.520	13.622	1039.722	782.756
68.534	13.624	1039.475	782.508
69.549	13.604	1038.856	781.877
70.563	13.678	1037.417	781.077
71.578	13.543	1036.998	780.054
72.593	13.553	1035.826	779.152
73.607	13.494	1035.953	778.899
74.622	13.547	1035.124	778.458
75.636	13.601	1034.046	777.829
76.651	13.560	1033.353	777.047
77.666	13.583	1032.417	776.384
78.680	13.551	1031.909	775.784
79.695	13.514	1031.258	775.052
80.709	13.578	1030.835	774.964
81.724	13.586	1029.994	774.303
82.739	13.803	1028.510	774.131
83.753	13.807	1027.995	773.691
84.768	13.736	1027.193	772.688
85.782	13.809	1026.147	772.172
86.797	13.768	1025.016	771.062
87.812	13.771	1024.311	770.480
88.826	13.628	1023.231	768.936
89.841	13.731	1022.310	768.652
90.855	13.812	1021.194	768.121
91.870	13.794	1020.566	767.498
92.884	13.813	1019.748	766.902
93.899	13.784	1019.104	766.215
94.914	13.823	1018.030	765.520
95.928	13.867	1017.357	765.151
96.943	13.906	1016.253	764.433
97.957	13.890	1015.472	763.702
98.972	13.780	1014.785	762.614
99.987	13.767	1013.760	761.714
101.001	13.837	1012.442	760.977
102.016	13.783	1011.578	760.014
103.030	13.813	1011.152	759.766
104.045	13.857	1010.527	759.428
105.060	13.792	1009.509	758.299
106.074	13.750	1008.708	757.437
107.089	13.790	1007.418	756.585
108.103	13.668	1006.772	755.476
109.118	13.693	1005.768	754.771
110.133	13.613	1005.430	754.086
111.147	13.742	1003.895	753.457
112.162	13.699	1003.168	752.648
113.176	13.836	1002.000	752.326
114.191	13.704	1001.804	751.511
115.206	13.665	1000.998	750.664
116.220	13.826	999.900	750.502
117.235	13.795	998.810	749.481
118.249	13.809	998.098	748.942
119.264	13.804	997.336	748.283
120.279	13.844	996.283	747.606
121.293	13.830	995.360	746.782
122.308	13.723	994.728	745.761
123.322	13.704	993.802	744.916
124.337	13.750	993.018	744.471
125.352	13.775	991.635	743.479
126.366	13.765	990.563	742.566
127.381	13.653	989.642	741.305
128.395	13.790	988.835	741.248
129.410	13.699	988.160	740.272
130.424	13.802	986.984	739.784
131.439	13.834	986.484	739.488
132.454	13.858	985.220	738.580
133.468	13.677	984.913	737.481
134.483	13.801	984.096	737.353
135.497	13.838	982.787	736.472
136.512	13.757	981.830	735.331
137.527	13.722	981.233	734.665
138.541	13.820	980.408	734.417
139.556	13.796	979.799	733.790
140.570	13.832	979.419	733.598
141.585	13.914	978.030	732.854
142.600	13.970	977.164	732.388
143.614	13.963	976.561	731.839
144.629	13.952	975.724	731.098
145.643	13.955	974.770	730.332
146.658	14.046	973.599	729.791
147.673	13.909	972.533	728.324
148.687	13.894	971.865	727.694
149.702	13.852	971.050	726.839
150.716	13.871	970.596	726.515
151.731	13.877	969.796	725.878
152.746	13.859	969.243	725.323
153.760	13.956	968.493	725.120
154.775	14.018	967.882	724.868
155.789	14.101	966.836	724.383
156.804	14.077	966.349	723.849
157.819	14.117	965.669	723.452
158.833	14.071	965.079	722.743
159.848	14.065	964.183	721.985
160.862	14.144	963.090	721.446
161.877	14.104	962.616	720.853
162.892	14.130	961.592	720.135
163.906	14.117	960.170	718.947
164.921	14.215	959.424	718.752
165.935	14.196	958.616	717.998
166.950	14.241	957.830	717.541
167.964	14.126	956.977	716.344
168.979	14.134	956.253	715.770
169.994	14.273	955.321	715.607
171.008	14.187	954.497	714.560
172.023	14.161	954.105	714.088
173.037	14.164	953.440	713.542
174.052	14.193	952.688	713.040
175.067	14.287	951.969	712.844
176.081	14.160	951.713	712.044
177.096	14.210	951.045	711.696
178.110	14.175	950.008	710.707
179.125	14.206	949.537	710.422
180.140	14.447	948.625	710.707
181.154	14.241	948.455	709.638
182.169	14.370	947.632	709.508
183.183	14.335	947.240	709.005
184.198	14.392	946.651	708.744
185.213	14.341	945.929	707.923
186.227	14.418	945.481	707.852
187.242	14.443	944.517	707.172
188.256	14.538	943.835	707.003
189.271	14.493	942.882	706.036
190.286	14.274	942.690	704.901
191.300	14.257	942.177	704.383
192.315	14.242	941.313	703.613
193.329	14.327	940.687	703.442
194.344	14.473	939.672	703.235
195.359	14.442	939.262	702.737
196.373	14.481	938.120	701.984
197.388	14.447	938.368	701.964
198.402	14.439	937.718	701.380
199.417	14.541	937.197	701.360
200.432	14.608	936.435	701.007
201.446	14.745	935.819	701.060
202.461	14.647	935.500	700.346
203.475	14.603	934.816	699.589
204.490	14.615	934.035	698.991
205.504	14.648	932.877	698.205
206.519	14.671	932.401	697.883
207.534	14.617	931.899	697.220
208.548	14.710	930.884	696.786
209.563	14.672	930.287	696.119
210.577	14.644	929.536	695.379
211.592	14.753	929.003	695.372
212.607	14.823	928.508	695.232
213.621	14.681	927.623	693.917
214.636	14.777	926.804	693.639
215.650	14.915	925.993	693.543
216.665	14.777	925.426	692.488
217.680	14.916	924.452	692.273
218.694	14.866	923.939	691.620
219.709	15.086	923.124	691.857
220.723	14.946	922.584	690.812
221.738	14.913	921.727	689.976
222.753	14.969	921.187	689.741
223.767	15.010	920.496	689.333
224.782	14.978	920.208	688.923
225.796	15.028	919.333	688.413
226.811	14.933	919.230	687.882
227.826	15.123	918.031	687.705
228.840	14.943	917.168	686.261
229.855	14.923	916.293	685.463
230.869	14.921	916.127	685.271
231.884	14.821	915.728	684.501
232.899	14.890	914.347	683.690
233.913	14.949	914.154	683.726
234.928	15.003	913.064	683.071
235.942	15.008	912.594	682.678
236.957	14.969	911.901	681.940
237.972	14.952	911.457	681.479
238.986	15.083	910.461	681.206
240.001	15.032	909.976	680.577
241.015	14.922	909.454	679.681
242.030	15.235	908.573	680.231
243.045	15.096	908.035	679.203
244.059	15.182	907.496	679.092
245.074	15.170	906.635	678.336
246.088	15.046	906.374	677.579
247.103	15.036	905.511	676.834
248.117	15.192	905.338	677.276
249.132	15.336	904.311	677.030
250.147	15.498	903.341	676.895
251.161	15.447	902.666	676.126
252.176	15.471	902.197	675.809
253.190	15.294	901.807	674.747
254.205	15.352	900.982	674.304
255.220	15.429	900.233	673.993
256.234	15.504	899.739	673.864
257.249	15.417	899.214	673.061
258.263	15.506	898.099	672.523
259.278	15.545	897.855	672.439
260.293	15.613	897.122	672.102
261.307	15.637	896.621	671.761
262.322	15.676	895.842	671.275
263.336	15.636	895.282	670.638
264.351	15.597	894.433	669.784
265.366	15.712	893.819	669.726
266.380	15.681	893.142	669.034
267.395	15.602	892.535	668.207
268.409	15.668	891.616	667.722
269.424	15.670	891.149	667.321
270.439	15.777	890.353	667.091
271.453	15.744	889.444	666.221
272.468	15.663	888.768	665.335
273.482	15.618	888.584	664.958
274.497	15.667	887.881	664.567
275.512	15.670	887.572	664.289
276.526	15.748	886.820	663.976
277.541	15.819	886.381	663.866
278.555	15.767	885.663	663.068
279.570	15.923	884.891	663.044
280.585	15.927	883.997	662.331
281.599	15.800	883.496	661.399
282.614	15.940	882.717	661.306
283.628	15.937	882.490	661.065
284.643	15.873	881.638	660.120
285.657	15.924	880.860	659.678
286.672	15.907	880.259	659.103
287.687	15.921	879.864	658.802
288.701	16.056	878.878	658.535
289.716	15.976	878.615	657.965
290.730	15.851	878.129	657.055
291.745	16.127	877.055	657.270
292.760	16.139	876.792	657.063
293.774	16.156	875.919	656.416
294.789	16.092	875.379	655.703
295.803	16.222	874.709	655.649
296.818	16.122	873.706	654.452
297.833	16.197	873.360	654.425
298.847	16.195	872.500	653.714
299.862	16.044	871.950	652.660
300.876	16.271	871.317	653.005
301.891	16.268	871.158	652.819
302.906	16.180	870.423	651.869
303.920	16.227	869.933	651.628
304.935	16.405	869.214	651.716
305.949	16.369	868.626	651.082
306.964	16.326	868.182	650.523
307.979	16.291	867.534	649.846
308.993	16.266	867.054	649.335
310.008	16.415	866.203	649.209
311.022	16.385	865.320	648.376
312.037	16.338	865.143	648.007
313.052	16.470	864.557	648.015
314.066	16.449	863.601	647.162
315.081	16.312	863.291	646.348
316.095	16.413	862.426	646.028
317.110	16.333	862.233	645.521
318.125	16.439	861.551	645.360
319.139	16.373	861.408	644.942
320.154	16.586	860.347	644.904
321.168	16.546	859.840	644.313
322.183	16.385	859.634	643.489
323.197	16.438	859.247	643.343
324.212	16.556	858.603	643.256
325.227	16.521	858.201	642.761
326.241	16.574	857.116	642.093
327.256	16.543	856.534	641.482
328.270	16.525	855.932	640.909
329.285	16.429	855.728	640.337
330.300	16.363	855.253	639.675
331.314	16.480	854.263	639.318
332.329	16.508	854.179	639.307
333.343	16.675	853.765	639.570
334.358	16.764	853.197	639.424
335.373	16.657	852.698	638.589
336.387	16.667	852.249	638.235
337.402	16.698	852.324	638.352
338.416	16.720	852.079	638.192
339.431	16.783	851.139	637.672
340.446	16.965	850.484	637.809
341.460	16.972	850.376	637.698
342.475	16.876	849.926	636.943
343.489	16.892	849.593	636.697
344.504	16.864	849.184	636.229
345.519	16.916	848.597	635.928
346.533	16.923	848.276	635.655
347.548	16.823	847.648	634.756
348.562	16.842	847.091	634.352
349.577	16.953	846.337	634.145
350.592	16.824	846.075	633.413
351.606	16.791	845.507	632.809
352.621	16.797	844.735	632.197
353.635	16.890	844.160	632.057
354.650	16.975	842.980	631.433
355.665	16.884	842.658	630.799
356.679	16.919	842.175	630.510
357.694	16.994	841.418	630.166
358.708	17.094	840.671	629.925
359.723	17.099	839.856	629.277
360.738	17.078	839.235	628.678
361.752	17.155	838.924	628.672
362.767	17.210	838.245	628.311
363.781	17.122	837.913	627.681
364.796	17.311	837.427	627.960
365.810	17.252	837.044	627.402
366.825	17.151	836.556	626.606
367.840	17.335	835.963	626.784
368.854	17.253	835.464	626.052
369.869	17.162	835.063	625.361
370.883	17.225	834.962	625.462
371.898	17.400	834.511	625.714
372.913	17.434	833.935	625.351
373.927	17.496	832.993	624.815
374.942	17.377	833.106	624.408
375.956	17.585	832.160	624.407
376.971	17.454	831.867	623.651
377.986	17.512	831.779	623.743
379.000	17.445	831.211	623.018
380.015	17.536	830.498	622.762
381.029	17.623	830.101	622.725
382.044	17.456	829.523	621.629
383.059	17.535	828.862	621.364
384.073	17.675	828.300	621.401
385.088	17.617	827.841	620.788
386.102	17.598	827.381	620.320
387.117	17.618	826.750	619.864
388.132	17.435	826.287	618.798
389.146	17.600	825.701	618.903
390.161	17.702	825.219	618.857
391.175	17.598	824.916	618.197
392.190	17.658	823.964	617.647
393.205	17.579	823.629	617.056
394.219	17.552	823.707	616.962
395.234	17.593	823.021	616.541
396.248	17.665	822.256	616.175
397.263	17.665	822.144	616.035
398.278	17.725	821.605	615.795
399.292	17.696	821.028	615.203
400.307	17.696	820.912	615.062
401.321	17.812	819.954	614.708
402.336	17.706	820.026	614.323
403.350	17.692	819.529	613.847
404.365	17.786	819.080	613.794
405.380	17.814	818.246	613.216
406.394	17.863	817.519	612.792
407.409	17.899	817.341	612.733
408.423	17.913	817.177	612.609
409.438	17.870	816.640	611.997
410.453	17.867	816.023	611.470
411.467	17.896	815.820	611.367
412.482	17.992	815.579	611.475
413.496	18.068	815.033	611.286
414.511	18.067	814.858	611.096
415.526	18.195	813.959	610.825
416.540	18.121	813.339	610.043
417.555	17.964	813.276	609.381
418.569	18.082	812.951	609.501
419.584	18.078	812.565	609.147
420.599	18.149	811.892	608.839
421.613	114.744	1297.495	1486.972
422.628	99.329	1368.229	1487.046
