DTS Sentinel unit serial number:	SN413079Multiplexer serial number:	ORYXHardware model number:	OX4-SRSoftware version number:	ORYX F/W v4.00 Oryx Data Collector v3.7.2.0data status	okinstallation	princeton_trtdifferential loss correction	single-endedforward channel	channel 1reverse channel	N/Adate	2019/09/12time	23:58:36forward acquisition time	60.00reverse acquisition time	0.00gamma	496.2192k internal	0.2328k external	0.2328temperature offset calibration	1.0145default loss term (dB/km)	0.3790temperature slope calibration	1.0000multiplexer offset coefficient	1.0000multiplexer slope coefficient	1.0000fibre end	0.00T internal ref (°C)	28.69T ext. ref 1 (°C)	3.77T ext. ref 2 (°C)	23.38length (m)	temperature (°C)	Stokes	anti-Stokes-747.200	-161.731	-0.114	-0.006
-746.185	-200.000	0.021	0.239
-745.171	-27.959	0.317	0.185
-744.156	42.257	0.230	0.210
-743.142	40.275	0.058	-0.052
-742.127	-200.000	0.008	-0.042
-741.112	-200.000	-0.007	-0.212
-740.098	132.967	-0.189	0.245
-739.083	361.115	-0.048	0.096
-738.069	-71.657	-0.157	-0.059
-737.054	-117.532	-0.288	0.052
-736.039	-51.484	-0.134	0.063
-735.025	-59.522	0.125	0.054
-734.010	-25.469	0.209	-0.125
-732.996	800.000	-0.042	-0.144
-731.981	-155.656	-0.360	-0.023
-730.966	-108.453	0.249	-0.054
-729.952	-155.614	-0.320	-0.021
-728.937	800.000	-0.068	0.269
-727.923	100.768	-0.200	-0.234
-726.908	91.753	0.220	0.249
-725.894	-123.876	-0.292	0.046
-724.879	-200.000	-0.001	0.107
-723.864	-200.000	-0.016	-0.206
-722.850	-200.000	0.035	0.221
-721.835	263.866	0.148	0.259
-720.821	80.031	-0.074	-0.081
-719.806	215.100	-0.177	-0.282
-718.791	-200.000	0.027	-0.205
-717.777	54.723	-0.099	0.096
-716.762	-87.136	0.227	-0.069
-715.748	800.000	0.024	0.095
-714.733	-200.000	0.038	-0.489
-713.718	800.000	0.070	0.196
-712.704	112.130	0.085	0.103
-711.689	177.868	0.189	-0.278
-710.675	422.026	0.088	-0.190
-709.660	519.401	-0.067	-0.158
-708.645	134.344	0.109	0.143
-707.631	-94.640	-0.095	0.026
-706.616	32.205	0.152	-0.132
-705.602	-200.000	-0.022	-0.381
-704.587	-81.029	-0.153	-0.051
-703.572	627.497	-0.109	-0.276
-702.558	110.337	-0.198	-0.239
-701.543	-101.504	-0.251	-0.062
-700.529	444.926	-0.060	-0.132
-699.514	-54.088	-0.080	-0.037
-698.499	145.182	0.097	0.130
-697.485	-125.910	0.031	-0.005
-696.470	174.283	-0.185	0.269
-695.456	-75.741	0.353	0.126
-694.441	-136.618	-0.224	0.026
-693.426	77.409	0.172	-0.184
-692.412	-200.000	0.005	-0.184
-691.397	800.000	0.040	0.118
-690.383	-41.321	-0.362	-0.188
-689.368	800.000	0.049	0.160
-688.354	800.000	-0.047	-0.157
-687.339	-29.892	-0.095	0.054
-686.324	-103.070	0.056	-0.013
-685.310	109.616	-0.178	-0.215
-684.295	-130.440	0.161	-0.022
-683.281	4.179	0.196	-0.144
-682.266	-91.276	-0.349	0.101
-681.251	-53.937	0.369	0.169
-680.237	-93.268	-0.168	-0.047
-679.222	-200.000	0.021	-0.147
-678.208	-25.052	0.036	-0.022
-677.193	-84.967	-0.062	0.020
-676.178	-200.000	0.015	0.192
-675.164	-21.401	-0.288	0.176
-674.149	-200.000	-0.016	0.475
-673.135	-53.590	-0.255	0.117
-672.120	-40.744	-0.323	0.168
-671.105	-133.299	0.125	-0.016
-670.091	-0.196	0.160	-0.114
-669.076	-111.193	-0.235	0.048
-668.062	-146.368	0.181	0.016
-667.047	-30.275	0.316	-0.180
-666.032	-51.663	0.174	-0.081
-665.018	-124.007	0.109	-0.017
-664.003	-200.000	-0.017	0.109
-662.989	-200.000	-0.350	-0.001
-661.974	-21.793	0.179	-0.109
-660.959	-13.057	0.049	0.032
-659.945	-167.821	0.174	0.007
-658.930	-3.854	-0.168	-0.117
-657.916	85.919	-0.088	0.097
-656.901	444.029	0.060	-0.133
-655.886	-200.000	0.016	-0.174
-654.872	296.846	-0.163	0.300
-653.857	-83.726	-0.233	-0.075
-652.843	-155.076	-0.357	0.023
-651.828	-66.058	0.293	-0.117
-650.814	-95.460	0.293	-0.079
-649.799	-101.839	-0.262	-0.064
-648.784	800.000	0.129	0.388
-647.770	-200.000	-0.083	0.518
-646.755	70.719	-0.252	-0.262
-645.741	-151.923	0.084	-0.006
-644.726	151.867	-0.098	0.134
-643.711	182.311	-0.071	0.105
-642.697	78.488	0.109	-0.117
-641.682	-200.000	-0.003	-0.229
-640.668	-200.000	0.047	-0.518
-639.653	53.914	0.110	-0.106
-638.638	-109.676	0.041	0.009
-637.624	-141.153	-0.196	0.020
-636.609	-200.000	0.027	-0.169
-635.595	-141.622	0.170	-0.017
-634.580	800.000	0.066	-0.244
-633.565	800.000	0.015	0.047
-632.551	-200.000	0.009	0.070
-631.536	800.000	0.053	-0.228
-630.522	-120.257	-0.332	-0.057
-629.507	-164.266	0.253	-0.012
-628.492	65.026	0.079	-0.080
-627.478	721.662	0.053	-0.140
-626.463	340.332	-0.137	-0.268
-625.449	-88.575	0.163	0.049
-624.434	800.000	-0.034	0.115
-623.419	39.841	0.044	0.039
-622.405	800.000	-0.071	-0.264
-621.390	113.372	-0.180	-0.219
-620.376	-200.000	-0.010	0.171
-619.361	800.000	0.067	-0.294
-618.346	-200.000	0.033	0.246
-617.332	-80.647	-0.311	-0.104
-616.317	-153.137	0.251	-0.018
-615.303	-75.225	-0.205	-0.073
-614.288	800.000	0.042	0.121
-613.273	626.150	-0.010	-0.026
-612.259	-160.828	0.354	0.019
-611.244	-45.829	0.443	0.219
-610.230	-62.429	0.217	-0.090
-609.215	-53.917	0.201	-0.092
-608.201	35.426	0.143	-0.126
-607.186	157.820	-0.076	-0.105
-606.171	-35.117	-0.193	0.105
-605.157	-57.244	0.162	0.072
-604.142	-176.775	0.199	0.005
-603.128	-156.223	0.065	0.004
-602.113	5.791	0.115	0.085
-601.098	91.438	0.067	0.075
-600.084	75.769	0.144	-0.152
-599.069	-13.248	-0.132	-0.086
-598.055	516.199	0.091	-0.212
-597.040	800.000	0.133	0.449
-596.025	-200.000	-0.007	0.126
-595.011	-147.557	-0.161	0.014
-593.996	-12.746	0.032	-0.021
-592.982	171.337	0.144	0.208
-591.967	-102.984	0.393	0.094
-590.952	-39.309	-0.566	-0.298
-589.938	-200.000	-0.030	0.285
-588.923	321.253	0.072	0.137
-587.909	-53.995	0.363	0.166
-586.894	800.000	-0.025	-0.094
-585.879	724.268	0.045	-0.119
-584.865	-60.398	0.153	-0.065
-583.850	57.741	-0.186	-0.182
-582.836	105.528	-0.194	-0.229
-581.821	-147.650	0.154	0.013
-580.806	-91.408	-0.356	0.102
-579.792	51.079	-0.130	0.124
-578.777	622.049	0.014	0.034
-577.763	800.000	-0.040	0.154
-576.748	-93.226	-0.101	-0.028
-575.733	580.178	-0.153	0.374
-574.719	-176.913	-0.314	-0.008
-573.704	-101.363	-0.230	-0.056
-572.690	-43.903	-0.079	0.040
-571.675	-80.500	-0.143	0.048
-570.661	-124.861	-0.405	-0.063
-569.646	635.548	-0.102	0.258
-568.631	379.845	0.043	0.088
-567.617	-136.561	0.278	0.032
-566.602	527.604	0.083	0.196
-565.588	800.000	-0.102	0.344
-564.573	51.008	0.039	0.037
-563.558	50.798	-0.150	-0.142
-562.544	-120.287	0.120	-0.020
-561.529	-31.294	-0.099	-0.056
-560.515	25.859	0.036	-0.030
-559.500	800.000	-0.127	-0.426
-558.485	-200.000	-0.065	-0.315
-557.471	-69.387	0.302	0.116
-556.456	-103.398	-0.148	0.035
-555.442	-126.451	-0.130	-0.019
-554.427	-61.859	0.015	0.006
-553.412	-46.752	-0.344	0.168
-552.398	800.000	0.033	0.095
-551.383	-200.000	0.008	0.129
-550.369	-70.915	-0.162	-0.061
-549.354	324.472	0.223	0.427
-548.339	12.264	0.073	-0.056
-547.325	459.233	-0.037	-0.083
-546.310	-200.000	-0.032	0.256
-545.296	-22.701	-0.082	-0.050
-544.281	2.087	0.078	0.056
-543.266	141.220	0.140	0.186
-542.252	-200.000	0.019	-0.113
-541.237	-200.000	0.015	0.191
-540.223	77.581	-0.178	0.190
-539.208	190.751	0.137	0.206
-538.193	800.000	0.066	0.241
-537.179	-177.373	-0.517	-0.013
-536.164	-49.271	0.167	-0.080
-535.150	-114.091	0.279	0.054
-534.135	-113.999	0.218	0.042
-533.121	143.799	-0.265	0.353
-532.106	242.929	-0.114	0.191
-531.091	-200.000	-0.046	0.531
-530.077	-54.952	0.210	-0.094
-529.062	9.465	-0.038	0.029
-528.048	516.628	0.232	-0.541
-527.033	36.908	-0.232	-0.205
-526.018	115.905	-0.071	-0.087
-525.004	-97.948	0.264	0.068
-523.989	498.425	-0.097	-0.222
-522.975	-96.526	-0.275	-0.073
-521.960	102.419	-0.051	0.059
-520.945	-32.642	-0.412	-0.229
-519.931	-31.728	0.166	-0.093
-518.916	362.524	0.045	-0.091
-517.902	-81.503	0.287	0.094
-516.887	491.732	-0.027	-0.061
-515.872	-109.571	0.065	0.014
-514.858	-58.928	0.316	0.136
-513.843	800.000	0.099	0.363
-512.829	-160.679	-0.138	0.007
-511.814	-124.760	-0.205	0.032
-510.799	295.952	0.067	-0.122
-509.785	-54.455	-0.258	-0.117
-508.770	-85.250	-0.033	-0.010
-507.756	800.000	0.038	-0.149
-506.741	152.170	-0.171	-0.233
-505.726	-56.777	0.308	0.136
-504.712	-89.899	-0.120	0.035
-503.697	9.325	0.127	-0.096
-502.683	800.000	-0.141	0.476
-501.668	-50.043	0.173	-0.082
-500.653	60.894	-0.147	-0.146
-499.639	-0.482	-0.244	0.173
-498.624	-200.000	0.001	-0.062
-497.610	-54.194	0.053	0.024
-496.595	-43.234	-0.213	0.108
-495.581	-48.019	0.088	-0.043
-494.566	-129.178	-0.219	0.030
-493.551	-117.707	0.380	-0.068
-492.537	644.183	0.093	-0.238
-491.522	-200.000	0.007	-0.210
-490.508	-12.302	-0.054	-0.035
-489.493	155.387	-0.107	0.147
-488.478	-176.251	0.229	0.006
-487.464	15.387	0.255	-0.199
-486.449	-200.000	0.007	-0.050
-485.435	-200.000	0.005	-0.025
-484.420	800.000	-0.019	0.056
-483.405	-200.000	-0.001	-0.047
-482.391	176.121	0.189	0.274
-481.376	313.271	0.045	-0.085
-480.362	386.807	-0.094	0.194
-479.347	174.832	-0.333	0.480
-478.332	172.622	-0.159	0.228
-477.318	-200.000	-0.202	0.001
-476.303	-104.701	-0.264	0.061
-475.289	44.328	0.194	0.177
-474.274	-200.000	-0.006	0.164
-473.259	-21.794	0.210	-0.127
-472.245	800.000	-0.029	0.120
-471.230	50.659	0.312	0.295
-470.216	-54.982	0.167	-0.075
-469.201	-122.318	-0.063	-0.010
-468.186	-91.479	-0.202	-0.057
-467.172	356.453	-0.052	-0.103
-466.157	-105.442	-0.281	-0.064
-465.143	267.225	0.181	-0.316
-464.128	-200.000	-0.050	-0.225
-463.113	-92.449	0.102	-0.029
-462.099	-93.477	0.400	0.110
-461.084	47.668	0.058	0.054
-460.070	-76.166	-0.095	0.033
-459.055	6.005	-0.174	-0.129
-458.040	-17.938	-0.190	-0.119
-457.026	311.756	0.148	0.277
-456.011	-80.349	-0.215	0.071
-454.997	-200.000	-0.028	0.353
-453.982	800.000	0.039	-0.148
-452.968	26.993	-0.248	0.207
-451.953	224.091	0.146	-0.236
-450.938	-50.828	-0.080	-0.038
-449.924	152.722	-0.260	-0.354
-448.909	-53.549	0.127	-0.058
-447.895	-69.562	-0.218	-0.083
-446.880	-95.609	-0.139	0.037
-445.865	556.829	0.053	-0.128
-444.851	-62.963	-0.083	0.034
-443.836	-62.460	0.133	0.055
-442.822	58.652	0.226	-0.221
-441.807	800.000	0.100	-0.284
-440.792	-105.958	0.203	-0.046
-439.778	-5.409	-0.163	-0.111
-438.763	-106.143	-0.163	-0.036
-437.749	166.160	-0.140	-0.198
-436.734	-28.291	-0.101	-0.058
-435.719	30.279	0.160	-0.136
-434.705	-74.081	-0.158	-0.057
-433.690	479.424	0.124	-0.279
-432.676	265.761	0.060	-0.104
-431.661	249.628	-0.074	0.125
-430.646	603.814	0.046	0.115
-429.632	52.986	0.137	-0.131
-428.617	65.261	0.150	0.151
-427.603	98.244	0.191	0.219
-426.588	87.219	-0.147	-0.161
-425.573	-133.771	0.306	-0.038
-424.559	-189.160	-0.281	0.003
-423.544	-55.615	0.175	0.078
-422.530	234.964	-0.087	-0.144
-421.515	-130.770	0.267	0.036
-420.500	-38.914	-0.454	-0.238
-419.486	800.000	0.022	-0.061
-418.471	160.913	-0.257	0.357
-417.457	-71.303	0.230	0.086
-416.442	267.103	0.062	-0.108
-415.428	-46.156	0.124	-0.061
-414.413	-125.015	-0.279	0.043
-413.398	-39.748	0.025	0.013
-412.384	47.659	-0.098	-0.091
-411.369	8.756	0.110	0.083
-410.355	800.000	0.010	0.039
-409.340	800.000	0.078	-0.217
-408.325	-61.517	-0.142	-0.059
-407.311	145.821	0.030	-0.040
-406.296	605.136	0.084	-0.208
-405.282	41.385	-0.077	0.069
-404.267	-105.623	-0.068	0.015
-403.252	-48.446	-0.266	0.127
-402.238	-200.000	-0.012	-0.233
-401.223	800.000	0.111	-0.362
-400.209	88.504	0.009	-0.010
-399.194	450.548	0.124	0.273
-398.179	-72.949	-0.170	0.062
-397.165	-200.000	-0.013	0.177
-396.150	-108.193	0.180	0.039
-395.136	-60.544	0.380	-0.161
-394.121	-83.464	0.252	-0.080
-393.106	-42.651	-0.075	0.038
-392.092	741.085	0.064	0.172
-391.077	45.100	-0.194	-0.177
-390.063	-200.000	0.009	-0.203
-389.048	-110.497	0.149	0.031
-388.033	-73.808	-0.078	0.028
-387.019	-48.640	-0.165	-0.079
-386.004	-135.502	-0.207	-0.025
-384.990	-146.539	-0.148	0.013
-383.975	-200.000	-0.027	0.231
-382.960	800.000	0.050	0.209
-381.946	192.472	-0.203	0.305
-380.931	-69.691	-0.114	-0.043
-379.917	-4.506	0.182	-0.125
-378.902	32.585	0.047	-0.040
-377.888	369.284	-0.099	0.199
-376.873	-41.239	0.151	-0.077
-375.858	-110.788	-0.221	0.045
-374.844	-200.000	-0.020	0.088
-373.829	-97.547	0.038	0.010
-372.815	-145.507	0.309	-0.028
-371.800	77.683	-0.098	0.104
-370.785	-42.479	-0.095	-0.048
-369.771	508.413	-0.160	-0.370
-368.756	-128.128	0.339	0.048
-367.742	206.713	-0.025	-0.038
-366.727	60.802	0.197	0.194
-365.712	-140.843	-0.069	0.007
-364.698	97.668	0.282	-0.321
-363.683	-4.468	0.166	0.114
-362.669	331.298	-0.140	0.267
-361.654	239.848	-0.089	0.147
-360.639	-15.396	0.169	-0.107
-359.625	-200.000	-0.022	-0.189
-358.610	-115.386	0.184	-0.034
-357.596	-17.194	-0.147	0.092
-356.581	107.794	0.089	0.106
-355.566	-96.665	0.264	-0.069
-354.552	-116.206	-0.192	0.035
-353.537	-62.271	0.297	-0.123
-352.523	-45.090	-0.291	0.144
-351.508	800.000	-0.022	0.086
-350.493	1.950	-0.219	0.157
-349.479	800.000	-0.055	0.193
-348.464	255.515	0.101	0.172
-347.450	-136.132	0.124	-0.014
-346.435	800.000	0.089	0.261
-345.420	161.004	0.127	0.176
-344.406	-50.608	0.300	-0.140
-343.391	800.000	0.076	-0.300
-342.377	-122.223	-0.272	0.044
-341.362	-200.000	-0.003	-0.126
-340.348	158.764	0.141	-0.194
-339.333	-92.526	-0.190	-0.053
-338.318	40.839	0.214	-0.192
-337.304	-200.000	0.036	-0.180
-336.289	765.015	0.096	0.257
-335.275	33.944	0.352	0.304
-334.260	-200.000	-0.049	-0.427
-333.245	191.823	-0.120	0.179
-332.231	800.000	0.049	0.166
-331.216	-200.000	-0.007	-0.077
-330.202	274.698	0.035	-0.061
-329.187	-193.827	-0.045	-0.000
-328.172	-11.758	-0.133	-0.087
-327.158	512.290	0.089	-0.205
-326.143	116.248	0.219	0.266
-325.129	-35.357	-0.387	0.209
-324.114	-88.616	0.068	0.020
-323.099	144.192	0.163	-0.216
-322.085	14.657	-0.076	0.059
-321.070	72.848	-0.124	0.128
-320.056	29.640	0.091	0.077
-319.041	-200.000	0.041	0.184
-318.026	-11.624	0.176	-0.115
-317.012	-21.427	0.381	-0.230
-315.997	-146.203	-0.445	0.039
-314.983	180.920	0.090	0.131
-313.968	-140.490	0.279	-0.029
-312.953	737.238	0.088	-0.235
-311.939	-67.722	-0.178	-0.069
-310.924	-200.000	0.027	-0.148
-309.910	-74.719	0.213	0.076
-308.895	-144.296	0.043	0.004
-307.880	-200.000	-0.016	0.103
-306.866	1.076	-0.451	-0.321
-305.851	364.547	-0.117	-0.234
-304.837	-59.925	0.351	-0.149
-303.822	-200.000	0.021	-0.159
-302.807	-107.145	-0.449	0.098
-301.793	-120.011	0.160	-0.027
-300.778	-79.797	-0.399	0.133
-299.764	38.090	-0.084	0.074
-298.749	-94.571	0.332	-0.090
-297.735	-27.109	-0.038	0.022
-296.720	-69.626	0.271	0.103
-295.705	-76.912	-0.226	0.078
-294.691	-99.852	0.326	-0.081
-293.676	218.275	-0.211	-0.333
-292.662	94.935	-0.192	0.217
-291.647	454.130	-0.160	0.352
-290.632	-104.630	0.331	-0.076
-289.618	219.166	0.036	0.057
-288.603	-105.937	0.259	0.058
-287.589	-200.000	-0.004	0.098
-286.574	-119.506	-0.353	-0.061
-285.559	-51.705	0.375	-0.173
-284.545	-15.348	-0.114	0.072
-283.530	-153.895	0.206	-0.014
-282.516	-11.681	-0.030	0.019
-281.501	20.297	-0.175	0.140
-280.486	-200.000	0.013	0.079
-279.472	124.427	0.090	-0.113
-278.457	-68.669	0.164	-0.063
-277.443	-43.547	-0.533	0.266
-276.428	142.436	0.080	-0.105
-275.413	-38.067	-0.062	0.033
-274.399	-200.000	0.045	-0.231
-273.384	46.770	0.246	-0.226
-272.370	-93.993	0.191	0.052
-271.355	350.151	0.124	-0.243
-270.340	-31.758	0.359	-0.199
-269.326	47.266	-0.193	-0.178
-268.311	30.490	-0.038	0.032
-267.297	-200.000	-0.001	0.021
-266.282	-131.015	-0.156	-0.021
-265.267	-200.000	0.021	-0.166
-264.253	-109.265	0.265	-0.056
-263.238	109.339	-0.177	0.210
-262.224	248.447	0.229	-0.384
-261.209	-95.366	-0.100	-0.027
-260.195	77.314	0.137	-0.144
-259.180	-149.798	-0.097	-0.008
-258.165	112.198	0.254	-0.304
-257.151	-55.594	0.100	0.044
-256.136	688.930	-0.107	-0.278
-255.122	20.008	-0.139	-0.111
-254.107	-64.908	0.266	-0.106
-253.092	-70.184	-0.095	-0.036
-252.078	-129.960	0.126	-0.017
-251.063	461.379	0.034	0.075
-250.049	-59.393	-0.156	-0.066
-249.034	-200.000	0.016	0.262
-248.019	-200.000	-0.020	-0.129
-247.005	74.799	-0.236	-0.246
-245.990	-29.551	0.130	-0.073
-244.976	-84.673	0.159	0.049
-243.961	320.577	-0.065	0.122
-242.946	-200.000	0.007	-0.271
-241.932	0.770	0.111	-0.079
-240.917	800.000	-0.108	-0.351
-239.903	-200.000	0.023	-0.191
-238.888	58.374	0.240	-0.232
-237.873	-89.805	-0.303	0.087
-236.859	800.000	0.069	-0.289
-235.844	72.033	0.140	0.144
-234.830	-200.000	-0.044	0.210
-233.815	107.684	0.109	0.128
-232.800	800.000	-0.097	-0.419
-231.786	-200.000	-0.009	0.144
-230.771	-200.000	0.027	-0.118
-229.757	104.807	-0.328	0.382
-228.742	279.315	-0.073	-0.129
-227.727	-141.467	0.120	-0.012
-226.713	-200.000	-0.041	0.350
-225.698	338.774	-0.143	0.275
-224.684	-116.623	-0.306	0.056
-223.669	-200.000	-0.046	0.202
-222.655	-102.588	0.196	0.046
-221.640	161.460	-0.153	0.212
-220.625	80.463	0.089	-0.095
-219.611	201.568	0.224	-0.341
-218.596	36.172	-0.193	-0.168
-217.582	-57.971	0.154	-0.066
-216.567	-0.748	-0.193	0.135
-215.552	-200.000	-0.046	0.234
-214.538	-200.000	0.057	0.250
-213.523	-121.369	-0.152	0.025
-212.509	722.903	-0.012	0.033
-211.494	-200.000	-0.043	-0.247
-210.479	44.460	-0.174	-0.158
-209.465	-84.605	0.086	0.027
-208.450	280.570	0.159	-0.281
-207.436	-122.507	-0.188	0.030
-206.421	120.833	-0.106	0.130
-205.406	-200.000	-0.033	0.233
-204.392	-175.163	-0.289	0.008
-203.377	44.719	-0.099	0.090
-202.363	-60.558	-0.155	-0.065
-201.348	-200.000	0.003	0.162
-200.333	-96.818	0.139	0.036
-199.319	81.708	-0.077	-0.083
-198.304	-170.508	-0.295	0.010
-197.290	262.787	-0.135	0.231
-196.275	-123.823	-0.136	0.021
-195.260	561.080	-0.151	0.359
-194.246	-11.864	0.037	-0.024
-193.231	73.693	-0.152	0.157
-192.217	-105.632	0.131	-0.029
-191.202	-148.314	-0.436	-0.035
-190.187	-61.123	-0.292	0.121
-189.173	89.535	0.135	-0.148
-188.158	-125.855	0.182	-0.027
-187.144	618.789	0.098	0.243
-186.129	575.142	0.156	0.376
-185.114	-200.000	-0.032	0.226
-184.100	-57.656	0.331	0.143
-183.085	35.446	-0.084	0.073
-182.071	59.562	0.162	0.157
-181.056	-200.000	-0.002	-0.045
-180.042	-83.935	0.226	0.071
-179.027	-117.480	-0.467	0.083
-178.012	-153.275	-0.056	-0.004
-176.998	-102.607	0.080	-0.019
-175.983	-200.000	0.011	-0.191
-174.969	-200.000	-0.037	-0.262
-173.954	-130.554	-0.082	0.011
-172.939	509.502	-0.114	0.262
-171.925	-200.000	0.033	-0.327
-170.910	-58.751	0.104	0.044
-169.896	-149.325	-0.324	0.025
-168.881	-46.941	0.459	-0.221
-167.866	-200.000	-0.047	0.223
-166.852	-71.316	-0.113	-0.042
-165.837	87.067	-0.173	-0.188
-164.823	-200.000	0.024	0.239
-163.808	-14.554	0.211	-0.133
-162.793	-177.075	-0.033	-0.001
-161.779	348.527	0.091	0.177
-160.764	-69.006	0.096	0.036
-159.750	74.412	0.058	0.060
-158.735	578.856	-0.052	-0.126
-157.720	-47.957	0.335	0.160
-156.706	800.000	0.065	0.278
-155.691	-66.079	-0.084	-0.033
-154.677	-200.000	0.010	-0.207
-153.662	22.525	-0.085	-0.069
-152.647	-41.515	0.206	0.104
-151.633	-200.000	0.036	0.177
-150.618	509.471	0.098	-0.223
-149.604	48.549	0.120	0.110
-148.589	-66.724	0.325	-0.127
-147.574	92.347	-0.170	0.189
-146.560	13.687	0.104	0.079
-145.545	715.583	-0.042	-0.110
-144.531	-200.000	-0.379	-0.001
-143.516	76.022	0.076	-0.079
-142.502	-40.557	-0.184	0.094
-141.487	-98.493	0.203	0.051
-140.472	-36.114	0.101	0.054
-139.458	-107.947	-0.163	-0.035
-138.443	-123.860	0.134	-0.021
-137.429	-150.414	-0.339	-0.026
-136.414	551.342	-0.139	0.329
-135.399	-81.659	0.266	-0.086
-134.385	-71.091	-0.249	-0.092
-133.370	-102.018	-0.074	-0.018
-132.356	-124.066	0.099	-0.015
-131.341	-64.213	-0.097	0.039
-130.326	-150.048	-0.032	0.002
-129.312	-69.804	-0.392	0.147
-128.297	-105.770	0.208	0.046
-127.283	346.047	0.125	-0.242
-126.268	-76.978	0.260	0.089
-125.253	31.233	-0.195	-0.165
-124.239	-200.000	-0.002	0.191
-123.224	0.219	-0.077	-0.054
-122.210	-96.254	0.284	0.074
-121.195	45.375	-0.145	-0.132
-120.180	-21.483	0.071	0.042
-119.166	152.852	-0.173	-0.233
-118.151	-59.671	-0.083	0.035
-117.137	-16.711	-0.363	0.226
-116.122	16.077	-0.108	0.084
-115.107	718.647	-0.078	0.204
-114.093	325.444	0.029	-0.054
-113.078	613.198	0.098	0.242
-112.064	373.154	0.190	-0.380
-111.049	800.000	0.080	0.236
-110.034	42.285	0.048	-0.043
-109.020	2.678	0.153	0.109
-108.005	-200.000	-0.088	-0.448
-106.991	-170.764	0.280	-0.009
-105.976	78.279	0.179	-0.188
-104.962	-164.200	-0.011	0.000
-103.947	112.738	0.113	0.134
-102.932	-93.002	-0.072	-0.020
-101.918	-200.000	-0.023	0.670
-100.903	54.334	-0.081	0.076
-99.889	-7.444	0.182	-0.121
-98.874	800.000	-0.044	0.128
-97.859	-111.085	0.252	-0.051
-96.845	-200.000	-0.351	-0.000
-95.830	-19.411	0.297	-0.181
-94.816	195.544	-0.145	0.216
-93.801	123.302	0.185	-0.228
-92.786	357.341	0.135	0.265
-91.772	-200.000	-0.030	0.542
-90.757	-200.000	-0.001	0.163
-89.743	568.123	0.034	0.081
-88.728	-200.000	0.000	0.098
-87.713	-17.194	-0.244	0.151
-86.699	-200.000	0.005	-0.373
-85.684	-200.000	-0.027	0.211
-84.670	800.000	-0.136	0.465
-83.655	-47.502	0.198	-0.095
-82.640	-200.000	0.007	0.084
-81.626	-147.515	0.221	0.018
-80.611	-200.000	0.045	-0.207
-79.597	-90.535	-0.120	-0.034
-78.582	-175.462	-0.073	0.002
-77.567	-200.000	0.011	-0.232
-76.553	0.991	0.110	-0.078
-75.538	328.103	0.039	0.073
-74.524	-94.466	-0.239	-0.064
-73.509	-60.705	0.245	-0.102
-72.494	-200.000	0.019	-0.127
-71.480	151.906	0.051	-0.068
-70.465	90.134	0.147	0.162
-69.451	-17.711	0.124	0.077
-68.436	31.052	-0.067	0.056
-67.422	412.800	0.107	-0.222
-66.407	-200.000	0.016	-0.148
-65.392	-200.000	0.006	0.080
-64.378	31.984	0.058	-0.049
-63.363	800.000	-0.163	0.442
-62.349	3.063	0.110	-0.078
-61.334	83.968	-0.996	-1.067
-60.319	77.147	0.446	0.465
-59.305	800.000	-0.228	-0.907
-58.290	119.660	0.873	1.061
-57.276	402.137	0.604	1.245
-56.261	-200.000	111.779	629.468
-55.246	514.652	1521.781	3484.272
-54.232	176.730	2694.041	3843.010
-53.217	111.357	2150.555	2543.065
-52.203	40.292	1597.368	1409.684
-51.188	32.228	1340.427	1134.452
-50.173	29.078	1301.071	1082.607
-49.159	53.929	1357.501	1279.588
-48.144	53.944	1372.007	1293.301
-47.130	32.105	1326.574	1121.815
-46.115	28.792	1308.405	1086.847
-45.100	28.687	1304.096	1082.607
-44.086	28.569	1301.163	1079.434
-43.071	28.598	1298.696	1077.514
-42.057	28.639	1296.673	1076.032
-41.042	28.530	1295.055	1074.010
-40.027	28.644	1293.528	1073.372
-39.013	28.716	1291.549	1072.102
-37.998	28.565	1290.280	1070.126
-36.984	28.570	1288.334	1068.500
-35.969	28.693	1286.063	1067.292
-34.954	28.831	1284.619	1066.849
-33.940	28.775	1283.538	1065.584
-32.925	28.690	1282.369	1064.081
-31.911	28.705	1280.995	1062.984
-30.896	28.774	1279.243	1061.884
-29.881	28.780	1277.996	1060.844
-28.867	28.719	1276.700	1059.377
-27.852	28.879	1274.908	1058.765
-26.838	28.878	1273.671	1057.694
-25.823	28.721	1272.564	1055.831
-24.809	28.773	1271.160	1054.923
-23.794	28.805	1269.958	1054.066
-22.779	28.626	1269.004	1052.203
-21.765	28.887	1266.758	1051.794
-20.750	28.710	1265.823	1049.964
-19.736	28.707	1264.437	1048.758
-18.721	28.675	1263.202	1047.506
-17.706	28.636	1261.975	1046.226
-16.692	28.658	1261.131	1045.607
-15.677	28.662	1259.675	1044.384
-14.663	28.592	1258.956	1043.350
-13.648	28.744	1257.943	1043.333
-12.633	28.602	1257.181	1041.853
-11.619	28.533	1256.306	1040.694
-10.604	28.609	1255.394	1040.329
-9.590	28.643	1254.540	1039.771
-8.575	28.614	1253.643	1038.822
-7.560	28.575	1252.488	1037.601
-6.546	28.596	1252.254	1037.487
-5.531	28.649	1251.000	1036.706
-4.517	28.649	1250.642	1036.370
-3.502	28.694	1249.170	1035.364
-2.487	28.615	1248.379	1034.220
-1.473	28.522	1243.892	1029.937
-0.458	27.035	1228.655	1009.027
0.556	25.033	1210.985	970.895
1.571	21.033	1217.378	954.101
2.586	20.160	1231.639	960.358
3.600	19.863	1219.931	949.516
4.615	15.212	1149.312	870.372
5.629	7.448	1076.507	777.262
6.644	4.090	1058.086	747.704
7.659	3.798	1054.869	743.959
8.673	3.614	1054.162	742.507
9.688	3.570	1052.282	740.907
10.702	3.938	1051.145	741.805
11.717	8.942	1057.514	770.320
12.731	17.260	1069.757	819.435
13.746	22.167	1075.688	847.630
14.761	22.947	1076.459	851.928
15.775	22.416	1074.376	847.648
16.790	21.465	1073.177	842.050
17.804	21.028	1071.602	838.642
18.819	20.750	1071.034	836.783
19.834	20.809	1070.274	836.402
20.848	20.845	1069.745	836.088
21.863	20.636	1069.264	834.634
22.877	20.649	1067.862	833.529
23.892	20.455	1067.749	832.437
24.907	20.418	1066.784	831.435
25.921	20.313	1065.811	830.099
26.936	20.425	1064.141	829.260
27.950	20.394	1062.677	827.897
28.965	20.512	1061.506	827.471
29.980	20.719	1060.264	827.414
30.994	20.798	1059.142	826.841
32.009	20.733	1058.624	826.056
33.023	20.664	1057.318	824.636
34.038	20.576	1056.227	823.298
35.053	20.530	1055.571	822.495
36.067	20.510	1054.588	821.564
37.082	20.374	1053.961	820.357
38.096	20.595	1053.150	820.698
39.111	20.712	1052.350	820.552
40.126	20.401	1050.797	817.806
41.140	20.174	1048.764	815.082
42.155	19.850	1048.470	813.261
43.169	19.873	1047.234	812.339
44.184	19.791	1046.311	811.166
45.199	19.877	1045.249	810.674
46.213	20.113	1044.504	811.128
47.228	20.582	1043.912	812.790
48.242	20.659	1042.902	812.291
49.257	20.460	1042.523	810.993
50.271	20.596	1041.748	810.955
51.286	20.596	1041.467	810.663
52.301	20.659	1039.859	809.634
53.315	20.331	1039.165	807.495
54.330	20.335	1037.604	806.229
55.344	20.127	1036.477	804.317
56.359	20.152	1036.029	804.017
57.374	20.113	1035.087	803.034
58.388	20.028	1033.865	801.622
59.403	19.830	1033.491	800.343
60.417	19.824	1032.993	799.858
61.432	19.916	1031.999	799.446
62.447	19.666	1030.929	797.391
63.461	19.693	1030.213	796.891
64.476	19.603	1029.163	795.596
65.490	19.668	1028.277	795.136
66.505	19.683	1027.856	794.813
67.520	19.693	1027.246	794.313
68.534	19.719	1026.124	793.498
69.549	19.520	1025.664	792.156
70.563	19.376	1024.623	790.622
71.578	19.302	1023.164	789.089
72.593	19.159	1022.928	788.182
73.607	19.177	1022.169	787.607
74.622	19.186	1021.938	787.405
75.636	19.420	1020.851	787.567
76.651	19.514	1020.137	787.370
77.666	19.505	1019.455	786.735
78.680	19.522	1018.739	786.192
79.695	19.564	1018.412	786.062
80.709	19.689	1018.057	786.286
81.724	19.985	1017.029	786.767
82.739	20.147	1016.429	786.967
83.753	20.393	1016.661	788.196
84.768	20.740	1016.351	789.458
85.782	21.077	1015.461	790.223
86.797	21.040	1014.528	789.263
87.812	20.693	1013.556	786.867
88.826	20.762	1012.248	786.094
89.841	20.753	1012.048	785.829
90.855	20.921	1010.879	785.610
91.870	20.995	1009.992	785.184
92.884	20.785	1009.209	783.559
93.899	20.780	1008.458	782.886
94.914	20.916	1007.454	782.645
95.928	20.807	1006.432	781.295
96.943	20.589	1005.385	779.437
97.957	20.676	1004.169	778.811
98.972	20.622	1003.542	778.016
99.987	20.737	1002.857	777.929
101.001	20.701	1001.800	776.879
102.016	20.560	1001.194	775.712
103.030	20.735	1000.406	775.813
104.045	20.712	999.468	774.918
105.060	20.549	998.480	773.358
106.074	20.226	997.226	770.881
107.089	19.927	996.008	768.543
108.103	19.814	994.980	767.182
109.118	19.693	993.678	765.576
110.133	19.563	992.560	764.069
111.147	19.578	991.689	763.398
112.162	19.563	991.551	763.157
113.176	19.975	990.719	764.267
114.191	20.099	990.003	764.195
115.206	19.910	989.094	762.594
116.220	19.746	988.647	761.459
117.235	19.774	987.354	760.521
118.249	19.625	986.533	759.165
119.264	19.603	985.719	758.375
120.279	19.609	984.788	757.617
121.293	19.446	983.698	755.999
122.308	19.291	982.998	754.715
123.322	19.205	981.753	753.316
124.337	19.314	980.700	752.916
125.352	19.145	979.763	751.395
126.366	19.163	979.129	750.920
127.381	19.278	978.168	750.618
128.395	19.351	977.268	750.179
129.410	19.483	976.446	750.053
130.424	19.579	975.933	750.009
131.439	19.887	975.260	750.764
132.454	19.938	974.806	750.566
133.468	19.656	974.155	748.780
134.483	19.875	972.881	748.680
135.497	19.882	972.111	748.052
136.512	19.851	971.535	747.409
137.527	19.963	970.256	746.844
138.541	20.011	969.927	746.732
139.556	19.946	969.347	745.937
140.570	20.309	968.577	746.843
141.585	20.602	967.869	747.487
142.600	20.673	967.004	747.059
143.614	20.676	966.710	746.778
144.629	20.835	966.065	746.897
145.643	20.683	964.673	745.102
146.658	20.368	963.271	742.606
147.673	20.152	962.394	740.942
148.687	19.980	961.307	739.306
149.702	19.988	960.137	738.376
150.716	19.971	959.345	737.629
151.731	19.970	958.940	737.246
152.746	20.048	958.389	737.089
153.760	20.192	957.598	737.027
154.775	20.304	957.062	737.029
155.789	20.273	956.772	736.606
156.804	20.360	955.830	736.187
157.819	20.416	954.879	735.624
158.833	20.724	954.562	736.619
159.848	20.723	953.850	736.000
160.862	20.525	952.460	734.026
161.877	20.130	951.011	731.179
162.892	19.808	950.066	729.029
163.906	19.801	949.092	728.191
164.921	19.832	948.242	727.604
165.935	19.890	947.515	727.226
166.950	20.024	946.713	727.109
167.964	20.039	945.883	726.469
168.979	19.991	944.472	725.119
169.994	20.016	943.389	724.331
171.008	20.166	943.324	724.844
172.023	20.312	942.756	724.949
173.037	20.649	942.347	725.982
174.052	20.289	941.485	723.749
175.067	19.956	940.445	721.499
176.081	19.655	940.005	719.843
177.096	19.816	938.749	719.486
178.110	19.816	938.277	719.062
179.125	19.896	937.464	718.708
180.140	19.971	937.303	718.832
181.154	20.307	937.122	720.023
182.169	20.494	937.051	720.681
183.183	20.376	936.656	719.824
184.198	20.412	935.841	719.284
185.213	20.406	934.837	718.425
186.227	20.402	934.405	718.013
187.242	20.604	933.891	718.388
188.256	20.936	933.243	719.198
189.271	20.669	932.644	717.571
190.286	20.386	931.738	715.642
191.300	19.731	930.130	711.647
192.315	19.735	929.075	710.796
193.329	19.769	929.021	710.831
194.344	19.994	928.065	710.960
195.359	19.940	928.156	710.747
196.373	20.207	927.743	711.463
197.388	20.416	927.622	712.163
198.402	20.717	927.278	713.071
199.417	20.974	926.441	713.415
200.432	21.111	926.295	713.800
201.446	21.102	925.579	713.149
202.461	21.248	925.025	713.255
203.475	20.995	924.208	711.528
204.490	20.669	923.025	709.227
205.504	20.466	922.358	707.825
206.519	20.396	921.522	706.834
207.534	20.459	920.704	706.401
208.548	20.569	919.963	706.218
209.563	20.609	919.310	705.814
210.577	20.727	918.812	705.849
211.592	20.884	918.623	706.276
212.607	20.956	918.218	706.196
213.621	20.747	917.520	704.751
214.636	20.791	916.634	704.186
215.650	20.876	916.222	704.151
216.665	20.912	915.356	703.570
217.680	21.002	914.832	703.467
218.694	21.085	913.960	703.068
219.709	20.921	913.725	702.164
220.723	20.781	912.762	700.798
221.738	20.711	911.908	699.801
222.753	20.928	911.012	699.921
223.767	20.997	910.846	700.010
224.782	21.054	910.812	700.151
225.796	21.120	910.141	699.837
226.811	21.006	909.201	698.595
227.826	20.817	908.267	697.059
228.840	20.613	907.573	695.650
229.855	20.734	906.848	695.517
230.869	20.647	906.126	694.555
231.884	20.477	905.492	693.326
232.899	20.483	904.263	692.349
233.913	20.342	903.768	691.347
234.928	20.289	902.647	690.218
235.942	20.199	902.475	689.667
236.957	20.323	901.842	689.615
237.972	20.427	901.282	689.538
238.986	20.237	901.027	688.528
240.001	20.246	900.334	687.976
241.015	20.401	899.838	688.147
242.030	20.589	899.230	688.366
243.045	20.710	898.898	688.531
244.059	20.709	898.172	687.909
245.074	20.832	897.625	687.913
246.088	20.889	896.913	687.533
247.103	21.091	896.702	688.108
248.117	21.331	896.754	689.032
249.132	21.704	896.537	690.275
250.147	21.892	896.119	690.631
251.161	22.083	895.163	690.584
252.176	22.085	895.020	690.424
253.190	22.160	894.227	690.042
254.205	22.056	893.627	689.112
255.220	22.074	892.841	688.515
256.234	21.782	892.475	687.029
257.249	21.764	891.924	686.471
258.263	21.855	891.185	686.197
259.278	21.840	890.171	685.298
260.293	21.855	889.733	684.958
261.307	21.976	889.243	684.992
262.322	21.979	888.768	684.581
263.336	22.144	887.699	684.339
264.351	21.936	887.459	683.284
265.366	22.043	886.935	683.236
266.380	22.025	886.128	682.483
267.395	21.808	885.399	681.016
268.409	21.694	884.706	679.984
269.424	21.841	883.565	679.615
270.439	21.744	882.800	678.589
271.453	21.566	882.133	677.331
272.468	21.614	881.389	676.884
273.482	21.530	881.293	676.427
274.497	21.543	880.281	675.640
275.512	21.407	880.054	674.881
276.526	21.521	879.674	674.971
277.541	21.696	879.344	675.329
278.555	22.001	879.056	676.225
279.570	22.103	878.337	676.003
280.585	22.095	877.332	675.138
281.599	21.749	876.665	673.236
282.614	21.668	875.284	671.806
283.628	21.695	874.851	671.519
284.643	21.564	874.584	670.753
285.657	21.705	873.468	670.379
286.672	21.655	873.236	669.949
287.687	21.708	872.751	669.718
288.701	21.639	872.270	669.029
289.716	21.711	871.633	668.753
290.730	21.809	871.152	668.699
291.745	21.845	870.484	668.265
292.760	21.986	869.912	668.303
293.774	22.265	869.760	669.191
294.789	21.994	869.100	667.594
295.803	21.787	867.803	665.752
296.818	21.660	867.248	664.783
297.833	21.623	866.591	664.082
298.847	21.745	866.197	664.183
299.862	21.916	865.507	664.241
300.876	22.110	865.167	664.656
301.891	22.141	864.739	664.386
302.906	22.398	864.266	664.935
303.920	22.461	864.361	665.187
304.935	22.546	863.818	665.032
305.949	22.380	862.794	663.560
306.964	22.082	861.633	661.484
307.979	22.188	861.215	661.506
308.993	22.242	860.902	661.411
310.008	22.294	860.423	661.179
311.022	22.156	859.978	660.260
312.037	21.868	859.345	658.634
313.052	21.730	858.076	657.085
314.066	21.585	857.351	655.929
315.081	21.570	856.775	655.375
316.095	21.661	856.412	655.377
317.110	21.703	855.832	655.033
318.125	21.501	855.386	653.879
319.139	21.467	854.934	653.348
320.154	21.498	854.396	652.994
321.168	21.757	853.600	653.296
322.183	21.849	853.247	653.312
323.197	21.670	852.958	652.364
324.212	21.905	852.227	652.624
325.227	21.844	851.339	651.656
326.241	21.689	850.717	650.549
327.256	21.707	850.234	650.188
328.270	21.643	849.600	649.410
329.285	21.528	849.374	648.754
330.300	21.408	848.853	647.853
331.314	21.706	848.304	648.480
332.329	21.997	847.722	649.054
333.343	22.079	847.355	649.019
334.358	22.088	847.125	648.815
335.373	22.101	846.805	648.561
336.387	22.118	846.863	648.611
337.402	22.287	846.383	648.812
338.416	22.520	846.419	649.639
339.431	22.751	845.882	650.023
340.446	22.779	845.251	649.582
341.460	22.741	845.398	649.498
342.475	22.825	845.294	649.668
343.489	22.996	844.613	649.718
344.504	22.942	844.616	649.464
345.519	23.023	843.944	649.185
346.533	22.855	842.975	647.768
347.548	22.653	841.879	646.128
348.562	22.390	841.366	644.713
349.577	22.139	840.494	643.069
350.592	22.104	839.864	642.402
351.606	21.990	839.011	641.279
352.621	22.061	838.675	641.222
353.635	22.397	837.551	641.533
354.650	22.236	837.239	640.649
355.665	22.303	836.906	640.583
356.679	22.587	836.371	641.148
357.694	22.408	835.985	640.148
358.708	22.434	834.916	639.365
359.723	22.326	834.604	638.676
360.738	22.451	834.031	638.634
361.752	22.522	833.380	638.339
362.767	22.781	833.007	638.932
363.781	23.014	832.527	639.352
364.796	22.934	832.615	639.073
365.810	23.249	831.862	639.579
366.825	23.288	831.625	639.478
367.840	23.125	831.067	638.405
368.854	22.964	830.560	637.379
369.869	22.752	829.817	635.987
370.883	22.808	829.635	635.994
371.898	23.054	829.499	636.721
372.913	23.228	828.726	636.695
373.927	22.976	828.210	635.336
374.942	23.016	827.888	635.176
375.956	23.228	827.154	635.318
376.971	23.259	827.107	635.339
377.986	23.434	826.705	635.601
379.000	23.460	825.840	634.971
380.015	23.482	825.400	634.655
381.029	23.331	824.873	633.654
382.044	23.296	824.202	632.960
383.059	23.444	823.521	632.910
384.073	23.147	822.849	631.277
385.088	22.943	822.085	629.908
386.102	22.784	821.365	628.732
387.117	22.661	820.455	627.545
388.132	22.835	819.772	627.585
389.146	22.852	819.576	627.438
390.161	23.266	819.400	628.720
391.175	23.242	819.112	628.357
392.190	23.105	818.018	626.977
393.205	22.974	817.586	626.125
394.219	22.662	817.564	624.950
395.234	22.534	816.761	623.826
396.248	22.471	816.126	623.063
397.263	22.463	815.722	622.669
398.278	22.425	815.343	622.191
399.292	22.448	814.537	621.604
400.307	22.519	814.051	621.427
401.321	22.515	813.864	621.214
402.336	22.589	813.428	621.090
403.350	22.831	813.331	621.812
404.365	23.033	813.663	622.723
405.380	23.454	812.890	623.556
406.394	23.651	812.361	623.788
407.409	23.562	812.057	623.188
408.423	23.715	811.754	623.437
409.438	23.634	811.286	622.737
410.453	23.758	810.975	622.879
411.467	23.793	810.264	622.399
412.482	23.790	810.004	622.134
413.496	23.908	809.538	622.136
414.511	23.818	809.098	621.426
415.526	23.597	808.745	620.328
416.540	23.644	808.367	620.148
417.555	23.620	807.715	619.507
418.569	23.770	807.397	619.733
419.584	23.584	807.143	618.835
420.599	23.603	806.425	618.297
421.613	163.256	1372.273	1796.500
422.628	142.005	1454.719	1796.593
