DTS Sentinel unit serial number:	SN413079Multiplexer serial number:	ORYXHardware model number:	OX4-SRSoftware version number:	ORYX F/W v4.00 Oryx Data Collector v3.7.2.0data status	okinstallation	princeton_trtdifferential loss correction	single-endedforward channel	channel 1reverse channel	N/Adate	2019/09/11time	21:16:11forward acquisition time	60.00reverse acquisition time	0.00gamma	496.2192k internal	0.2308k external	0.2308temperature offset calibration	1.0052default loss term (dB/km)	0.3790temperature slope calibration	1.0000multiplexer offset coefficient	1.0000multiplexer slope coefficient	1.0000fibre end	0.00T internal ref (°C)	36.31T ext. ref 1 (°C)	1.64T ext. ref 2 (°C)	30.32length (m)	temperature (°C)	Stokes	anti-Stokes-747.200	230.657	-0.130	0.217
-746.185	782.920	-0.240	0.669
-745.171	351.062	0.040	0.080
-744.156	88.064	0.301	0.339
-743.142	15.906	-0.077	-0.062
-742.127	-200.000	0.044	0.271
-741.112	38.655	-0.214	-0.194
-740.098	-163.788	-0.433	0.021
-739.083	-200.000	0.009	0.333
-738.069	-200.000	0.044	0.579
-737.054	-20.949	0.161	0.100
-736.039	-55.258	-0.124	0.057
-735.025	-120.194	0.378	0.066
-734.010	96.914	-0.170	-0.198
-732.996	-200.000	0.006	0.242
-731.981	-91.437	-0.205	-0.059
-730.966	-125.363	0.212	-0.033
-729.952	800.000	0.077	0.296
-728.937	-200.000	0.046	0.239
-727.923	-83.570	-0.256	-0.083
-726.908	-91.678	-0.086	-0.025
-725.894	226.838	-0.145	-0.239
-724.879	38.122	-0.194	-0.175
-723.864	-183.197	0.217	-0.004
-722.850	-200.000	0.046	-0.234
-721.835	69.343	-0.085	-0.089
-720.821	-96.015	-0.166	-0.045
-719.806	595.317	-0.075	-0.187
-718.791	-34.551	0.217	-0.121
-717.777	448.128	0.135	0.302
-716.762	36.398	-0.284	0.254
-715.748	-7.883	0.263	0.180
-714.733	200.379	-0.095	-0.148
-713.718	-18.506	0.288	-0.182
-712.704	-66.322	0.398	0.161
-711.689	-200.000	0.026	-0.188
-710.675	-67.128	0.470	-0.188
-709.660	100.343	-0.187	-0.220
-708.645	-200.000	-0.003	-0.048
-707.631	-120.750	-0.116	0.020
-706.616	-111.646	-0.317	0.065
-705.602	-200.000	0.004	-0.036
-704.587	-200.000	-0.008	0.046
-703.572	214.186	-0.039	-0.062
-702.558	-102.104	0.269	-0.066
-701.543	258.212	-0.123	-0.215
-700.529	800.000	-0.034	0.125
-699.514	-78.755	-0.085	-0.029
-698.499	-200.000	0.010	0.068
-697.485	60.174	0.211	-0.212
-696.470	468.064	0.075	-0.171
-695.456	-105.650	-0.091	0.021
-694.441	-200.000	-0.018	-0.162
-693.426	-13.042	0.113	-0.074
-692.412	-200.000	0.009	-0.361
-691.397	-141.224	-0.030	0.003
-690.383	-130.118	-0.262	-0.036
-689.368	800.000	0.149	-0.528
-688.354	204.287	-0.145	0.227
-687.339	800.000	0.045	0.179
-686.324	721.501	-0.046	0.124
-685.310	-56.025	0.293	-0.132
-684.295	-86.901	0.113	0.035
-683.281	-86.885	-0.158	-0.049
-682.266	554.771	-0.080	-0.196
-681.251	-58.203	-0.158	-0.070
-680.237	502.465	0.101	0.237
-679.222	-10.230	-0.142	-0.095
-678.208	30.929	0.166	0.145
-677.193	800.000	-0.051	0.150
-676.178	-200.000	-0.066	0.649
-675.164	-200.000	0.051	-0.261
-674.149	490.288	-0.038	0.089
-673.135	-80.798	0.244	0.082
-672.120	800.000	0.017	0.066
-671.105	481.468	-0.132	-0.303
-670.091	-176.476	-0.126	0.003
-669.076	-15.401	0.306	-0.198
-668.062	321.649	0.133	-0.256
-667.047	-200.000	0.020	-0.254
-666.032	228.822	-0.088	0.145
-665.018	69.587	-0.186	-0.194
-664.003	800.000	0.065	0.186
-662.989	259.437	0.154	-0.269
-661.974	383.099	0.147	-0.307
-660.959	40.861	-0.251	0.229
-659.945	-200.000	-0.023	0.292
-658.930	-200.000	0.024	0.235
-657.916	-39.794	0.056	0.029
-656.901	264.558	0.135	-0.238
-655.886	-37.640	-0.236	-0.127
-654.872	800.000	0.088	-0.254
-653.857	215.666	-0.209	-0.335
-652.843	-108.844	-0.167	-0.036
-651.828	264.038	0.074	-0.130
-650.814	800.000	-0.121	0.340
-649.799	354.616	0.047	0.094
-648.784	12.267	-0.061	-0.048
-647.770	159.335	0.056	0.079
-646.755	800.000	-0.074	-0.254
-645.741	-54.181	0.145	-0.067
-644.726	-146.102	0.163	0.015
-643.711	-200.000	-0.009	0.201
-642.697	120.646	0.175	-0.220
-641.682	-130.702	0.214	0.029
-640.668	510.417	-0.047	-0.111
-639.653	-22.335	0.291	-0.179
-638.638	-200.000	-0.013	-0.247
-637.624	425.263	0.035	-0.077
-636.609	-44.545	0.088	0.045
-635.595	-84.145	-0.360	-0.116
-634.580	284.472	-0.178	-0.324
-633.565	503.730	0.082	-0.191
-632.551	76.266	-0.373	-0.400
-631.536	4.157	-0.214	0.159
-630.522	-89.495	-0.142	-0.042
-629.507	-200.000	-0.008	-0.198
-628.492	800.000	0.023	0.071
-627.478	-119.308	-0.245	-0.043
-626.463	42.972	0.180	0.166
-625.449	772.693	0.087	-0.239
-624.434	179.217	-0.121	-0.179
-623.419	123.562	-0.115	0.146
-622.405	-200.000	-0.007	-0.077
-621.390	-200.000	0.014	-0.257
-620.376	-54.754	-0.095	-0.043
-619.361	-112.954	-0.287	0.057
-618.346	390.514	-0.096	-0.202
-617.332	65.768	0.102	-0.104
-616.317	800.000	-0.020	-0.079
-615.303	87.646	-0.137	-0.153
-614.288	-63.578	-0.525	-0.218
-613.273	39.625	-0.123	0.111
-612.259	-200.000	-0.011	-0.087
-611.244	187.619	0.086	-0.129
-610.230	-36.980	-0.188	-0.102
-609.215	-200.000	0.048	-0.241
-608.201	55.485	0.268	-0.262
-607.186	290.012	-0.086	-0.157
-606.171	800.000	-0.017	0.072
-605.157	-172.169	0.157	0.005
-604.142	-118.141	0.459	-0.083
-603.128	800.000	0.021	0.077
-602.113	-132.045	0.316	-0.042
-601.098	-200.000	-0.003	-0.179
-600.084	737.249	-0.149	0.405
-599.069	-79.197	-0.503	0.172
-598.055	-110.492	0.301	0.063
-597.040	800.000	-0.014	-0.039
-596.025	512.230	-0.074	0.174
-595.011	-74.563	0.101	0.037
-593.996	-53.943	-0.194	-0.090
-592.982	-200.000	0.012	0.068
-591.967	-106.608	-0.080	-0.018
-590.952	-77.776	0.236	-0.082
-589.938	800.000	0.108	0.355
-588.923	-200.000	0.035	0.179
-587.909	137.327	-0.060	0.079
-586.894	551.753	-0.119	0.289
-585.879	49.238	0.181	-0.172
-584.865	119.444	-0.146	0.182
-583.850	7.620	0.126	0.095
-582.836	800.000	-0.068	0.247
-581.821	800.000	-0.011	0.046
-580.806	-108.660	-0.214	-0.046
-579.792	106.487	0.197	-0.235
-578.777	-200.000	-0.010	0.084
-577.763	533.553	0.077	0.184
-576.748	-105.563	-0.264	0.060
-575.733	44.929	-0.216	0.201
-574.719	800.000	0.103	-0.289
-573.704	-103.422	-0.199	-0.047
-572.690	694.973	-0.077	0.205
-571.675	-200.000	-0.006	-0.160
-570.661	29.569	-0.261	-0.224
-569.646	29.392	-0.248	-0.212
-568.631	179.621	-0.124	0.183
-567.617	371.575	-0.050	0.102
-566.602	326.488	0.060	0.116
-565.588	267.473	0.094	0.166
-564.573	399.876	-0.122	-0.258
-563.558	-163.308	-0.193	0.009
-562.544	-200.000	-0.025	0.272
-561.529	663.794	0.013	-0.035
-560.515	-200.000	0.029	0.330
-559.500	125.674	0.056	0.071
-558.485	14.055	0.134	-0.105
-557.471	402.299	-0.119	-0.252
-556.456	-200.000	-0.003	0.053
-555.442	-185.900	-0.059	0.001
-554.427	-118.172	-0.249	0.045
-553.412	448.122	-0.146	-0.325
-552.398	43.292	-0.367	-0.338
-551.383	800.000	-0.028	0.125
-550.369	307.580	0.056	0.105
-549.354	-64.293	0.100	-0.041
-548.339	-119.719	0.092	-0.016
-547.325	-10.842	-0.279	-0.186
-546.310	753.015	0.090	0.246
-545.296	-112.429	-0.269	0.054
-544.281	119.024	-0.118	0.148
-543.266	87.185	-0.017	-0.018
-542.252	26.610	0.238	-0.201
-541.237	800.000	0.025	-0.090
-540.223	-102.624	0.294	-0.071
-539.208	800.000	-0.009	-0.036
-538.193	-73.516	0.419	0.154
-537.179	93.875	0.163	0.187
-536.164	114.397	-0.277	-0.340
-535.150	114.268	-0.105	0.129
-534.135	771.110	-0.089	-0.243
-533.121	-21.407	0.301	-0.185
-532.106	800.000	-0.082	0.250
-531.091	-175.082	0.116	0.003
-530.077	157.636	-0.081	0.114
-529.062	403.779	-0.036	-0.076
-528.048	-109.696	-0.128	-0.027
-527.033	45.983	0.094	0.088
-526.018	-2.402	0.227	0.160
-525.004	800.000	-0.079	0.227
-523.989	800.000	-0.120	0.337
-522.975	-106.238	0.264	0.060
-521.960	-200.000	-0.013	-0.239
-520.945	93.283	-0.098	-0.111
-519.931	23.181	0.206	-0.170
-518.916	800.000	0.050	0.150
-517.902	480.055	0.083	-0.189
-516.887	800.000	-0.042	0.146
-515.872	120.766	-0.104	0.130
-514.858	233.489	0.144	-0.239
-513.843	-35.002	-0.155	-0.085
-512.829	369.223	-0.164	0.334
-511.814	65.066	0.209	0.213
-510.799	-49.857	-0.096	-0.046
-509.785	180.449	-0.175	0.258
-508.770	-200.000	0.052	0.362
-507.756	-26.764	0.113	0.066
-506.741	738.871	0.070	0.190
-505.726	-20.500	-0.110	-0.068
-504.712	-68.600	-0.155	-0.060
-503.697	386.725	0.118	-0.246
-502.683	76.959	-0.186	-0.199
-501.668	11.804	0.135	0.104
-500.653	-14.156	0.160	-0.104
-499.639	-30.797	-0.334	-0.190
-498.624	-200.000	0.011	-0.224
-497.610	-10.140	-0.194	0.130
-496.595	-87.406	0.150	0.046
-495.581	-200.000	-0.006	-0.339
-494.566	9.724	-0.386	-0.295
-493.551	-68.166	-0.160	0.063
-492.537	-200.000	-0.041	-0.256
-491.522	116.554	0.076	-0.094
-490.508	-66.035	0.253	-0.102
-489.493	800.000	0.084	-0.290
-488.478	-200.000	-0.015	-0.083
-487.464	595.755	0.177	0.441
-486.449	606.366	0.052	0.132
-485.435	-200.000	0.014	0.079
-484.420	787.351	0.072	0.199
-483.405	130.694	0.123	-0.158
-482.391	58.252	-0.152	-0.150
-481.376	-180.981	0.222	0.004
-480.362	687.294	-0.041	-0.108
-479.347	-114.405	-0.208	-0.040
-478.332	-63.560	-0.304	-0.125
-477.318	-200.000	-0.032	0.188
-476.303	185.574	-0.046	-0.069
-475.289	-104.171	0.146	-0.034
-474.274	-83.175	0.310	-0.100
-473.259	788.281	-0.046	0.126
-472.245	-176.272	0.214	0.006
-471.230	149.917	0.111	0.151
-470.216	281.342	-0.135	0.243
-469.201	800.000	0.045	-0.138
-468.186	-47.981	0.284	-0.138
-467.172	-68.703	-0.212	-0.083
-466.157	-12.040	0.135	-0.089
-465.143	-71.875	-0.232	0.087
-464.128	155.168	0.163	0.225
-463.113	-200.000	-0.019	0.216
-462.099	217.363	-0.118	0.188
-461.084	-200.000	-0.002	-0.137
-460.070	70.071	0.152	0.157
-459.055	-104.751	0.447	-0.103
-458.040	27.811	-0.131	-0.111
-457.026	-200.000	-0.045	-0.238
-456.011	-39.144	0.154	-0.081
-454.997	78.950	0.238	0.257
-453.982	800.000	0.060	-0.205
-452.968	128.490	0.242	-0.310
-451.953	-5.764	0.242	0.166
-450.938	103.851	0.118	-0.139
-449.924	-89.551	0.360	-0.106
-448.909	800.000	-0.076	0.251
-447.895	-121.988	0.154	0.026
-446.880	401.881	-0.141	0.297
-445.865	335.633	-0.202	0.394
-444.851	490.996	0.066	-0.151
-443.836	800.000	0.042	-0.178
-442.822	18.888	-0.332	-0.267
-441.807	-6.966	-0.174	-0.119
-440.792	-54.448	0.281	0.128
-439.778	-33.361	-0.079	-0.044
-438.763	-127.279	-0.253	-0.037
-437.749	-30.904	0.106	0.060
-436.734	-0.716	-0.121	0.086
-435.719	-96.994	0.354	-0.093
-434.705	764.659	0.098	-0.266
-433.690	-200.000	-0.073	-0.368
-432.676	-200.000	0.026	-0.201
-431.661	108.088	0.074	0.089
-430.646	-84.264	-0.110	-0.035
-429.632	234.246	-0.043	0.072
-428.617	-200.000	-0.040	-0.187
-427.603	-84.582	-0.091	-0.029
-426.588	-128.342	-0.299	0.043
-425.573	-200.000	0.013	0.121
-424.559	29.238	-0.099	0.085
-423.544	1.545	0.373	-0.269
-422.530	-73.952	0.313	-0.114
-421.515	225.089	-0.133	-0.217
-420.500	-200.000	0.037	-0.231
-419.486	-200.000	0.038	-0.464
-418.471	466.383	0.104	0.234
-417.457	713.622	-0.118	-0.315
-416.442	-135.801	0.365	-0.043
-415.428	-200.000	0.021	0.136
-414.413	-167.593	0.124	0.005
-413.398	-200.000	0.007	0.236
-412.384	-200.000	-0.011	0.380
-411.369	599.740	-0.060	-0.149
-410.355	21.574	-0.185	-0.151
-409.340	-200.000	-0.011	0.090
-408.325	185.469	-0.110	0.164
-407.311	130.466	0.042	0.054
-406.296	-93.533	0.060	-0.017
-405.282	19.698	-0.414	0.334
-404.267	-13.146	-0.138	0.090
-403.252	-85.620	0.133	-0.042
-402.238	-158.702	0.091	0.005
-401.223	-47.040	-0.230	0.112
-400.209	-200.000	0.090	0.412
-399.194	186.078	0.078	0.116
-398.179	-18.744	0.201	0.126
-397.165	-104.420	0.178	0.041
-396.150	227.630	0.149	-0.244
-395.136	-16.721	-0.297	0.188
-394.121	210.611	0.128	-0.202
-393.106	-200.000	-0.016	0.295
-392.092	-1.753	-0.472	0.333
-391.077	142.303	0.121	-0.161
-390.063	-82.177	0.380	0.124
-389.048	131.085	0.119	0.153
-388.033	-102.502	-0.272	0.065
-387.019	58.259	0.159	0.156
-386.004	-200.000	0.058	0.299
-384.990	-105.392	-0.435	0.099
-383.975	43.851	-0.157	0.144
-382.960	92.898	0.081	0.092
-381.946	0.784	-0.280	-0.201
-380.931	-16.619	0.171	-0.108
-379.917	-200.000	0.012	0.124
-378.902	-200.000	0.001	0.194
-377.888	-88.824	0.045	-0.013
-376.873	-7.763	-0.388	-0.263
-375.858	540.846	0.127	0.304
-374.844	-122.359	-0.361	-0.059
-373.829	332.516	0.146	-0.283
-372.815	-27.632	0.279	0.163
-371.800	-46.818	-0.281	-0.138
-370.785	-200.000	0.053	-0.435
-369.771	-20.380	0.038	0.023
-368.756	-104.323	-0.108	-0.025
-367.742	-46.057	-0.249	0.123
-366.727	-131.503	0.268	-0.035
-365.712	121.093	-0.039	-0.049
-364.698	-74.845	0.215	0.077
-363.683	-200.000	-0.025	-0.178
-362.669	-100.618	-0.211	0.052
-361.654	-70.376	-0.066	-0.025
-360.639	122.324	0.173	0.217
-359.625	800.000	-0.024	-0.073
-358.610	166.661	-0.092	-0.130
-357.596	-200.000	0.004	0.038
-356.581	-107.119	0.303	0.067
-355.566	68.978	-0.115	0.118
-354.552	-187.416	0.154	0.002
-353.537	-82.732	-0.126	-0.041
-352.523	49.032	0.158	0.148
-351.508	-52.890	-0.159	0.073
-350.493	-200.000	-0.019	-0.240
-349.479	23.761	0.261	0.216
-348.464	800.000	-0.040	-0.132
-347.450	-60.815	0.082	-0.035
-346.435	50.883	-0.135	-0.128
-345.420	-140.689	0.387	-0.040
-344.406	800.000	-0.029	-0.085
-343.391	-151.334	-0.327	0.024
-342.377	4.635	0.230	0.169
-341.362	681.324	0.126	0.328
-340.348	-76.012	-0.146	-0.052
-339.333	177.251	0.098	-0.143
-338.318	800.000	0.088	0.358
-337.304	-200.000	0.044	0.261
-336.289	327.864	-0.121	-0.232
-335.275	-163.592	0.228	-0.011
-334.260	-200.000	0.011	0.054
-333.245	-197.486	0.184	-0.001
-332.231	34.123	0.162	0.141
-331.216	120.093	-0.253	-0.313
-330.202	-200.000	0.011	0.150
-329.187	-16.810	0.329	0.208
-328.172	496.716	-0.117	0.269
-327.158	14.936	-0.048	-0.037
-326.143	490.677	0.067	-0.153
-325.129	178.685	0.206	-0.300
-324.114	-106.329	-0.102	-0.023
-323.099	178.642	0.071	-0.103
-322.085	606.042	0.137	0.342
-321.070	6.242	0.157	0.116
-320.056	58.454	0.175	-0.171
-319.041	800.000	-0.104	-0.367
-318.026	-72.506	0.118	-0.044
-317.012	135.707	0.219	-0.285
-315.997	30.455	0.245	0.209
-314.983	-112.843	0.198	-0.039
-313.968	-179.448	-0.318	-0.007
-312.953	-93.777	0.163	-0.045
-311.939	-61.237	0.304	-0.128
-310.924	67.844	-0.085	-0.086
-309.910	98.362	0.147	-0.170
-308.895	178.008	0.121	-0.177
-307.880	-200.000	-0.005	-0.271
-306.866	800.000	0.101	-0.292
-305.851	800.000	-0.025	-0.085
-304.837	-147.488	0.224	0.019
-303.822	-162.087	-0.266	-0.013
-302.807	90.068	-0.071	0.080
-301.793	800.000	0.053	-0.222
-300.778	800.000	0.127	-0.354
-299.764	-118.679	0.270	-0.048
-298.749	-74.187	0.405	-0.146
-297.735	-127.857	0.415	-0.060
-296.720	-38.876	0.302	-0.159
-295.705	-95.953	0.176	0.047
-294.691	800.000	-0.067	-0.258
-293.676	-49.422	-0.103	-0.049
-292.662	-197.185	-0.450	0.003
-291.647	460.843	0.067	-0.149
-290.632	42.686	0.070	-0.064
-289.618	-200.000	0.009	-0.168
-288.603	-10.575	-0.303	0.200
-287.589	-94.870	0.328	0.089
-286.574	-0.076	0.331	-0.235
-285.559	-74.831	-0.169	0.061
-284.545	-54.194	0.195	-0.089
-283.530	-183.762	-0.097	-0.002
-282.516	-134.645	-0.271	0.033
-281.501	-200.000	0.023	0.196
-280.486	-3.066	0.317	0.221
-279.472	-200.000	0.009	0.067
-278.457	-162.150	-0.369	0.018
-277.443	391.201	-0.067	0.138
-276.428	-200.000	-0.053	0.248
-275.413	800.000	-0.016	0.056
-274.399	800.000	0.118	0.347
-273.384	-52.118	0.078	0.036
-272.370	-106.534	-0.073	0.016
-271.355	97.089	-0.181	0.207
-270.340	127.236	0.091	0.116
-269.326	215.750	-0.071	0.113
-268.311	6.737	-0.140	0.104
-267.297	-29.219	-0.363	0.208
-266.282	-26.226	0.083	-0.048
-265.267	800.000	0.044	0.138
-264.253	6.644	-0.239	0.177
-263.238	58.035	-0.181	0.177
-262.224	-150.372	-0.113	0.009
-261.209	-62.677	-0.271	0.112
-260.195	-64.548	-0.108	-0.044
-259.180	290.534	-0.049	-0.089
-258.165	381.921	0.007	-0.015
-257.151	-30.928	0.143	0.081
-256.136	800.000	0.053	-0.180
-255.122	38.787	-0.115	-0.103
-254.107	11.041	0.218	0.166
-253.092	30.730	0.049	0.042
-252.078	-84.864	0.080	0.025
-251.063	-200.000	0.031	-0.294
-250.049	-72.863	0.273	0.100
-249.034	-41.228	-0.440	0.226
-248.019	347.273	0.052	0.102
-247.005	-165.091	0.110	0.005
-245.990	27.090	-0.051	-0.043
-244.976	-200.000	0.020	0.120
-243.961	-137.929	-0.088	-0.010
-242.946	54.454	-0.127	-0.122
-241.932	800.000	-0.075	-0.288
-240.917	82.061	0.081	-0.087
-239.903	-135.392	0.328	-0.039
-238.888	84.525	-0.067	-0.073
-237.873	341.604	0.039	-0.075
-236.859	2.383	-0.285	0.206
-235.844	24.239	-0.106	-0.087
-234.830	-70.572	-0.176	-0.066
-233.815	-121.180	0.141	0.023
-232.800	-200.000	0.024	-0.135
-231.786	90.595	-0.255	0.285
-230.771	210.887	0.204	-0.320
-229.757	-61.032	-0.054	-0.023
-228.742	-93.498	0.176	-0.049
-227.727	-187.984	-0.539	-0.007
-226.713	-180.122	-0.466	-0.010
-225.698	92.680	-0.203	0.229
-224.684	800.000	0.076	0.324
-223.669	-100.686	0.071	0.018
-222.655	-20.002	0.267	-0.164
-221.640	490.001	0.058	0.132
-220.625	107.133	-0.282	0.334
-219.611	22.085	0.442	-0.359
-218.596	0.167	-0.074	-0.052
-217.582	106.412	0.269	-0.317
-216.567	-200.000	0.051	-0.273
-215.552	-63.024	0.170	0.070
-214.538	800.000	-0.075	0.223
-213.523	778.745	-0.052	-0.141
-212.509	27.591	-0.160	0.134
-211.494	208.274	-0.242	0.377
-210.479	391.020	0.037	0.077
-209.465	-41.353	0.022	-0.011
-208.450	133.169	0.234	0.301
-207.436	286.086	0.009	0.016
-206.421	-200.000	-0.043	-0.204
-205.406	-143.023	0.042	0.004
-204.392	113.996	0.118	0.143
-203.377	-146.789	-0.078	0.007
-202.363	-103.052	0.069	-0.016
-201.348	-108.126	-0.321	0.069
-200.333	729.273	0.030	0.081
-199.319	-183.447	-0.175	0.003
-198.304	-106.739	-0.399	-0.088
-197.290	-200.000	0.014	0.112
-196.275	800.000	-0.042	0.179
-195.260	-4.210	-0.497	0.342
-194.246	247.005	0.005	0.009
-193.231	-200.000	-0.007	-0.248
-192.217	-23.359	-0.247	0.148
-191.202	79.247	-0.070	0.074
-190.187	-11.375	0.221	0.145
-189.173	33.614	0.123	0.106
-188.158	-152.104	0.437	0.032
-187.144	228.411	0.071	0.116
-186.129	-126.847	0.169	-0.025
-185.114	-33.547	-0.131	-0.072
-184.100	162.252	-0.213	0.297
-183.085	-200.000	0.007	-0.195
-182.071	800.000	-0.025	-0.084
-181.056	32.054	-0.195	0.167
-180.042	-55.921	0.092	0.041
-179.027	-200.000	0.000	0.014
-178.012	-52.678	-0.123	0.057
-176.998	-69.549	-0.354	0.135
-175.983	800.000	-0.052	0.180
-174.969	-112.772	0.350	-0.069
-173.954	-70.356	-0.235	-0.088
-172.939	163.775	0.116	0.162
-171.925	24.350	0.305	0.250
-170.910	-34.095	-0.161	0.088
-169.896	109.370	-0.104	0.124
-168.881	58.032	-0.120	-0.116
-167.866	193.519	-0.092	-0.138
-166.852	-155.972	0.253	0.016
-165.837	-86.632	0.179	0.055
-164.823	92.649	0.105	0.118
-163.808	-200.000	-0.066	0.458
-162.793	105.132	0.178	-0.209
-161.779	756.941	-0.027	0.073
-160.764	55.248	0.064	-0.061
-159.750	213.274	0.087	-0.136
-158.735	493.727	-0.081	0.185
-157.720	-200.000	0.025	-0.220
-156.706	-138.546	0.035	-0.004
-155.691	-200.000	0.000	0.055
-154.677	585.532	0.070	-0.170
-153.662	-156.218	-0.216	-0.014
-152.647	580.406	-0.052	-0.128
-151.633	640.666	0.029	-0.072
-150.618	-59.651	0.105	0.045
-149.604	22.494	0.241	-0.196
-148.589	-200.000	-0.020	0.101
-147.574	91.500	0.188	-0.210
-146.560	219.924	0.075	0.119
-145.545	-200.000	0.040	-0.590
-144.531	23.024	-0.175	0.143
-143.516	108.205	-0.036	0.043
-142.502	-200.000	0.021	-0.398
-141.487	-37.930	-0.075	-0.040
-140.472	280.847	0.026	-0.047
-139.458	335.783	-0.105	0.202
-138.443	800.000	-0.048	0.172
-137.429	-200.000	0.006	0.367
-136.414	-64.584	0.248	-0.100
-135.399	-144.603	-0.232	-0.021
-134.385	-200.000	0.030	-0.335
-133.370	7.098	0.047	0.035
-132.356	-85.748	0.042	-0.013
-131.341	568.329	0.142	0.342
-130.326	364.738	0.101	0.202
-129.312	-119.323	0.024	-0.004
-128.297	-200.000	0.002	-0.119
-127.283	-200.000	0.051	-0.235
-126.268	55.461	0.119	-0.114
-125.253	-118.073	-0.019	-0.003
-124.239	-200.000	0.184	0.001
-123.224	63.615	-0.079	-0.079
-122.210	-130.562	-0.268	-0.036
-121.195	-148.553	0.354	0.029
-120.180	800.000	-0.113	-0.344
-119.166	-200.000	-0.004	-0.138
-118.151	-125.164	-0.297	-0.045
-117.137	-104.000	0.277	-0.064
-116.122	21.723	0.217	-0.175
-115.107	-200.000	-0.006	-0.030
-114.093	580.057	0.016	0.040
-113.078	37.600	0.100	0.088
-112.064	562.900	0.133	-0.319
-111.049	-120.035	0.088	-0.015
-110.034	-100.902	-0.269	0.066
-109.020	90.337	0.140	0.156
-108.005	-43.856	-0.182	0.091
-106.991	-104.678	0.095	-0.022
-105.976	-70.965	0.292	-0.109
-104.962	-200.000	-0.009	0.135
-103.947	-127.315	0.190	-0.027
-102.932	-200.000	-0.002	0.293
-101.918	-200.000	0.039	0.299
-100.903	49.146	0.131	-0.122
-99.889	155.882	0.148	0.202
-98.874	-107.868	0.268	0.058
-97.859	-200.000	-0.036	0.345
-96.845	-84.684	0.196	-0.061
-95.830	-92.020	0.207	0.058
-94.816	143.538	0.198	0.262
-93.801	359.308	-0.078	-0.154
-92.786	114.643	0.280	0.338
-91.772	556.948	-0.076	-0.182
-90.757	-146.538	0.196	-0.017
-89.743	-95.688	-0.335	0.089
-88.728	-139.035	0.224	0.024
-87.713	-200.000	0.073	0.419
-86.699	-200.000	0.323	0.000
-85.684	122.640	0.059	0.074
-84.670	592.664	0.126	0.308
-83.655	80.309	0.179	0.191
-82.640	125.561	0.249	0.312
-81.626	18.278	-0.182	-0.144
-80.611	-168.413	0.289	-0.011
-79.597	-200.000	-0.005	0.204
-78.582	41.566	-0.130	0.116
-77.567	-200.000	0.087	0.550
-76.553	-200.000	-0.063	0.335
-75.538	-63.306	-0.161	0.066
-74.524	27.601	-0.022	0.018
-73.509	27.178	0.051	0.043
-72.494	89.005	-0.107	0.118
-71.480	119.079	0.128	-0.157
-70.465	800.000	-0.101	-0.277
-69.451	-200.000	-0.039	0.193
-68.436	194.020	-0.080	-0.120
-67.422	-88.603	-0.163	0.048
-66.407	-117.818	0.087	-0.015
-65.392	72.317	-0.305	0.314
-64.378	-11.108	-0.325	0.212
-63.363	-200.000	0.007	0.237
-62.349	241.264	-0.181	0.300
-61.334	167.625	-0.648	-0.912
-60.319	446.407	0.187	0.408
-59.305	195.826	-0.354	-0.532
-58.290	386.560	0.573	1.172
-57.276	304.719	0.646	1.186
-56.261	-200.000	91.411	551.639
-55.246	540.355	1363.501	3211.490
-54.232	153.373	2571.641	3482.517
-53.217	116.949	2169.996	2636.009
-52.203	47.959	1629.977	1506.475
-51.188	39.838	1365.777	1212.635
-50.173	36.456	1322.914	1154.366
-49.159	58.313	1370.762	1329.401
-48.144	62.737	1389.377	1374.228
-47.130	40.165	1344.320	1195.370
-46.115	36.497	1326.396	1157.463
-45.100	36.103	1321.962	1151.196
-44.086	36.163	1319.206	1149.107
-43.071	36.198	1316.673	1147.064
-42.057	36.182	1314.773	1145.271
-41.042	36.200	1312.706	1143.527
-40.027	36.236	1311.792	1142.901
-39.013	36.248	1309.570	1140.990
-37.998	36.300	1307.689	1139.617
-36.984	36.306	1305.591	1137.774
-35.969	36.385	1304.220	1137.003
-34.954	36.373	1302.157	1135.085
-33.940	36.440	1301.142	1134.551
-32.925	36.459	1299.481	1133.168
-31.911	36.449	1298.219	1131.968
-30.896	36.445	1296.836	1130.690
-29.881	36.418	1295.699	1129.494
-28.867	36.522	1293.821	1128.423
-27.852	36.406	1292.747	1126.762
-26.838	36.455	1290.999	1125.480
-25.823	36.393	1289.909	1124.126
-24.809	36.363	1288.359	1122.556
-23.794	36.392	1286.996	1121.489
-22.779	36.428	1285.291	1120.173
-21.765	36.353	1284.545	1119.042
-20.750	36.278	1283.138	1117.339
-19.736	36.347	1281.870	1116.590
-18.721	36.339	1280.648	1115.434
-17.706	36.203	1279.742	1113.811
-16.692	36.306	1277.827	1112.698
-15.677	36.282	1276.910	1111.717
-14.663	36.268	1276.086	1110.875
-13.648	36.100	1275.242	1109.129
-12.633	36.365	1273.549	1109.136
-11.619	36.219	1273.136	1107.891
-10.604	36.294	1272.054	1107.334
-9.590	36.101	1271.590	1105.784
-8.575	36.146	1270.694	1105.217
-7.560	36.181	1269.440	1104.282
-6.546	36.160	1268.840	1103.596
-5.531	36.121	1267.942	1102.548
-4.517	36.268	1266.661	1102.230
-3.502	36.135	1266.012	1100.860
-2.487	36.248	1264.798	1100.408
-1.473	36.257	1260.379	1096.570
-0.458	34.702	1245.221	1074.599
0.556	30.976	1226.918	1034.275
1.571	27.106	1231.721	1016.627
2.586	26.040	1246.174	1022.430
3.600	24.978	1235.793	1007.847
4.615	18.204	1160.571	910.494
5.629	7.096	1081.020	792.652
6.644	2.038	1058.568	751.268
7.659	1.604	1055.799	747.103
8.673	1.466	1054.600	745.511
9.688	1.464	1053.455	744.631
10.702	2.038	1052.147	746.447
11.717	8.863	1061.977	786.956
12.731	19.123	1077.042	848.896
13.746	23.825	1082.399	876.285
14.761	24.436	1083.237	879.900
15.775	24.459	1082.455	879.299
16.790	24.229	1081.734	877.505
17.804	24.146	1081.218	876.598
18.819	24.291	1080.509	876.663
19.834	24.393	1080.405	877.002
20.848	24.488	1079.484	876.643
21.863	24.474	1079.035	876.132
22.877	24.379	1078.515	875.168
23.892	24.291	1077.923	874.174
24.907	24.410	1077.292	874.170
25.921	24.456	1075.726	873.047
26.936	24.377	1074.465	871.562
27.950	24.364	1072.838	870.102
28.965	24.242	1070.941	867.892
29.980	24.345	1069.263	866.955
30.994	24.589	1068.536	867.476
32.009	24.362	1067.599	865.535
33.023	24.208	1066.579	863.886
34.038	24.373	1065.541	863.768
35.053	24.470	1064.945	863.676
36.067	24.469	1064.017	862.840
37.082	24.470	1063.242	862.141
38.096	24.661	1062.499	862.384
39.111	24.660	1062.043	861.933
40.126	24.582	1060.588	860.304
41.140	24.248	1058.348	856.802
42.155	24.027	1057.441	854.930
43.169	24.077	1056.718	854.510
44.184	24.112	1055.223	853.393
45.199	23.997	1054.698	852.343
46.213	24.126	1053.727	852.103
47.228	24.251	1053.239	852.230
48.242	24.340	1052.410	851.909
49.257	24.523	1051.342	851.842
50.271	24.595	1050.547	851.464
51.286	24.537	1049.919	850.602
52.301	24.570	1048.898	849.857
53.315	24.344	1048.236	848.174
54.330	24.351	1047.077	847.192
55.344	24.438	1046.695	847.220
56.359	24.479	1045.215	846.145
57.374	24.128	1044.328	843.687
58.388	24.138	1044.150	843.519
59.403	24.194	1042.858	842.664
60.417	24.067	1041.610	840.981
61.432	24.065	1041.309	840.656
62.447	24.314	1040.190	840.848
63.461	24.224	1040.042	840.232
64.476	24.031	1038.967	838.380
65.490	24.034	1037.997	837.538
66.505	24.106	1037.591	837.475
67.520	24.166	1036.700	836.965
68.534	23.998	1035.245	834.926
69.549	23.790	1033.986	832.863
70.563	23.617	1033.954	831.951
71.578	23.710	1032.962	831.515
72.593	23.582	1031.701	829.828
73.607	23.738	1031.487	830.310
74.622	23.919	1031.347	830.974
75.636	24.053	1030.341	830.715
76.651	23.847	1029.495	828.995
77.666	23.754	1029.028	828.113
78.680	23.724	1028.663	827.607
79.695	23.951	1027.532	827.678
80.709	24.049	1026.785	827.458
81.724	23.967	1026.233	826.560
82.739	24.030	1025.404	826.113
83.753	24.523	1024.418	827.529
84.768	24.727	1024.227	828.251
85.782	24.776	1022.912	827.339
86.797	24.712	1022.586	826.706
87.812	24.536	1021.288	824.771
88.826	24.638	1020.387	824.440
89.841	24.735	1019.481	824.084
90.855	24.623	1018.839	822.974
91.870	24.665	1017.744	822.209
92.884	24.429	1016.620	820.147
93.899	24.477	1015.340	819.259
94.914	24.584	1014.959	819.372
95.928	24.593	1013.634	818.270
96.943	24.262	1012.668	815.905
97.957	24.058	1011.644	814.076
98.972	23.872	1010.307	812.077
99.987	24.223	1009.803	813.202
101.001	24.397	1008.982	813.262
102.016	24.501	1007.631	812.574
103.030	24.266	1007.508	811.335
104.045	24.238	1006.108	810.006
105.060	23.975	1005.095	807.925
106.074	24.143	1005.073	808.597
107.089	24.591	1004.001	809.698
108.103	24.396	1002.999	807.935
109.118	24.168	1001.877	805.928
110.133	24.079	1000.990	804.741
111.147	23.869	999.796	802.763
112.162	23.780	998.803	801.492
113.176	24.066	998.217	802.240
114.191	23.978	997.216	800.967
115.206	23.705	996.315	798.947
116.220	23.691	995.397	798.074
117.235	23.858	994.501	798.035
118.249	24.036	993.908	798.289
119.264	23.721	993.058	796.121
120.279	23.679	992.407	795.342
121.293	23.816	991.801	795.402
122.308	23.906	990.417	794.621
123.322	23.896	989.465	793.741
124.337	23.785	988.220	792.179
125.352	23.312	986.792	788.858
126.366	23.236	985.480	787.403
127.381	23.917	985.612	790.466
128.395	24.277	985.400	791.825
129.410	24.388	984.438	791.474
130.424	24.325	983.908	790.698
131.439	24.327	982.534	789.534
132.454	24.400	981.829	789.221
133.468	24.247	981.013	787.816
134.483	24.423	980.434	788.060
135.497	24.610	979.494	788.060
136.512	24.652	978.635	787.486
137.527	24.743	977.938	787.253
138.541	24.705	976.982	786.247
139.556	24.597	976.120	785.012
140.570	24.647	975.606	784.745
141.585	24.745	974.288	784.048
142.600	24.680	973.288	782.890
143.614	24.818	973.035	783.219
144.629	24.980	971.950	782.986
145.643	24.676	970.888	780.735
146.658	24.657	969.318	779.318
147.673	24.494	968.295	777.717
148.687	24.569	966.949	776.894
149.702	24.323	966.173	775.133
150.716	24.407	965.265	774.700
151.731	24.536	964.750	774.779
152.746	24.720	964.231	775.092
153.760	24.738	963.807	774.759
154.775	24.741	963.567	774.509
155.789	24.691	962.446	773.324
156.804	24.558	961.677	772.063
157.819	24.777	960.278	771.816
158.833	24.913	959.994	772.107
159.848	24.994	958.655	771.309
160.862	24.894	957.259	769.690
161.877	24.653	956.787	768.207
162.892	24.914	955.754	768.427
163.906	24.744	954.371	766.520
164.921	24.735	954.057	766.161
165.935	24.832	952.533	765.287
166.950	24.820	951.907	764.662
167.964	24.703	951.248	763.566
168.979	24.540	949.913	761.734
169.994	24.615	949.075	761.313
171.008	24.744	948.774	761.554
172.023	24.821	947.487	760.780
173.037	24.636	946.369	759.028
174.052	24.462	945.623	757.624
175.067	24.514	945.035	757.307
176.081	24.533	944.836	757.161
177.096	24.456	943.825	755.957
178.110	24.357	942.495	754.406
179.125	24.169	942.177	753.290
180.140	24.152	941.610	752.700
181.154	24.345	941.704	753.525
182.169	24.631	941.335	754.369
183.183	24.814	940.693	754.558
184.198	24.665	940.060	753.356
185.213	24.597	939.329	752.418
186.227	24.822	938.320	752.490
187.242	24.660	938.034	751.515
188.256	24.854	936.961	751.402
189.271	24.917	936.334	751.096
190.286	24.504	935.398	748.549
191.300	23.805	934.450	744.795
192.315	23.118	932.459	740.267
193.329	23.028	932.278	739.683
194.344	24.015	932.315	743.773
195.359	24.578	932.314	746.058
196.373	24.827	931.319	746.234
197.388	24.611	931.039	745.044
198.402	24.603	930.458	744.480
199.417	24.757	929.758	744.496
200.432	24.406	928.570	742.020
201.446	24.215	927.998	740.703
202.461	24.342	927.354	740.652
203.475	23.410	925.840	735.512
204.490	22.628	924.089	730.814
205.504	23.473	924.658	734.701
206.519	24.170	924.579	737.462
207.534	24.253	924.393	737.590
208.548	24.772	923.669	739.091
209.563	24.437	923.357	737.394
210.577	24.431	922.583	736.684
211.592	24.872	921.924	737.914
212.607	24.842	920.743	736.780
213.621	24.811	920.521	736.407
214.636	24.780	919.942	735.753
215.650	24.734	918.877	734.646
216.665	24.958	918.429	735.142
217.680	24.873	917.691	734.138
218.694	24.422	916.545	731.309
219.709	24.193	915.867	729.766
220.723	24.519	915.618	730.839
221.738	24.530	914.623	730.024
222.753	24.578	914.160	729.787
223.767	24.788	913.501	730.053
224.782	24.950	913.559	730.694
225.796	24.978	912.857	730.184
226.811	24.337	911.392	726.338
227.826	23.668	909.745	722.239
228.840	23.812	909.376	722.466
229.855	23.916	908.626	722.231
230.869	23.615	907.383	719.958
231.884	23.941	907.900	721.627
232.899	24.632	907.803	724.288
233.913	24.439	907.375	723.101
234.928	24.553	906.800	723.039
235.942	24.614	905.469	722.161
236.957	24.087	905.244	719.788
237.972	24.200	904.467	719.563
238.986	24.384	903.928	719.812
240.001	24.298	903.555	719.107
241.015	24.447	903.040	719.230
242.030	24.497	902.531	718.962
243.045	24.634	902.258	719.235
244.059	24.808	901.637	719.377
245.074	24.640	900.504	717.735
246.088	24.377	899.407	715.739
247.103	24.660	899.083	716.556
248.117	25.120	899.420	718.602
249.132	25.341	898.866	718.980
250.147	25.435	898.292	718.834
251.161	25.580	897.883	719.025
252.176	25.401	897.522	717.956
253.190	25.523	896.694	717.716
254.205	25.716	896.402	718.192
255.220	25.624	895.864	717.327
256.234	25.584	894.566	716.066
257.249	25.458	894.060	715.097
258.263	25.584	893.181	714.830
259.278	25.720	892.915	715.097
260.293	25.606	892.716	714.419
261.307	25.480	891.714	713.056
262.322	25.222	890.879	711.303
263.336	24.483	888.948	706.772
264.351	23.584	886.929	701.551
265.366	23.783	886.489	701.930
266.380	24.724	887.331	706.253
267.395	25.035	886.987	707.143
268.409	25.231	886.197	707.225
269.424	25.262	885.742	706.922
270.439	25.364	885.138	706.778
271.453	25.405	884.685	706.513
272.468	25.566	884.263	706.749
273.482	25.686	883.852	706.829
274.497	25.308	882.209	703.971
275.512	24.940	881.647	702.015
276.526	25.310	881.701	703.448
277.541	25.495	881.508	703.953
278.555	25.142	880.888	702.017
279.570	24.966	880.098	700.634
280.585	25.105	879.581	700.704
281.599	25.187	878.303	699.947
282.614	24.535	877.277	696.525
283.628	24.489	876.742	695.860
284.643	25.054	876.310	697.654
285.657	24.604	875.370	695.095
286.672	24.297	874.145	692.865
287.687	24.822	874.377	695.030
288.701	24.913	873.845	694.899
289.716	24.599	873.036	692.977
290.730	24.593	872.236	692.255
291.745	24.389	871.266	690.637
292.760	24.556	870.993	691.004
293.774	25.601	871.383	695.295
294.789	25.881	870.982	695.994
295.803	25.884	870.780	695.783
296.818	26.047	869.669	695.461
297.833	25.354	868.727	691.979
298.847	25.304	867.948	691.102
299.862	25.695	867.760	692.399
300.876	25.953	867.483	693.108
301.891	25.791	866.900	691.958
302.906	25.332	866.187	689.564
303.920	25.435	866.012	689.762
304.935	25.920	865.195	690.909
305.949	25.844	864.818	690.253
306.964	25.557	864.206	688.607
307.979	25.529	863.907	688.201
308.993	26.097	863.201	689.749
310.008	25.999	862.576	688.814
311.022	25.583	861.967	686.678
312.037	25.665	860.734	685.946
313.052	25.367	859.841	684.040
314.066	24.572	858.739	680.078
315.081	24.063	858.174	677.633
316.095	25.036	858.531	681.557
317.110	25.506	858.250	683.059
318.125	24.610	856.872	678.502
319.139	23.733	855.161	673.763
320.154	23.617	855.072	673.194
321.168	24.530	855.372	676.832
322.183	25.137	855.561	679.223
323.197	25.447	855.162	680.017
324.212	25.714	854.534	680.468
325.227	25.548	853.826	679.218
326.241	25.381	853.570	678.325
327.256	25.501	852.853	678.146
328.270	25.386	851.975	676.953
329.285	25.207	851.323	675.702
330.300	24.959	850.568	674.112
331.314	25.282	850.305	675.057
332.329	25.637	850.366	676.379
333.343	25.802	849.895	676.567
334.358	25.649	849.406	675.542
335.373	25.837	849.170	676.000
336.387	25.977	849.173	676.468
337.402	26.339	848.876	677.530
338.416	26.021	848.352	675.858
339.431	26.225	848.218	676.457
340.446	26.269	847.971	676.366
341.460	26.219	847.624	675.840
342.475	26.006	846.621	674.184
343.489	25.989	846.505	673.971
344.504	26.525	845.822	675.366
345.519	26.675	845.792	675.843
346.533	26.594	845.423	675.187
347.548	26.492	844.961	674.377
348.562	26.553	844.136	673.886
349.577	26.537	843.331	673.126
350.592	26.622	842.577	672.780
351.606	26.440	842.216	671.756
352.621	26.289	841.081	670.231
353.635	26.228	840.387	669.393
354.650	25.785	838.548	666.230
355.665	24.806	837.386	661.628
356.679	25.120	837.254	662.628
357.694	25.596	837.100	664.207
358.708	25.422	836.199	662.789
359.723	25.914	836.313	664.637
360.738	26.150	836.136	665.307
361.752	26.196	835.592	664.983
362.767	26.497	835.488	665.951
363.781	26.761	835.132	666.580
364.796	26.964	834.398	666.681
365.810	26.872	834.474	666.345
366.825	26.750	833.979	665.442
367.840	26.712	832.437	664.012
368.854	26.261	831.931	661.900
369.869	26.261	831.429	661.441
370.883	26.375	830.726	661.242
371.898	26.110	830.636	660.141
372.913	26.347	829.933	660.390
373.927	26.458	829.674	660.532
374.942	26.458	829.444	660.287
375.956	26.548	829.293	660.439
376.971	26.816	828.982	661.110
377.986	26.947	828.484	661.131
379.000	26.874	827.718	660.195
380.015	26.721	826.823	658.867
381.029	26.679	826.643	658.512
382.044	26.930	825.967	658.826
383.059	26.812	825.497	657.967
384.073	26.940	824.964	657.946
385.088	26.847	824.589	657.253
386.102	26.598	823.311	655.274
387.117	26.594	823.087	655.026
388.132	26.229	821.576	652.445
389.146	25.981	820.727	650.817
390.161	26.072	821.011	651.315
391.175	26.488	820.656	652.477
392.190	26.123	819.988	650.571
393.205	24.831	817.686	644.041
394.219	23.445	815.963	637.647
395.234	23.414	815.442	637.072
396.248	24.877	817.098	643.573
397.263	26.437	817.804	649.681
398.278	26.298	817.585	648.951
399.292	26.232	816.725	647.973
400.307	26.045	816.682	647.212
401.321	26.314	815.734	647.364
402.336	26.617	815.786	648.434
403.350	27.003	815.865	649.824
404.365	27.430	815.367	650.896
405.380	27.565	815.258	651.233
406.394	27.558	814.461	650.515
407.409	27.543	813.987	650.022
408.423	27.516	813.653	649.603
409.438	27.737	813.153	649.934
410.453	27.632	813.117	649.475
411.467	27.519	812.351	648.402
412.482	27.586	811.951	648.262
413.496	27.644	811.570	648.107
414.511	27.743	811.150	648.065
415.526	27.605	810.722	647.178
416.540	27.463	809.815	645.895
417.555	27.096	809.459	644.252
418.569	27.296	809.097	644.613
419.584	27.237	808.454	643.838
420.599	27.172	807.586	642.858
421.613	106.051	1278.006	1434.457
422.628	91.538	1346.558	1434.579
