DTS Sentinel unit serial number:	SN413079Multiplexer serial number:	ORYXHardware model number:	OX4-SRSoftware version number:	ORYX F/W v4.00 Oryx Data Collector v3.7.2.0data status	okinstallation	princeton_trtdifferential loss correction	single-endedforward channel	channel 1reverse channel	N/Adate	2019/09/12time	20:01:34forward acquisition time	15.00reverse acquisition time	0.00gamma	496.2192k internal	0.2323k external	0.2323temperature offset calibration	1.0123default loss term (dB/km)	0.3790temperature slope calibration	1.0000multiplexer offset coefficient	1.0000multiplexer slope coefficient	1.0000fibre end	0.00T internal ref (°C)	31.75T ext. ref 1 (°C)	3.36T ext. ref 2 (°C)	26.26length (m)	temperature (°C)	Stokes	anti-Stokes-747.200	199.533	0.213	0.330
-746.185	-200.000	-0.093	0.489
-745.171	-69.343	-0.636	-0.246
-744.156	-121.746	1.019	-0.170
-743.142	-58.729	-0.260	-0.114
-742.127	31.102	1.255	-1.087
-741.112	-53.068	0.291	-0.135
-740.098	-122.649	-0.929	-0.152
-739.083	261.529	0.570	-0.997
-738.069	82.070	-0.180	0.197
-737.054	2.867	-0.284	-0.208
-736.039	88.690	-0.385	-0.432
-735.025	234.089	0.194	-0.322
-734.010	-86.743	0.298	0.092
-732.996	-200.000	-0.042	-0.629
-731.981	164.640	0.747	1.063
-730.966	800.000	-0.060	-0.222
-729.952	49.871	-0.510	-0.485
-728.937	-80.630	-0.364	0.122
-727.923	-122.207	-0.433	0.071
-726.908	-130.511	-1.442	-0.197
-725.894	167.015	0.269	0.385
-724.879	464.661	-0.297	0.669
-723.864	-170.279	-0.511	-0.018
-722.850	-200.000	0.164	0.920
-721.835	-81.899	-0.152	0.050
-720.821	-49.274	0.331	0.159
-719.806	-150.099	0.242	-0.019
-718.791	5.953	-0.345	0.258
-717.777	-200.000	0.033	-0.385
-716.762	-48.453	0.789	0.383
-715.748	-195.769	-0.468	-0.003
-714.733	86.091	0.356	-0.396
-713.718	311.882	0.325	0.614
-712.704	-130.069	0.376	-0.052
-711.689	248.894	0.173	-0.296
-710.675	97.387	-0.413	-0.479
-709.660	696.688	-0.064	-0.170
-708.645	-13.668	0.533	0.348
-707.631	90.560	-0.306	0.346
-706.616	-4.110	0.231	-0.161
-705.602	59.989	0.984	-0.980
-704.587	-80.729	0.898	0.301
-703.572	-117.052	0.197	0.036
-702.558	-63.934	-0.411	-0.170
-701.543	276.811	-0.354	-0.634
-700.529	-59.904	0.463	-0.200
-699.514	-200.000	0.177	-0.834
-698.499	-39.076	-0.607	-0.322
-697.485	-132.039	1.192	-0.156
-696.470	159.987	-0.436	0.613
-695.456	87.817	-0.518	0.579
-694.441	-42.054	-0.479	0.247
-693.426	123.090	0.386	-0.487
-692.412	-100.083	-0.372	0.093
-691.397	494.185	0.219	0.506
-690.383	241.150	0.223	0.375
-689.368	-200.000	0.047	0.680
-688.354	-97.237	0.318	-0.084
-687.339	-141.282	0.518	0.053
-686.324	-200.000	0.029	0.437
-685.310	-149.027	0.777	0.063
-684.295	800.000	0.075	0.259
-683.281	52.526	0.444	-0.427
-682.266	-200.000	-0.044	-0.351
-681.251	-37.109	0.335	0.181
-680.237	-99.785	-0.244	0.061
-679.222	109.825	0.578	-0.698
-678.208	16.490	0.701	0.557
-677.193	790.229	-0.287	-0.793
-676.178	18.837	-0.619	-0.499
-675.164	196.316	0.172	0.264
-674.149	-157.953	-0.486	-0.029
-673.135	-56.111	-0.492	-0.221
-672.120	-45.923	0.667	-0.331
-671.105	-16.028	0.162	0.104
-670.091	800.000	0.177	-0.706
-669.076	75.281	-0.280	-0.297
-668.062	291.798	0.212	0.389
-667.047	317.666	-0.130	-0.248
-666.032	-164.015	0.628	-0.029
-665.018	398.767	0.126	-0.266
-664.003	-95.175	0.578	0.157
-662.989	-109.480	0.456	-0.097
-661.974	140.587	-0.355	-0.472
-660.959	800.000	-0.171	0.497
-659.945	-200.000	0.003	0.040
-658.930	116.035	0.340	0.419
-657.916	753.040	0.233	0.634
-656.901	-98.962	0.511	0.130
-655.886	800.000	-0.092	0.372
-654.872	-138.317	0.365	0.041
-653.857	0.227	0.326	-0.234
-652.843	87.452	-0.378	-0.421
-651.828	-3.976	0.084	0.058
-650.814	57.465	-0.547	0.538
-649.799	-119.572	0.193	-0.034
-648.784	88.168	0.437	0.488
-647.770	-200.000	0.026	-0.607
-646.755	68.850	0.474	0.489
-645.741	170.775	-0.452	0.652
-644.726	151.773	0.218	-0.298
-643.711	-200.000	0.061	0.398
-642.697	283.985	0.126	-0.228
-641.682	50.323	0.437	-0.415
-640.668	75.547	-0.298	0.316
-639.653	-72.785	-0.420	0.156
-638.638	48.724	-0.318	-0.300
-637.624	84.075	0.528	0.580
-636.609	181.054	0.210	0.311
-635.595	-64.459	-0.109	-0.044
-634.580	-148.678	-0.620	-0.051
-633.565	297.571	0.438	-0.810
-632.551	-16.102	-0.913	-0.583
-631.536	-81.635	0.908	-0.300
-630.522	-70.863	-0.075	-0.028
-629.507	-200.000	-0.059	0.569
-628.492	-120.120	-0.180	0.031
-627.478	61.629	0.199	0.199
-626.463	226.741	0.681	-1.112
-625.449	150.573	-0.266	-0.364
-624.434	172.853	0.109	-0.157
-623.419	-89.992	-0.263	-0.077
-622.405	76.159	-0.606	0.645
-621.390	-61.558	-0.561	-0.237
-620.376	-200.000	0.003	0.623
-619.361	602.810	0.540	-1.349
-618.346	-200.000	-0.090	-0.561
-617.332	48.272	0.151	-0.142
-616.317	-86.615	-0.401	-0.124
-615.303	356.534	-0.245	-0.490
-614.288	115.639	0.433	0.531
-613.273	-200.000	0.126	-0.639
-612.259	93.958	-0.614	0.699
-611.244	-69.557	0.100	-0.039
-610.230	-15.054	-0.676	-0.435
-609.215	-127.220	-0.750	-0.110
-608.201	86.474	-0.284	-0.315
-607.186	-200.000	-0.015	-0.086
-606.171	-1.903	-0.440	0.311
-605.157	-19.669	-0.318	0.198
-604.142	800.000	-0.285	-0.875
-603.128	-77.583	-0.951	0.331
-602.113	183.598	0.295	0.438
-601.098	800.000	-0.099	-0.376
-600.084	-200.000	0.116	0.802
-599.069	93.227	-0.387	0.440
-598.055	68.604	0.139	-0.143
-597.040	14.149	-0.377	-0.295
-596.025	57.962	-0.544	0.535
-595.011	-178.255	-0.901	-0.021
-593.996	-100.868	0.494	0.122
-592.982	153.989	0.924	-1.272
-591.967	-10.020	-0.300	-0.200
-590.952	-200.000	-0.075	1.111
-589.938	187.719	-0.374	0.560
-588.923	53.233	0.174	-0.167
-587.909	-50.480	-0.921	0.436
-586.894	-200.000	-0.162	0.841
-585.879	182.538	-0.464	-0.687
-584.865	-134.852	0.473	-0.058
-583.850	35.959	-0.095	-0.084
-582.836	-72.452	-0.398	-0.148
-581.821	800.000	0.106	0.389
-580.806	-102.332	0.357	0.086
-579.792	394.551	0.239	-0.499
-578.777	-100.633	-0.133	-0.033
-577.763	87.486	0.653	0.725
-576.748	-200.000	0.078	-0.358
-575.733	554.135	-0.476	-1.149
-574.719	-90.435	-0.418	-0.122
-573.704	747.569	-0.306	-0.826
-572.690	326.535	0.202	-0.389
-571.675	478.176	0.282	-0.639
-570.661	58.986	-0.389	0.384
-569.646	-135.241	0.268	-0.032
-568.631	14.040	-0.802	-0.626
-567.617	-200.000	0.029	-0.208
-566.602	-162.467	-0.661	-0.033
-565.588	-44.649	0.119	-0.060
-564.573	79.454	0.317	0.341
-563.558	800.000	-0.349	1.137
-562.544	-136.323	0.639	-0.075
-561.529	-200.000	0.098	0.583
-560.515	-116.767	-0.610	-0.112
-559.500	65.009	-0.317	0.321
-558.485	800.000	0.058	0.169
-557.471	10.453	0.335	-0.256
-556.456	-151.974	-0.110	-0.008
-555.442	-25.004	0.647	0.385
-554.427	-116.841	0.564	0.104
-553.412	32.960	0.384	-0.333
-552.398	-124.506	-0.445	0.069
-551.383	800.000	0.041	0.167
-550.369	-159.606	-0.390	0.022
-549.354	-145.762	-0.542	-0.048
-548.339	-45.054	0.597	0.297
-547.325	-127.061	-0.455	-0.067
-546.310	48.926	-0.537	0.505
-545.296	-200.000	0.098	-0.745
-544.281	-178.182	-0.377	-0.009
-543.266	189.413	0.078	-0.117
-542.252	-53.854	0.948	0.433
-541.237	268.596	0.092	0.161
-540.223	-127.403	0.469	0.068
-539.208	-109.408	0.640	0.136
-538.193	-38.589	0.686	-0.363
-537.179	6.761	-0.225	-0.168
-536.164	-86.220	0.776	0.240
-535.150	18.782	-0.108	-0.086
-534.135	-107.095	-1.198	-0.265
-533.121	-125.991	0.546	0.082
-532.106	-118.255	-0.208	0.037
-531.091	74.466	0.275	-0.289
-530.077	114.477	0.231	0.282
-529.062	-45.955	-1.308	0.646
-528.048	-150.381	0.024	0.002
-527.033	-75.281	0.593	-0.212
-526.018	-96.381	-0.342	0.091
-525.004	-200.000	0.084	0.386
-523.989	-132.231	0.436	-0.057
-522.975	-152.065	0.217	0.016
-521.960	86.828	0.606	0.670
-520.945	-81.799	-0.380	-0.124
-519.931	-105.203	-0.466	-0.107
-518.916	68.869	0.800	-0.822
-517.902	-24.251	0.029	-0.017
-516.887	-65.986	0.294	0.118
-515.872	-143.935	0.301	0.028
-514.858	-76.505	0.197	0.069
-513.843	-88.875	0.408	-0.121
-512.829	-200.000	-0.044	-0.814
-511.814	-17.443	0.533	-0.336
-510.799	-75.722	0.332	0.118
-509.785	-195.726	0.309	-0.002
-508.770	-57.867	0.785	-0.343
-507.756	-114.250	0.270	0.052
-506.741	-200.000	0.016	-0.448
-505.726	7.357	0.495	0.370
-504.712	-2.434	-0.178	0.125
-503.697	-17.369	-0.365	-0.230
-502.683	-37.394	0.167	0.089
-501.668	67.095	0.307	0.313
-500.653	55.291	-0.466	-0.451
-499.639	800.000	0.198	-0.860
-498.624	152.357	0.297	-0.405
-497.610	-90.410	-0.400	0.116
-496.595	800.000	0.183	0.547
-495.581	-23.692	0.693	-0.415
-494.566	800.000	-0.052	-0.216
-493.551	-200.000	0.044	0.227
-492.537	-62.278	0.437	0.182
-491.522	107.801	0.159	0.189
-490.508	-36.985	0.328	0.176
-489.493	48.829	-0.555	0.520
-488.478	-144.433	0.320	0.030
-487.464	-164.033	0.369	-0.017
-486.449	245.475	0.238	0.400
-485.435	-200.000	-0.102	0.718
-484.420	-103.500	-0.497	-0.117
-483.405	-65.623	-0.327	0.131
-482.391	90.336	-0.429	-0.479
-481.376	-95.548	-0.290	-0.078
-480.362	-200.000	0.116	-0.710
-479.347	-43.808	0.079	0.040
-478.332	-30.598	-0.198	0.112
-477.318	-200.000	0.147	0.812
-476.303	-200.000	0.074	-0.625
-475.289	-91.306	-0.634	0.181
-474.274	274.611	0.261	-0.461
-473.259	-54.115	0.373	0.169
-472.245	-136.630	-0.661	-0.076
-471.230	-23.335	-0.476	0.286
-470.216	54.095	0.479	-0.460
-469.201	16.891	-0.476	-0.377
-468.186	-200.000	-0.092	-0.649
-467.172	490.421	-0.291	0.664
-466.157	118.820	0.621	0.766
-465.143	-52.133	-0.191	-0.088
-464.128	-171.156	0.486	-0.016
-463.113	50.788	0.550	0.520
-462.099	490.275	-0.009	0.020
-461.084	-66.789	-0.771	-0.305
-460.070	179.174	0.254	-0.372
-459.055	26.566	-0.677	0.565
-458.040	45.175	0.667	0.614
-457.026	106.137	0.306	-0.361
-456.011	143.564	-0.276	0.368
-454.997	-84.810	0.847	-0.266
-453.982	-18.768	0.872	-0.543
-452.968	229.084	-0.415	-0.675
-451.953	128.688	0.452	0.575
-450.938	-72.999	-0.272	-0.100
-449.924	-127.297	0.331	0.048
-448.909	-92.942	-0.482	-0.134
-447.895	-129.131	-0.837	0.117
-446.880	-2.001	0.301	0.211
-445.865	589.879	-0.179	-0.440
-444.851	125.267	0.257	-0.324
-443.836	-200.000	0.010	0.076
-442.822	30.686	-0.823	-0.703
-441.807	281.389	-0.276	0.493
-440.792	8.323	-0.454	0.341
-439.778	750.376	-0.041	-0.109
-438.763	28.155	0.370	-0.311
-437.749	272.420	-0.255	0.450
-436.734	-100.134	-0.771	-0.192
-435.719	100.205	-0.679	-0.786
-434.705	-57.415	0.497	-0.218
-433.690	-55.931	-0.428	0.190
-432.676	-24.684	0.525	-0.311
-431.661	-200.000	0.123	-0.620
-430.646	-64.113	0.506	-0.206
-429.632	-141.387	0.712	0.072
-428.617	-200.000	-0.027	-0.247
-427.603	-10.617	0.175	0.116
-426.588	-200.000	0.079	-0.455
-425.573	-200.000	0.106	-0.533
-424.559	29.745	0.154	0.131
-423.544	-65.304	-0.444	-0.178
-422.530	-200.000	-0.025	0.194
-421.515	764.150	-0.243	0.657
-420.500	800.000	0.118	0.477
-419.486	-15.174	-0.415	-0.265
-418.471	-90.998	0.602	0.173
-417.457	519.518	0.130	0.304
-416.442	-54.737	0.941	0.424
-415.428	-21.925	0.051	-0.031
-414.413	-32.849	-0.593	-0.329
-413.398	-97.321	-1.322	-0.343
-412.384	-182.096	-0.575	-0.011
-411.369	-200.000	-0.126	0.694
-410.355	14.888	-0.521	-0.407
-409.340	-30.867	-0.580	0.327
-408.325	291.658	-0.396	-0.717
-407.311	-200.000	0.108	-0.760
-406.296	-200.000	0.021	0.293
-405.282	-200.000	0.022	-0.584
-404.267	-29.960	0.707	-0.401
-403.252	-200.000	0.040	-0.269
-402.238	178.339	0.091	-0.133
-401.223	-200.000	0.160	-1.866
-400.209	-21.677	-0.875	0.531
-399.194	-96.785	0.163	0.043
-398.179	128.207	0.498	-0.632
-397.165	1.948	0.386	-0.278
-396.150	800.000	-0.171	0.567
-395.136	800.000	0.125	0.357
-394.121	-24.596	0.387	0.229
-393.106	109.829	0.269	-0.321
-392.092	-104.317	-0.364	-0.084
-391.077	81.658	0.188	-0.202
-390.063	31.671	0.466	0.399
-389.048	265.908	0.239	0.416
-388.033	-151.655	0.829	0.061
-387.019	760.762	-0.077	-0.208
-386.004	-118.312	0.917	0.162
-384.990	331.801	-0.268	0.515
-383.975	-34.353	-0.392	-0.214
-382.960	-92.121	-0.286	-0.081
-381.946	-200.000	0.135	-0.661
-380.931	-200.000	-0.067	-0.382
-379.917	-200.000	-0.135	0.657
-378.902	-12.362	0.349	-0.227
-377.888	31.046	-0.163	-0.139
-376.873	638.929	0.097	0.246
-375.858	-79.874	0.112	-0.038
-374.844	-54.579	-0.206	-0.093
-373.829	-66.974	-0.369	0.145
-372.815	800.000	0.332	0.917
-371.800	231.946	-0.384	0.627
-370.785	-133.228	0.511	0.064
-369.771	800.000	-0.134	0.568
-368.756	-9.051	-0.310	-0.207
-367.742	800.000	0.150	-0.561
-366.727	-159.433	-0.730	0.040
-365.712	-200.000	0.004	0.575
-364.698	-200.000	-0.098	1.431
-363.683	-200.000	-0.186	0.916
-362.669	403.117	-0.149	-0.312
-361.654	76.996	-0.321	-0.340
-360.639	140.175	0.265	0.348
-359.625	95.553	-0.332	0.377
-358.610	158.943	0.274	-0.378
-357.596	800.000	-0.268	-0.878
-356.581	64.112	0.210	0.210
-355.566	161.701	-0.273	0.380
-354.552	-131.431	-0.299	-0.039
-353.537	-200.000	0.018	0.301
-352.523	-85.981	-0.693	-0.213
-351.508	-52.478	0.769	0.354
-350.493	-41.624	-0.302	0.154
-349.479	-168.396	-1.065	-0.041
-348.464	800.000	-0.119	0.350
-347.450	-66.767	0.296	-0.117
-346.435	93.297	-0.333	0.375
-345.420	800.000	0.288	-0.874
-344.406	290.037	0.186	-0.336
-343.391	800.000	-0.109	0.331
-342.377	-106.237	-0.503	0.112
-341.362	800.000	-0.257	-1.071
-340.348	-200.000	-0.094	-0.638
-339.333	241.231	-0.235	-0.390
-338.318	-200.000	-0.176	-0.776
-337.304	98.577	-0.552	0.632
-336.289	-130.562	-0.984	-0.132
-335.275	636.837	0.088	0.223
-334.260	-200.000	0.021	0.627
-333.245	-20.798	1.080	0.658
-332.231	394.458	-0.210	-0.436
-331.216	101.745	0.347	-0.402
-330.202	-200.000	0.538	0.002
-329.187	-45.835	0.409	-0.201
-328.172	-75.242	-0.832	0.295
-327.158	149.735	-0.422	-0.568
-326.143	137.270	0.509	0.661
-325.129	-26.425	-0.357	-0.208
-324.114	29.526	0.260	0.219
-323.099	-200.000	-0.060	-0.603
-322.085	94.125	-0.198	0.224
-321.070	363.074	0.101	-0.201
-320.056	-62.379	1.365	0.564
-319.041	-168.013	-0.387	-0.015
-318.026	-200.000	0.109	0.492
-317.012	140.351	-0.278	-0.365
-315.997	509.077	-0.120	-0.277
-314.983	16.140	0.573	0.448
-313.968	-158.685	0.340	-0.019
-312.953	-100.730	-0.708	-0.173
-311.939	54.345	-0.207	-0.198
-310.924	-200.000	0.152	0.985
-309.910	-34.238	-0.367	0.200
-308.895	34.546	0.542	0.470
-307.880	134.959	0.441	0.568
-306.866	-200.000	-0.089	-0.539
-305.851	167.424	-0.184	0.260
-304.837	-127.145	0.714	-0.104
-303.822	299.895	-0.085	-0.155
-302.807	-200.000	-0.101	0.610
-301.793	-135.649	-0.419	-0.049
-300.778	800.000	0.201	-0.658
-299.764	53.944	0.276	0.263
-298.749	83.347	0.622	0.672
-297.735	800.000	-0.157	-0.545
-296.720	-105.081	-0.197	0.045
-295.705	-100.223	-0.642	-0.158
-294.691	800.000	-0.209	-0.660
-293.676	-161.593	0.704	-0.036
-292.662	-36.598	-0.365	0.195
-291.647	800.000	-0.088	-0.378
-290.632	-83.591	0.216	0.069
-289.618	-200.000	0.057	0.560
-288.603	547.941	-0.120	-0.286
-287.589	353.496	-0.379	0.747
-286.574	133.519	0.382	0.490
-285.559	-64.435	0.430	0.173
-284.545	-182.069	0.529	-0.010
-283.530	678.116	0.130	0.336
-282.516	319.752	-0.133	0.250
-281.501	-200.000	-0.017	0.219
-280.486	-109.118	0.459	-0.097
-279.472	-31.066	0.478	-0.267
-278.457	-200.000	0.075	0.430
-277.443	-56.954	0.299	-0.131
-276.428	-137.823	0.342	-0.038
-275.413	-200.000	-0.061	-0.292
-274.399	748.292	0.249	-0.667
-273.384	-200.000	-0.102	0.598
-272.370	-200.000	-0.037	0.303
-271.355	-72.893	-0.393	0.143
-270.340	-200.000	0.101	0.644
-269.326	690.535	0.235	0.610
-268.311	111.174	-0.198	0.237
-267.297	-200.000	0.005	-0.261
-266.282	165.438	0.427	0.597
-265.267	-200.000	-0.012	-0.222
-264.253	-108.498	0.600	-0.128
-263.238	-71.291	1.015	0.377
-262.224	800.000	-0.199	-0.547
-261.209	-52.226	0.376	0.173
-260.195	-140.105	-0.911	0.095
-259.180	-200.000	0.139	-0.661
-258.165	-200.000	0.021	-0.269
-257.151	113.945	0.062	-0.075
-256.136	176.790	0.244	-0.352
-255.122	-168.578	0.296	-0.011
-254.107	13.998	0.465	-0.359
-253.092	-200.000	0.045	-0.922
-252.078	800.000	-0.047	-0.189
-251.063	800.000	0.190	0.739
-250.049	-200.000	-0.009	-0.346
-249.034	270.636	-0.251	-0.437
-248.019	1.380	-0.578	-0.412
-247.005	800.000	0.153	0.530
-245.990	198.212	0.365	-0.553
-244.976	800.000	-0.361	1.027
-243.961	-66.352	0.357	0.141
-242.946	-200.000	0.041	-0.220
-241.932	-141.691	0.556	0.055
-240.917	252.531	0.127	0.215
-239.903	230.103	0.165	0.267
-238.888	321.603	-0.271	-0.510
-237.873	511.699	-0.196	-0.451
-236.859	405.086	0.073	0.152
-235.844	-200.000	0.001	0.355
-234.830	-200.000	0.094	-0.622
-233.815	105.291	-0.308	-0.360
-232.800	17.625	-0.289	-0.227
-231.786	800.000	-0.156	-0.518
-230.771	-200.000	-0.070	-0.501
-229.757	-25.017	0.423	0.248
-228.742	-135.775	-0.577	-0.067
-227.727	-15.749	-0.053	-0.033
-226.713	-83.178	0.846	0.269
-225.698	-200.000	-0.041	0.555
-224.684	342.268	-0.136	0.264
-223.669	-71.565	1.141	-0.422
-222.655	-200.000	-0.008	0.265
-221.640	-81.466	-0.268	0.087
-220.625	-131.833	-0.321	0.042
-219.611	-200.000	0.038	0.322
-218.596	-137.431	0.425	0.048
-217.582	-36.644	-0.127	-0.068
-216.567	318.874	-0.302	0.567
-215.552	-95.090	-0.631	0.169
-214.538	29.744	0.335	0.282
-213.523	-96.690	0.178	0.046
-212.509	-178.997	-0.361	0.008
-211.494	55.022	0.065	-0.062
-210.479	-200.000	-0.110	0.664
-209.465	-200.000	0.123	0.882
-208.450	-41.182	0.792	-0.404
-207.436	-30.858	0.428	-0.239
-206.421	104.620	-0.653	-0.761
-205.406	800.000	0.077	0.222
-204.392	-200.000	-0.057	0.405
-203.377	-11.008	-0.078	-0.051
-202.363	12.997	-0.445	-0.341
-201.348	-75.029	0.252	-0.089
-200.333	-92.899	-0.860	0.237
-199.319	-137.110	-0.431	-0.049
-198.304	800.000	0.409	-1.245
-197.290	36.819	0.167	0.146
-196.275	-97.956	0.504	0.128
-195.260	800.000	-0.139	0.466
-194.246	-200.000	-0.086	-0.518
-193.231	51.419	-0.193	0.181
-192.217	800.000	-0.083	0.329
-191.202	-200.000	0.134	0.960
-190.187	-200.000	0.683	-0.001
-189.173	-152.884	0.353	0.025
-188.158	800.000	0.136	0.385
-187.144	194.205	-0.514	-0.769
-186.129	242.960	0.358	-0.593
-185.114	-156.625	0.673	0.041
-184.100	-16.132	-0.028	-0.018
-183.085	-39.125	-0.642	0.333
-182.071	62.701	0.323	0.319
-181.056	268.549	-0.080	-0.138
-180.042	227.770	-0.199	-0.319
-179.027	-138.651	0.618	0.067
-178.012	-30.042	-0.565	-0.318
-176.998	-54.507	-0.939	-0.420
-175.983	-144.491	-0.790	-0.072
-174.969	-200.000	-0.014	0.322
-173.954	-148.253	0.915	-0.074
-172.939	-200.000	-0.125	0.810
-171.925	52.429	0.075	-0.070
-170.910	277.031	-0.314	-0.550
-169.896	309.821	0.250	0.462
-168.881	-120.216	0.785	0.132
-167.866	-21.787	0.456	0.274
-166.852	121.234	-0.482	0.593
-165.837	-200.000	0.079	0.546
-164.823	353.913	0.274	0.536
-163.808	-20.791	-0.231	-0.140
-162.793	-104.823	-0.625	-0.142
-161.779	-200.000	0.055	1.181
-160.764	42.942	-0.146	0.131
-159.750	-83.931	-0.847	0.266
-158.735	82.581	-0.634	-0.680
-157.720	-81.080	0.614	-0.201
-156.706	800.000	-0.137	-0.541
-155.691	35.663	0.533	0.462
-154.677	126.626	-0.359	-0.449
-153.662	175.434	-0.212	0.303
-152.647	-19.594	-0.409	0.250
-151.633	-62.475	-0.423	-0.173
-150.618	-200.000	-0.191	-1.015
-149.604	29.625	0.459	0.385
-148.589	-61.914	-0.071	0.029
-147.574	294.479	-0.155	0.279
-146.560	175.658	0.271	-0.388
-145.545	94.622	0.035	-0.039
-144.531	-114.737	0.582	-0.110
-143.516	-50.320	0.645	-0.301
-142.502	134.074	-0.323	0.413
-141.487	-200.000	0.189	1.090
-140.472	-200.000	-0.047	0.351
-139.458	760.468	0.287	-0.766
-138.443	-54.621	0.127	-0.057
-137.429	496.260	0.109	0.246
-136.414	19.904	0.458	0.364
-135.399	-80.174	-0.259	-0.086
-134.385	125.361	0.247	-0.307
-133.370	281.940	-0.246	-0.435
-132.356	-46.515	0.254	0.123
-131.341	-58.914	0.442	-0.188
-130.326	111.402	-0.204	-0.242
-129.312	-55.363	0.480	-0.212
-128.297	77.226	-0.307	0.322
-127.283	-135.932	0.610	-0.071
-126.268	295.281	0.321	0.578
-125.253	-13.648	-0.264	0.168
-124.239	-64.155	0.538	0.216
-123.224	-32.888	0.058	0.032
-122.210	133.114	-0.326	-0.415
-121.195	-54.418	0.612	0.273
-120.180	-8.329	0.270	-0.179
-119.166	800.000	-0.077	0.288
-118.151	-56.085	0.582	0.255
-117.137	-0.684	0.509	0.355
-116.122	60.003	-0.275	0.267
-115.107	-200.000	-0.114	1.248
-114.093	168.659	0.344	0.482
-113.078	58.835	-0.525	-0.508
-112.064	731.219	-0.069	0.180
-111.049	298.302	0.471	-0.854
-110.034	-40.765	0.995	-0.508
-109.020	-200.000	0.012	-0.117
-108.005	-124.794	0.733	-0.112
-106.991	-42.267	-0.370	-0.186
-105.976	-200.000	0.072	0.339
-104.962	312.131	0.067	0.125
-103.947	114.257	0.396	0.474
-102.932	95.917	-0.180	0.202
-101.918	-87.980	0.828	0.245
-100.903	-162.242	0.229	-0.011
-99.889	-13.839	-0.822	-0.523
-98.874	149.519	-0.346	-0.461
-97.859	-128.019	-0.493	0.070
-96.845	353.221	-0.257	0.502
-95.830	-0.121	-0.992	0.695
-94.816	229.487	0.455	-0.732
-93.801	-24.973	0.447	0.261
-92.786	332.751	0.226	0.429
-91.772	10.797	0.694	-0.521
-90.757	506.510	0.024	0.056
-89.743	-116.017	-0.413	-0.076
-88.728	152.542	0.422	-0.567
-87.713	-200.000	0.156	0.681
-86.699	-163.987	0.132	0.006
-85.684	-56.170	0.782	0.343
-84.670	-111.099	0.618	0.125
-83.655	27.584	-0.434	-0.359
-82.640	-104.062	-0.234	0.054
-81.626	800.000	-0.067	0.215
-80.611	-156.375	-0.638	0.039
-79.597	-3.915	0.334	0.228
-78.582	345.267	-0.244	-0.471
-77.567	-76.283	0.706	-0.245
-76.553	46.818	-0.425	-0.389
-75.538	17.656	-0.310	-0.243
-74.524	177.450	0.353	-0.506
-73.509	-149.024	-0.269	0.021
-72.494	146.856	-0.677	-0.895
-71.480	-140.333	0.156	0.016
-70.465	84.958	-0.849	-0.915
-69.451	56.031	-0.339	-0.324
-68.436	-46.830	-0.195	0.094
-67.422	-23.842	-0.382	-0.225
-66.407	1.185	-0.469	-0.331
-65.392	324.634	-0.327	0.613
-64.378	-86.461	-0.066	0.020
-63.363	157.531	0.429	0.584
-62.349	800.000	-0.292	0.900
-61.334	-200.000	-0.158	-1.368
-60.319	-200.000	-0.133	0.865
-59.305	319.383	-0.714	-1.332
-58.290	195.712	0.980	1.465
-57.276	-200.000	0.088	1.504
-56.261	-200.000	98.654	605.634
-55.246	623.396	1375.087	3404.755
-54.232	201.067	2539.462	3840.683
-53.217	118.294	2118.601	2568.057
-52.203	43.704	1583.643	1424.275
-51.188	35.312	1323.750	1140.830
-50.173	32.223	1282.494	1087.389
-49.159	56.418	1334.408	1274.711
-48.144	57.238	1349.723	1294.118
-47.130	35.498	1308.201	1128.347
-46.115	31.924	1290.588	1092.341
-45.100	31.542	1285.087	1085.426
-44.086	31.874	1281.539	1084.303
-43.071	31.649	1279.993	1081.656
-42.057	31.590	1277.704	1079.338
-41.042	31.408	1276.908	1077.575
-40.027	31.467	1275.837	1076.967
-39.013	31.492	1273.702	1075.264
-37.998	31.762	1271.035	1074.521
-36.984	31.724	1269.800	1073.214
-35.969	31.945	1268.396	1073.252
-34.954	31.949	1266.062	1071.256
-33.940	31.782	1264.624	1069.045
-32.925	31.984	1263.713	1069.383
-31.911	31.872	1262.219	1067.438
-30.896	31.924	1260.235	1066.015
-29.881	31.726	1260.351	1064.944
-28.867	31.537	1259.734	1063.309
-27.852	32.202	1255.419	1063.386
-26.838	31.940	1255.662	1062.069
-25.823	31.820	1254.165	1060.080
-24.809	31.624	1253.266	1058.172
-23.794	31.852	1251.169	1057.644
-22.779	31.886	1250.065	1056.860
-21.765	31.569	1249.237	1054.335
-20.750	31.683	1247.833	1053.750
-19.736	31.936	1245.799	1053.411
-18.721	31.555	1244.392	1050.038
-17.706	31.780	1243.453	1050.466
-16.692	31.934	1241.758	1049.856
-15.677	31.855	1241.327	1049.010
-14.663	31.729	1241.028	1048.012
-13.648	31.583	1239.327	1045.717
-12.633	31.585	1239.059	1045.460
-11.619	31.626	1237.166	1044.047
-10.604	31.629	1237.114	1043.982
-9.590	31.620	1236.259	1043.168
-8.575	31.659	1233.991	1041.431
-7.560	31.612	1234.023	1041.154
-6.546	31.735	1233.749	1041.564
-5.531	31.623	1232.277	1039.661
-4.517	31.559	1230.982	1038.167
-3.502	31.595	1231.013	1038.356
-2.487	31.655	1229.346	1037.238
-1.473	31.372	1226.492	1033.225
-0.458	30.017	1210.907	1012.652
0.556	27.808	1192.393	974.754
1.571	23.719	1199.005	958.067
2.586	22.836	1212.647	964.060
3.600	22.422	1201.314	952.726
4.615	16.731	1129.318	866.517
5.629	7.592	1056.560	766.680
6.644	3.714	1036.872	733.931
7.659	3.218	1035.015	730.199
8.673	3.342	1030.865	727.795
9.688	3.167	1031.180	727.126
10.702	3.609	1029.950	728.281
11.717	9.036	1038.685	760.153
12.731	18.602	1050.590	814.430
13.746	23.593	1055.879	842.206
14.761	24.167	1056.211	845.121
15.775	23.750	1054.301	841.543
16.790	23.574	1053.633	840.102
17.804	22.969	1052.820	836.520
18.819	22.638	1053.248	835.217
19.834	23.170	1051.478	836.253
20.848	23.097	1051.565	835.904
21.863	22.948	1050.357	834.168
22.877	22.628	1050.416	832.629
23.892	22.769	1049.357	832.381
24.907	22.667	1049.041	831.577
25.921	22.324	1048.097	829.137
26.936	22.588	1045.877	828.547
27.950	22.638	1044.240	827.415
28.965	22.368	1044.022	825.900
29.980	22.673	1041.481	825.243
30.994	23.198	1040.946	827.200
32.009	22.780	1040.464	824.793
33.023	22.686	1039.862	823.805
34.038	22.833	1037.475	822.523
35.053	22.729	1036.468	821.172
36.067	22.711	1036.320	820.898
37.082	22.670	1035.389	819.894
38.096	22.915	1034.931	820.596
39.111	22.613	1035.195	819.330
40.126	22.396	1033.625	817.010
41.140	22.312	1031.196	814.629
42.155	22.030	1030.378	812.604
43.169	22.207	1028.912	812.196
44.184	21.832	1028.563	810.113
45.199	22.024	1027.137	809.808
46.213	22.135	1027.302	810.379
47.228	22.493	1027.381	812.017
48.242	22.908	1026.027	812.788
49.257	22.596	1025.622	810.960
50.271	22.800	1025.455	811.693
51.286	23.253	1023.433	812.100
52.301	22.833	1022.262	809.172
53.315	22.808	1021.396	808.301
54.330	22.555	1021.400	807.073
55.344	22.342	1021.087	805.781
56.359	22.315	1019.167	804.069
57.374	22.258	1018.762	803.420
58.388	22.354	1017.125	802.496
59.403	22.054	1016.677	800.705
60.417	21.983	1015.212	799.155
61.432	22.120	1014.818	799.399
62.447	22.062	1014.356	798.698
63.461	21.951	1013.515	797.465
64.476	21.888	1013.347	796.974
65.490	21.595	1011.824	794.378
66.505	21.773	1011.034	794.491
67.520	21.879	1010.069	794.146
68.534	21.981	1009.510	794.094
69.549	21.809	1008.479	792.439
70.563	21.511	1008.322	790.895
71.578	21.061	1006.967	787.733
72.593	21.097	1006.792	787.688
73.607	21.299	1005.398	787.438
74.622	21.384	1005.195	787.594
75.636	21.672	1003.940	787.837
76.651	21.339	1004.341	786.583
77.666	21.759	1002.429	786.901
78.680	21.423	1002.856	785.659
79.695	21.943	1000.315	785.925
80.709	21.964	1000.876	786.393
81.724	21.937	1000.315	785.759
82.739	22.259	998.935	786.047
83.753	22.690	999.056	787.997
84.768	22.827	999.922	789.225
85.782	23.259	998.630	790.063
86.797	23.041	997.886	788.434
87.812	22.973	996.945	787.313
88.826	23.097	995.394	786.571
89.841	23.110	995.079	786.310
90.855	22.841	993.500	783.799
91.870	23.320	993.303	785.704
92.884	23.129	992.694	784.305
93.899	22.674	991.523	781.294
94.914	22.931	990.291	781.392
95.928	22.664	989.052	779.164
96.943	22.596	988.306	778.209
97.957	22.838	987.037	778.207
98.972	22.665	987.387	777.652
99.987	22.858	985.995	777.335
101.001	22.895	984.664	776.378
102.016	23.200	982.975	776.318
103.030	22.998	983.185	775.527
104.045	22.850	983.559	775.107
105.060	22.471	982.126	772.248
106.074	22.533	980.764	771.379
107.089	22.187	979.779	769.023
108.103	22.404	977.760	768.315
109.118	21.934	976.910	765.529
110.133	21.732	976.077	763.928
111.147	21.851	974.581	763.207
112.162	21.507	975.009	761.978
113.176	21.948	974.189	763.189
114.191	22.320	973.099	763.883
115.206	22.137	971.821	762.020
116.220	21.659	971.278	759.451
117.235	21.869	969.623	759.001
118.249	21.799	968.735	757.936
119.264	21.628	968.811	757.190
120.279	21.915	967.176	757.083
121.293	21.660	966.160	755.122
122.308	21.333	967.261	754.501
123.322	21.117	965.858	752.409
124.337	21.747	962.000	752.043
125.352	21.475	961.811	750.663
126.366	21.193	963.056	750.356
127.381	21.570	961.908	751.012
128.395	21.800	961.162	751.350
129.410	21.613	960.617	750.056
130.424	22.084	959.595	751.206
131.439	22.041	959.482	750.869
132.454	21.865	958.400	749.200
133.468	22.213	957.679	750.059
134.483	22.042	956.682	748.482
135.497	22.485	954.918	748.920
136.512	22.193	954.868	747.572
137.527	22.391	954.015	747.678
138.541	22.120	953.358	745.946
139.556	22.030	954.303	746.238
140.570	22.389	952.732	746.467
141.585	22.721	952.231	747.415
142.600	23.220	950.106	747.789
143.614	23.028	950.173	746.967
144.629	23.428	949.818	748.309
145.643	23.053	948.932	745.965
146.658	22.636	946.963	742.593
147.673	22.396	946.620	741.248
148.687	22.387	944.927	739.820
149.702	22.253	944.357	738.745
150.716	22.239	942.946	737.518
151.731	22.549	942.093	738.082
152.746	22.410	942.040	737.392
153.760	22.508	940.435	736.484
154.775	22.692	940.693	737.388
155.789	22.810	940.378	737.571
156.804	22.156	940.191	734.624
157.819	22.577	938.788	735.219
158.833	22.585	939.610	735.830
159.848	22.693	938.103	735.037
160.862	23.203	935.721	735.223
161.877	22.352	935.200	731.216
162.892	22.299	934.598	730.461
163.906	22.321	932.651	728.964
164.921	22.258	931.408	727.670
165.935	21.871	932.203	726.624
166.950	22.543	930.439	727.959
167.964	22.368	930.324	727.084
168.979	21.782	929.482	723.940
169.994	22.047	927.996	723.815
171.008	22.454	926.479	724.242
172.023	22.750	926.720	725.584
173.037	22.934	926.190	725.857
174.052	22.844	924.630	724.203
175.067	22.497	924.022	722.241
176.081	22.022	924.288	720.435
177.096	21.651	923.375	718.138
178.110	22.123	921.843	718.815
179.125	22.009	921.581	718.082
180.140	21.830	921.797	717.454
181.154	22.728	920.401	719.971
182.169	22.792	920.256	720.053
183.183	22.819	919.779	719.727
184.198	22.736	919.447	719.064
185.213	22.787	918.337	718.339
186.227	22.575	918.598	717.620
187.242	23.173	916.335	718.215
188.256	23.051	917.671	718.704
189.271	23.265	915.754	718.008
190.286	22.631	915.214	714.949
191.300	22.224	912.745	711.312
192.315	21.527	912.724	708.411
193.329	21.511	913.692	709.035
194.344	21.947	912.712	709.975
195.359	22.604	910.978	711.215
196.373	22.791	910.878	711.827
197.388	23.181	911.049	713.472
198.402	23.047	910.868	712.727
199.417	23.465	909.710	713.442
200.432	22.965	910.326	711.845
201.446	23.666	908.938	713.516
202.461	23.341	909.222	712.370
203.475	22.894	908.291	709.780
204.490	22.905	907.336	709.019
205.504	22.614	906.440	707.087
206.519	22.859	904.962	706.851
207.534	22.735	904.224	705.716
208.548	22.788	904.127	705.790
209.563	22.761	903.564	705.180
210.577	22.803	901.960	704.035
211.592	23.251	902.687	706.329
212.607	23.396	902.657	706.819
213.621	23.303	901.156	705.211
214.636	23.313	899.970	704.259
215.650	22.996	900.231	703.141
216.665	22.956	899.448	702.308
217.680	22.918	900.084	702.591
218.694	22.923	899.113	701.791
219.709	22.630	897.687	699.455
220.723	22.900	895.797	698.990
221.738	22.717	895.833	698.232
222.753	22.974	895.092	698.609
223.767	22.861	895.146	698.143
224.782	23.406	894.277	699.555
225.796	23.145	894.342	698.513
226.811	23.284	893.111	698.038
227.826	22.829	892.465	695.677
228.840	22.477	891.600	693.555
229.855	22.668	891.018	693.795
230.869	22.282	890.982	692.184
231.884	22.662	889.404	692.390
232.899	22.577	889.015	691.693
233.913	22.586	887.900	690.800
234.928	22.161	886.960	688.342
235.942	22.217	886.116	687.846
236.957	22.086	886.450	687.533
237.972	22.236	886.643	688.206
238.986	22.534	884.633	687.749
240.001	22.383	884.189	686.755
241.015	22.483	883.315	686.404
242.030	22.748	883.158	687.256
243.045	22.643	883.002	686.666
244.059	22.531	882.381	685.685
245.074	22.653	882.192	685.951
246.088	22.724	882.024	686.037
247.103	23.010	881.641	686.789
248.117	23.330	881.147	687.585
249.132	23.580	882.126	689.260
250.147	24.191	881.127	690.788
251.161	24.218	879.922	689.887
252.176	23.807	880.512	688.695
253.190	24.296	879.262	689.548
254.205	24.039	878.355	687.785
255.220	23.830	878.052	686.678
256.234	23.574	877.359	685.085
257.249	23.892	876.798	685.814
258.263	23.737	875.645	684.256
259.278	23.796	875.704	684.467
260.293	24.021	874.688	684.481
261.307	23.760	875.139	683.768
262.322	23.917	873.404	682.954
263.336	24.070	872.988	683.154
264.351	23.663	872.392	681.069
265.366	23.696	870.871	679.948
266.380	23.923	870.782	680.686
267.395	24.215	869.253	680.544
268.409	23.704	869.073	678.391
269.424	23.954	867.584	678.126
270.439	23.766	868.460	678.031
271.453	23.641	867.280	676.572
272.468	23.585	866.895	675.999
273.482	23.503	865.943	674.886
274.497	23.275	866.085	674.070
275.512	23.563	864.508	673.876
276.526	23.807	864.548	674.775
277.541	23.660	864.870	674.407
278.555	23.975	864.088	674.934
279.570	23.972	864.427	675.126
280.585	24.102	862.164	673.792
281.599	23.727	861.778	672.013
282.614	23.177	860.844	669.146
283.628	23.199	860.164	668.642
284.643	23.369	860.063	669.144
285.657	23.634	858.269	668.688
286.672	23.879	857.768	669.162
287.687	23.614	858.372	668.576
288.701	23.826	857.559	668.679
289.716	23.812	857.260	668.334
290.730	23.667	856.669	667.270
291.745	23.665	855.978	666.663
292.760	23.799	856.490	667.507
293.774	24.388	854.544	668.140
294.789	23.697	855.344	666.116
295.803	23.566	853.643	664.239
296.818	23.584	852.579	663.423
297.833	23.450	851.747	662.214
298.847	23.593	851.816	662.743
299.862	23.730	850.651	662.289
300.876	23.902	850.562	662.801
301.891	24.382	849.954	664.057
302.906	24.681	849.608	664.840
303.920	24.354	850.184	664.016
304.935	24.879	849.503	665.378
305.949	24.316	848.857	662.722
306.964	24.453	846.905	661.648
307.979	24.113	846.546	660.049
308.993	24.017	847.193	660.139
310.008	24.541	845.783	660.920
311.022	24.030	846.194	659.291
312.037	23.628	845.082	656.876
313.052	23.589	843.713	655.612
314.066	23.571	842.283	654.377
315.081	23.277	842.572	653.456
316.095	23.538	842.389	654.221
317.110	23.317	841.479	652.642
318.125	23.111	841.473	651.821
319.139	23.346	839.694	651.249
320.154	23.223	840.006	650.980
321.168	23.525	838.585	650.930
322.183	23.403	838.777	650.573
323.197	23.677	838.466	651.281
324.212	23.937	837.259	651.236
325.227	23.785	836.380	649.941
326.241	23.522	836.497	649.011
327.256	23.418	835.275	647.627
328.270	23.703	834.808	648.247
329.285	23.341	834.332	646.497
330.300	23.340	834.401	646.491
331.314	23.405	833.806	646.211
332.329	23.498	833.793	646.481
333.343	24.191	833.057	648.378
334.358	23.730	833.349	646.868
335.373	23.852	832.986	646.973
336.387	24.225	832.010	647.513
337.402	23.964	832.829	647.145
338.416	24.541	832.877	649.224
339.431	24.765	831.668	649.037
340.446	24.956	831.542	649.572
341.460	24.443	831.366	647.516
342.475	24.698	830.700	647.867
343.489	24.649	831.109	647.948
344.504	24.850	830.422	648.086
345.519	25.247	829.247	648.544
346.533	24.894	829.148	647.135
347.548	24.535	828.688	645.423
348.562	24.406	827.094	643.657
349.577	24.155	826.566	642.283
350.592	24.221	825.506	641.642
351.606	23.999	824.909	640.324
352.621	24.024	824.912	640.356
353.635	24.275	823.926	640.440
354.650	24.064	823.072	638.961
355.665	24.077	821.909	638.049
356.679	24.226	821.906	638.522
357.694	23.819	821.675	636.827
358.708	24.343	820.480	637.720
359.723	24.266	819.774	636.840
360.738	24.000	820.219	636.179
361.752	24.144	819.796	636.308
362.767	24.852	818.218	637.551
363.781	24.843	819.136	638.178
364.796	25.234	818.554	639.061
365.810	24.941	818.452	637.881
366.825	24.914	818.772	637.978
367.840	24.628	818.093	636.372
368.854	24.626	816.349	634.953
369.869	24.504	816.128	634.292
370.883	24.654	815.390	634.195
371.898	24.907	815.750	635.315
372.913	25.079	815.602	635.757
373.927	24.686	814.331	633.317
374.942	24.558	813.496	632.159
375.956	24.893	813.576	633.351
376.971	25.197	813.672	634.442
377.986	24.931	813.540	633.345
379.000	25.104	812.709	633.251
380.015	25.091	811.322	632.067
381.029	25.037	810.527	631.202
382.044	24.899	810.625	630.737
383.059	25.366	809.859	631.729
384.073	25.265	807.929	629.812
385.088	25.003	807.893	628.809
386.102	24.569	807.882	627.223
387.117	24.235	807.085	625.378
388.132	24.223	806.575	624.885
389.146	24.270	806.341	624.812
390.161	24.767	805.769	626.054
391.175	25.225	805.420	627.328
392.190	24.781	805.357	625.670
393.205	24.123	804.712	622.814
394.219	24.141	803.107	621.581
395.234	24.172	802.587	621.232
396.248	24.291	801.869	621.036
397.263	24.584	801.788	621.937
398.278	24.459	800.660	620.574
399.292	23.950	801.024	619.030
400.307	23.916	800.604	618.532
401.321	24.082	799.996	618.583
402.336	24.402	800.364	619.925
403.350	24.603	800.246	620.476
404.365	25.032	799.803	621.569
405.380	25.437	799.700	622.836
406.394	25.460	799.154	622.436
407.409	25.340	798.996	621.843
408.423	25.253	798.867	621.387
409.438	25.448	798.933	622.056
410.453	25.502	797.462	621.044
411.467	25.460	796.990	620.477
412.482	25.437	796.652	620.079
413.496	25.389	795.793	619.190
414.511	25.524	795.746	619.564
415.526	25.302	795.286	618.385
416.540	25.658	794.252	618.752
417.555	25.302	794.319	617.524
418.569	25.196	794.083	616.922
419.584	25.363	793.467	616.962
420.599	25.480	792.472	616.537
421.613	161.752	1370.301	1794.207
422.628	140.211	1454.467	1794.316
