DTS Sentinel unit serial number:	SN413079Multiplexer serial number:	ORYXHardware model number:	OX4-SRSoftware version number:	ORYX F/W v4.00 Oryx Data Collector v3.7.2.0data status	okinstallation	princeton_trtdifferential loss correction	single-endedforward channel	channel 1reverse channel	N/Adate	2019/09/18time	15:50:35forward acquisition time	60.00reverse acquisition time	0.00gamma	496.2192k internal	0.2296k external	0.2296temperature offset calibration	0.9985default loss term (dB/km)	0.3790temperature slope calibration	1.0000multiplexer offset coefficient	1.0000multiplexer slope coefficient	1.0000fibre end	0.00T internal ref (°C)	36.69T ext. ref 1 (°C)	0.79T ext. ref 2 (°C)	35.08length (m)	temperature (°C)	Stokes	anti-Stokes-747.200	-71.681	0.177	-0.067
-746.185	37.957	0.159	0.145
-745.171	-12.247	-0.215	0.143
-744.156	75.371	-0.169	0.182
-743.142	98.221	0.133	-0.157
-742.127	-118.991	-0.180	0.032
-741.112	89.905	0.264	-0.302
-740.098	-200.000	-0.093	0.461
-739.083	-63.174	-0.038	-0.016
-738.069	23.265	0.417	-0.350
-737.054	-16.051	0.007	-0.005
-736.039	-148.446	-0.348	0.029
-735.025	186.040	-0.290	0.441
-734.010	584.791	0.012	-0.031
-732.996	-200.000	-0.022	0.099
-731.981	99.487	-0.217	-0.256
-730.966	385.793	-0.143	0.302
-729.952	5.950	-0.228	-0.172
-728.937	99.362	-0.124	-0.147
-727.923	35.645	-0.102	-0.092
-726.908	-200.000	0.002	-0.043
-725.894	-49.138	-0.146	-0.071
-724.879	229.485	-0.116	0.194
-723.864	-12.490	-0.472	-0.314
-722.850	-4.937	-0.226	-0.159
-721.835	161.343	-0.247	-0.353
-720.821	-155.133	0.357	0.024
-719.806	-166.145	0.151	-0.007
-718.791	428.503	-0.045	-0.099
-717.777	252.847	0.096	-0.167
-716.762	78.198	-0.106	-0.115
-715.748	-58.102	0.147	-0.066
-714.733	-74.847	0.091	-0.033
-713.718	-30.063	-0.123	-0.072
-712.704	11.382	0.166	-0.130
-711.689	-132.899	-0.297	-0.039
-710.675	511.048	0.095	-0.226
-709.660	-76.947	0.145	0.052
-708.645	-196.407	-0.308	0.002
-707.631	-41.795	0.120	-0.063
-706.616	-84.525	0.085	-0.027
-705.602	800.000	0.020	0.085
-704.587	375.765	-0.146	-0.305
-703.572	239.990	-0.183	-0.312
-702.558	-36.101	-0.197	-0.108
-701.543	340.441	-0.230	-0.459
-700.529	27.100	0.214	0.183
-699.514	800.000	0.043	-0.159
-698.499	-184.672	0.358	-0.006
-697.485	168.513	-0.179	-0.260
-696.470	800.000	-0.016	-0.057
-695.456	-105.543	-0.235	0.054
-694.441	-167.964	-0.017	-0.001
-693.426	84.944	-0.276	-0.309
-692.412	-200.000	0.035	-0.176
-691.397	514.444	-0.060	-0.143
-690.383	-112.142	0.337	0.069
-689.368	-200.000	0.025	0.216
-688.354	800.000	-0.095	-0.360
-687.339	-184.014	0.479	0.008
-686.324	-137.256	0.349	0.040
-685.310	-146.205	0.164	0.015
-684.295	800.000	0.048	0.154
-683.281	-163.089	0.127	-0.006
-682.266	-98.851	-0.215	0.056
-681.251	-74.458	0.327	0.120
-680.237	39.607	0.166	-0.152
-679.222	-29.407	0.113	-0.066
-678.208	-200.000	-0.047	0.335
-677.193	167.288	0.061	-0.088
-676.178	-71.276	-0.182	0.069
-675.164	2.063	-0.149	0.110
-674.149	-117.293	-0.142	0.026
-673.135	800.000	-0.073	-0.269
-672.120	89.237	0.145	0.165
-671.105	-200.000	0.026	-0.157
-670.091	-115.327	-0.220	-0.042
-669.076	-63.924	-0.556	0.232
-668.062	15.625	-0.227	-0.182
-667.047	-170.289	-0.327	0.012
-666.032	-151.637	-0.216	-0.016
-665.018	-87.178	0.182	0.056
-664.003	13.265	-0.088	-0.070
-662.989	-141.127	0.023	0.002
-661.974	-37.766	0.300	-0.163
-660.959	-21.194	0.129	0.081
-659.945	55.890	-0.392	-0.387
-658.930	294.149	0.140	-0.260
-657.916	210.377	0.332	0.530
-656.901	-138.245	-0.302	-0.034
-655.886	305.547	0.153	-0.290
-654.872	330.080	-0.107	0.210
-653.857	27.458	-0.238	0.204
-652.843	73.609	-0.145	-0.155
-651.828	-48.912	0.242	0.118
-650.814	220.852	0.067	0.109
-649.799	-39.822	-0.189	-0.101
-648.784	215.172	-0.117	0.188
-647.770	751.480	-0.023	0.064
-646.755	22.553	-0.134	0.112
-645.741	64.748	-0.058	0.060
-644.726	-92.036	-0.200	-0.058
-643.711	323.060	-0.088	-0.170
-642.697	-200.000	-0.001	-0.049
-641.682	-149.808	0.297	-0.024
-640.668	102.362	-0.169	-0.201
-639.653	800.000	-0.052	-0.207
-638.638	-52.036	-0.209	-0.099
-637.624	-153.572	0.316	-0.022
-636.609	21.244	-0.144	0.119
-635.595	175.657	-0.005	-0.007
-634.580	-200.000	-0.023	0.203
-633.565	-200.000	-0.034	0.368
-632.551	-66.330	0.080	-0.033
-631.536	800.000	0.088	0.289
-630.522	-200.000	-0.044	-0.273
-629.507	-69.225	-0.085	0.033
-628.492	800.000	-0.076	-0.226
-627.478	-36.771	0.152	0.083
-626.463	320.073	0.037	0.071
-625.449	-76.464	-0.344	0.123
-624.434	-200.000	-0.415	0.000
-623.419	17.257	-0.178	-0.144
-622.405	-18.464	0.213	0.135
-621.390	203.976	0.079	0.124
-620.376	258.640	0.180	-0.316
-619.361	800.000	-0.118	0.429
-618.346	78.206	-0.162	0.176
-617.332	32.993	-0.170	-0.150
-616.317	237.694	-0.205	-0.346
-615.303	38.352	0.306	-0.278
-614.288	48.663	0.254	-0.242
-613.273	-200.000	-0.027	0.254
-612.259	10.631	0.166	-0.129
-611.244	11.156	0.251	0.195
-610.230	-4.468	-0.130	-0.091
-609.215	-67.168	-0.256	0.102
-608.201	68.515	0.218	-0.227
-607.186	-200.000	-0.051	-0.240
-606.171	-19.563	0.145	-0.091
-605.157	362.122	-0.094	-0.192
-604.142	51.882	0.087	0.084
-603.128	800.000	-0.032	0.107
-602.113	92.813	-0.137	0.157
-601.098	-104.308	-0.046	-0.011
-600.084	-60.124	0.055	-0.024
-599.069	-123.691	-0.169	0.027
-598.055	770.139	0.036	0.101
-597.040	-31.130	0.126	0.072
-596.025	800.000	-0.021	-0.068
-595.011	800.000	0.017	-0.066
-593.996	-200.000	-0.013	0.249
-592.982	-200.000	0.024	0.196
-591.967	-79.467	0.132	-0.045
-590.952	467.994	-0.050	0.115
-589.938	180.532	-0.135	-0.201
-588.923	-70.797	-0.068	0.026
-587.909	162.165	-0.218	-0.310
-586.894	-54.777	-0.038	0.017
-585.879	-131.937	0.234	-0.031
-584.865	33.809	0.065	0.057
-583.850	800.000	0.070	0.219
-582.836	-200.000	-0.032	0.381
-581.821	6.722	0.273	-0.207
-580.806	65.585	0.282	-0.290
-579.792	135.293	-0.126	0.166
-578.777	-43.950	-0.376	0.192
-577.763	800.000	-0.030	-0.095
-576.748	-92.764	0.384	0.109
-575.733	-140.285	0.257	-0.027
-574.719	62.069	0.444	-0.449
-573.704	4.363	0.081	0.060
-572.690	154.085	-0.125	0.174
-571.675	-122.569	-0.186	-0.031
-570.661	-108.876	-0.098	-0.021
-569.646	-3.188	0.230	-0.162
-568.631	738.549	-0.040	0.108
-567.617	347.452	-0.113	-0.226
-566.602	-67.433	0.167	-0.066
-565.588	105.986	0.103	0.124
-564.573	-26.664	0.161	-0.096
-563.558	177.988	0.120	-0.177
-562.544	-65.372	-0.068	0.028
-561.529	130.166	-0.326	-0.424
-560.515	-114.173	0.306	0.060
-559.500	-117.931	-0.275	-0.050
-558.485	-127.589	-0.200	0.029
-557.471	60.162	-0.250	-0.251
-556.456	-43.076	0.115	-0.059
-555.442	-161.569	0.342	0.018
-554.427	-200.000	0.012	-0.252
-553.412	126.825	0.124	-0.159
-552.398	8.265	-0.173	0.132
-551.383	-18.037	0.145	0.092
-550.369	-200.000	-0.008	0.124
-549.354	-200.000	-0.036	-0.279
-548.339	800.000	-0.036	-0.146
-547.325	379.909	0.072	-0.149
-546.310	276.948	-0.070	0.127
-545.296	-200.000	0.029	0.158
-544.281	-200.000	0.009	-0.087
-543.266	-200.000	0.014	0.160
-542.252	-1.777	-0.452	0.322
-541.237	67.588	0.113	-0.117
-540.223	165.110	0.089	-0.128
-539.208	-103.300	-0.284	0.068
-538.193	-122.986	-0.194	0.032
-537.179	-54.118	0.086	-0.039
-536.164	-200.000	0.010	0.160
-535.150	76.530	0.203	0.219
-534.135	-89.265	0.090	0.027
-533.121	-92.396	0.338	0.097
-532.106	123.164	0.175	0.223
-531.091	-125.025	-0.115	0.018
-530.077	217.450	-0.224	-0.362
-529.062	-118.696	-0.192	0.034
-528.048	-35.742	0.141	-0.077
-527.033	-91.399	0.372	0.108
-526.018	-200.000	0.013	-0.148
-525.004	182.438	0.216	-0.322
-523.989	-4.511	-0.244	-0.171
-522.975	-200.000	-0.009	0.188
-521.960	695.204	0.090	-0.239
-520.945	-27.132	0.362	-0.214
-519.931	253.934	0.048	-0.084
-518.916	-155.137	-0.078	-0.005
-517.902	184.816	-0.100	-0.150
-516.887	-82.994	-0.145	-0.047
-515.872	74.622	-0.120	0.127
-514.858	-97.297	0.156	0.041
-513.843	-76.807	-0.314	-0.111
-512.829	-8.529	-0.259	0.176
-511.814	-84.771	-0.175	0.056
-510.799	87.057	-0.106	0.119
-509.785	115.040	0.112	-0.138
-508.770	-200.000	0.013	0.200
-507.756	54.888	0.306	0.299
-506.741	69.015	-0.243	0.253
-505.726	-0.418	0.041	-0.029
-504.712	-75.107	0.102	0.037
-503.697	-85.128	-0.205	0.065
-502.683	800.000	-0.049	0.209
-501.668	68.329	0.162	-0.168
-500.653	153.649	0.111	0.154
-499.639	49.977	0.114	-0.108
-498.624	38.019	-0.220	-0.198
-497.610	97.165	-0.040	-0.047
-496.595	157.385	-0.155	-0.217
-495.581	-119.442	0.033	-0.006
-494.566	-5.090	0.220	-0.153
-493.551	-150.500	-0.606	-0.047
-492.537	-45.770	-0.287	-0.143
-491.522	184.724	0.160	-0.239
-490.508	-200.000	0.012	-0.096
-489.493	-114.805	-0.223	-0.043
-488.478	-200.000	-0.028	-0.273
-487.464	-108.299	-0.241	-0.053
-486.449	191.494	-0.057	-0.087
-485.435	-200.000	-0.011	0.085
-484.420	-156.402	0.178	-0.011
-483.405	-36.947	-0.137	-0.074
-482.391	14.304	-0.252	0.199
-481.376	-99.394	-0.247	-0.063
-480.362	-158.678	0.202	0.012
-479.347	100.037	-0.153	-0.179
-478.332	-6.656	-0.283	0.195
-477.318	-200.000	-0.015	-0.164
-476.303	43.350	0.111	-0.103
-475.289	-114.918	0.214	0.041
-474.274	-200.000	0.026	0.231
-473.259	-15.938	0.244	0.157
-472.245	239.359	-0.140	-0.235
-471.230	-121.578	-0.019	0.003
-470.216	368.338	0.105	0.215
-469.201	52.787	0.184	-0.177
-468.186	-123.000	0.244	-0.040
-467.172	223.565	-0.071	0.116
-466.157	-200.000	-0.001	-0.034
-465.143	-36.332	0.258	-0.141
-464.128	-115.991	-0.189	-0.036
-463.113	72.185	-0.064	-0.067
-462.099	37.144	0.099	-0.088
-461.084	-54.896	-0.309	0.141
-460.070	800.000	0.047	-0.132
-459.055	-65.421	0.175	-0.071
-458.040	31.977	0.070	0.061
-457.026	222.578	-0.193	0.314
-456.011	-200.000	-0.000	0.081
-454.997	-200.000	-0.003	-0.067
-453.982	-161.605	0.149	0.008
-452.968	539.592	-0.015	-0.036
-451.953	79.378	0.098	0.106
-450.938	-52.022	-0.155	0.073
-449.924	116.356	-0.167	0.206
-448.909	360.092	0.037	-0.074
-447.895	-91.365	-0.056	-0.016
-446.880	37.895	0.163	0.147
-445.865	595.927	-0.113	0.284
-444.851	-200.000	-0.009	0.129
-443.836	800.000	-0.100	-0.284
-442.822	200.659	-0.054	-0.084
-441.807	800.000	0.087	-0.272
-440.792	800.000	0.095	-0.330
-439.778	-91.843	-0.281	0.081
-438.763	-105.520	-0.107	-0.024
-437.749	-123.338	0.276	-0.045
-436.734	-153.308	-0.037	0.003
-435.719	58.363	-0.044	0.044
-434.705	351.753	0.163	-0.327
-433.690	4.168	-0.222	-0.164
-432.676	-73.901	-0.155	-0.057
-431.661	-96.035	-0.305	0.082
-430.646	386.766	0.194	0.405
-429.632	800.000	0.054	-0.210
-428.617	-200.000	0.029	0.159
-427.603	-200.000	0.007	0.321
-426.588	-64.907	0.160	-0.065
-425.573	-200.000	-0.017	0.306
-424.559	-147.711	0.052	-0.004
-423.544	227.404	0.115	0.189
-422.530	-125.987	-0.233	-0.035
-421.515	40.684	-0.287	0.261
-420.500	470.647	0.090	-0.203
-419.486	14.277	0.074	-0.058
-418.471	-116.952	-0.261	-0.048
-417.457	-157.789	-0.503	0.030
-416.442	-105.865	-0.071	-0.016
-415.428	-200.000	-0.001	-0.450
-414.413	-200.000	-0.004	0.220
-413.398	81.182	0.265	-0.289
-412.384	356.103	0.109	-0.219
-411.369	-14.581	0.090	0.058
-410.355	-68.312	-0.173	0.068
-409.340	-200.000	-0.008	-0.078
-408.325	242.233	0.176	0.296
-407.311	261.788	0.281	0.490
-406.296	-116.545	-0.194	0.036
-405.282	130.421	0.203	-0.262
-404.267	55.397	0.163	0.159
-403.252	452.909	-0.096	0.214
-402.238	-200.000	0.006	0.294
-401.223	37.807	0.104	0.093
-400.209	-200.000	-0.004	-0.145
-399.194	267.042	0.030	-0.053
-398.179	-200.000	-0.096	-0.425
-397.165	62.528	-0.083	-0.083
-396.150	501.094	0.056	0.130
-395.136	-89.069	0.114	-0.034
-394.121	177.773	0.045	0.066
-393.106	-80.216	-0.160	-0.054
-392.092	-200.000	0.008	0.119
-391.077	-46.733	0.103	-0.051
-390.063	-23.680	0.121	0.073
-389.048	222.734	-0.174	0.283
-388.033	236.626	-0.074	-0.123
-387.019	800.000	-0.046	-0.154
-386.004	66.712	-0.086	0.088
-384.990	717.179	-0.082	0.218
-383.975	799.106	-0.053	-0.146
-382.960	-121.363	0.133	-0.022
-381.946	800.000	-0.083	0.263
-380.931	-200.000	-0.008	-0.248
-379.917	36.947	0.207	0.184
-378.902	-3.428	0.189	0.133
-377.888	-30.228	0.103	-0.059
-376.873	800.000	-0.135	0.465
-375.858	202.245	-0.099	0.154
-374.844	-200.000	-0.030	-0.243
-373.829	-23.631	-0.156	-0.094
-372.815	631.876	-0.087	-0.223
-371.800	434.244	0.060	-0.132
-370.785	276.032	0.040	-0.071
-369.771	-115.439	0.166	-0.032
-368.756	-154.125	0.398	0.027
-367.742	59.480	-0.086	-0.086
-366.727	-5.573	0.376	-0.260
-365.712	-200.000	0.065	-0.413
-364.698	-59.168	0.220	0.096
-363.683	-200.000	-0.008	-0.161
-362.669	800.000	-0.128	0.376
-361.654	32.259	0.042	-0.037
-360.639	20.103	0.158	-0.128
-359.625	201.930	-0.175	-0.272
-358.610	-33.247	-0.202	0.113
-357.596	800.000	-0.062	-0.240
-356.581	148.244	-0.091	-0.124
-355.566	67.296	-0.053	0.055
-354.552	800.000	-0.047	0.169
-353.537	-200.000	0.015	0.076
-352.523	-72.471	0.133	0.050
-351.508	800.000	-0.076	-0.326
-350.493	-145.073	0.405	-0.037
-349.479	-65.465	-0.171	0.069
-348.464	600.662	0.065	-0.164
-347.450	-47.575	0.247	-0.120
-346.435	668.206	-0.078	-0.203
-345.420	-200.000	-0.016	-0.334
-344.406	-152.370	-0.111	0.008
-343.391	-27.170	0.180	0.105
-342.377	5.061	-0.149	0.110
-341.362	-32.710	-0.222	-0.124
-340.348	800.000	0.069	0.241
-339.333	-67.763	0.398	0.157
-338.318	-200.000	-0.001	0.025
-337.304	99.553	0.035	0.040
-336.289	175.928	0.043	-0.062
-335.275	-117.021	-0.258	0.047
-334.260	-28.095	-0.246	-0.143
-333.245	48.894	0.210	0.198
-332.231	-200.000	0.030	-0.166
-331.216	-60.564	0.149	0.064
-330.202	-10.536	-0.346	0.230
-329.187	449.171	0.133	-0.294
-328.172	467.254	-0.086	-0.193
-327.158	333.032	0.210	0.407
-326.143	-200.000	0.021	0.101
-325.129	-19.911	0.131	-0.081
-324.114	-83.862	-0.330	0.106
-323.099	800.000	0.039	0.160
-322.085	-9.964	0.168	-0.112
-321.070	-34.046	-0.232	-0.129
-320.056	133.067	-0.119	-0.155
-319.041	627.993	0.111	0.283
-318.026	-122.400	0.067	0.011
-317.012	105.009	-0.191	-0.226
-315.997	509.862	-0.091	-0.212
-314.983	-2.248	0.079	0.056
-313.968	6.848	-0.416	0.311
-312.953	-94.250	-0.066	0.018
-311.939	140.673	0.200	0.266
-310.924	-111.169	-0.458	-0.094
-309.910	-29.923	0.270	0.155
-308.895	-103.853	-0.231	-0.054
-307.880	121.830	-0.124	0.155
-306.866	52.665	0.249	-0.239
-305.851	118.406	0.279	0.346
-304.837	-200.000	0.038	0.265
-303.822	-200.000	0.012	0.120
-302.807	-200.000	0.006	-0.108
-301.793	75.848	-0.123	0.131
-300.778	-111.542	0.151	0.031
-299.764	97.430	-0.110	-0.127
-298.749	-148.062	-0.101	-0.008
-297.735	-51.192	0.304	-0.143
-296.720	-117.450	0.121	0.022
-295.705	-200.000	-0.000	-0.249
-294.691	800.000	-0.013	0.042
-293.676	-143.007	0.353	0.034
-292.662	-128.428	-0.202	-0.029
-291.647	438.044	0.108	-0.237
-290.632	-153.686	0.212	0.015
-289.618	63.282	-0.096	0.097
-288.603	26.710	0.021	0.018
-287.589	-165.023	0.359	-0.016
-286.574	-200.000	-0.030	-0.451
-285.559	93.016	-0.228	0.259
-284.545	-84.650	-0.160	0.051
-283.530	-19.714	0.261	0.162
-282.516	-133.728	-0.173	-0.022
-281.501	-149.207	0.187	0.015
-280.486	413.473	-0.046	0.098
-279.472	619.630	0.067	0.169
-278.457	45.755	-0.042	-0.039
-277.443	82.967	-0.112	0.123
-276.428	-88.491	-0.221	-0.066
-275.413	22.800	0.042	0.034
-274.399	-200.000	0.024	0.185
-273.384	4.788	-0.075	0.055
-272.370	312.424	0.018	0.033
-271.355	-200.000	-0.019	-0.354
-270.340	-200.000	0.002	0.077
-269.326	770.840	-0.057	0.156
-268.311	72.248	0.094	-0.099
-267.297	-115.554	0.377	-0.071
-266.282	800.000	-0.056	0.176
-265.267	-200.000	0.065	0.486
-264.253	-23.390	0.109	-0.065
-263.238	800.000	0.087	-0.305
-262.224	-86.418	-0.417	0.129
-261.209	36.584	0.103	0.092
-260.195	-125.703	0.057	0.009
-259.180	132.298	0.117	0.152
-258.165	59.473	0.135	0.133
-257.151	800.000	-0.099	-0.347
-256.136	-98.523	0.274	-0.070
-255.122	-122.087	-0.269	0.044
-254.107	800.000	0.036	-0.117
-253.092	-59.146	-0.159	-0.069
-252.078	95.563	0.144	0.165
-251.063	-61.127	0.188	-0.079
-250.049	-200.000	0.008	0.171
-249.034	48.311	-0.184	-0.173
-248.019	173.151	-0.100	0.145
-247.005	-47.277	0.131	0.064
-245.990	-200.000	-0.009	0.065
-244.976	512.438	0.096	-0.225
-243.961	-200.000	0.008	0.285
-242.946	515.971	-0.105	-0.246
-241.932	125.629	0.131	-0.165
-240.917	173.282	0.063	0.091
-239.903	-200.000	-0.027	0.315
-238.888	-171.852	-0.132	0.004
-237.873	351.814	0.129	0.257
-236.859	-200.000	0.034	0.172
-235.844	-126.542	0.179	-0.027
-234.830	-105.838	-0.133	0.030
-233.815	29.983	-0.122	-0.104
-232.800	-115.310	0.232	-0.044
-231.786	-200.000	0.014	-0.089
-230.771	52.672	0.055	0.053
-229.757	459.603	-0.065	0.145
-228.742	83.643	-0.277	0.303
-227.727	46.294	-0.234	0.218
-226.713	800.000	-0.086	0.254
-225.698	-98.559	0.347	-0.089
-224.684	80.074	-0.345	-0.371
-223.669	-143.219	-0.066	-0.006
-222.655	-127.284	-0.345	0.050
-221.640	29.998	0.112	-0.096
-220.625	267.433	0.052	-0.091
-219.611	46.311	-0.205	0.190
-218.596	-88.050	-0.087	-0.026
-217.582	800.000	0.054	-0.173
-216.567	228.260	0.127	-0.207
-215.552	800.000	-0.095	0.392
-214.538	60.751	0.250	-0.248
-213.523	-195.989	0.327	-0.002
-212.509	-197.097	0.299	-0.002
-211.494	67.081	0.115	-0.118
-210.479	696.830	0.156	0.411
-209.465	-200.000	0.022	0.155
-208.450	-200.000	-0.018	0.239
-207.436	693.126	-0.101	-0.266
-206.421	-75.872	0.223	0.079
-205.406	-200.000	-0.025	-0.318
-204.392	-200.000	-0.013	0.321
-203.377	131.989	0.075	-0.097
-202.363	9.718	-0.071	0.054
-201.348	-200.000	0.040	0.192
-200.333	579.885	-0.084	0.205
-199.319	56.819	-0.071	-0.069
-198.304	2.354	-0.089	-0.064
-197.290	-200.000	0.013	-0.143
-196.275	507.282	0.120	0.279
-195.260	383.826	-0.035	-0.071
-194.246	-171.458	-0.303	-0.010
-193.231	-98.020	0.220	0.057
-192.217	142.741	-0.193	0.257
-191.202	190.569	0.043	0.065
-190.187	800.000	0.069	0.230
-189.173	-46.719	-0.114	0.056
-188.158	498.382	0.112	0.258
-187.144	-72.062	-0.141	-0.052
-186.129	-146.821	-0.341	-0.029
-185.114	800.000	0.036	0.101
-184.100	-200.000	0.009	-0.098
-183.085	390.185	-0.117	-0.243
-182.071	-200.000	0.085	-0.390
-181.056	625.544	0.030	-0.075
-180.042	800.000	-0.054	-0.231
-179.027	-130.443	0.413	-0.056
-178.012	89.369	-0.046	-0.051
-176.998	-7.603	0.147	0.099
-175.983	800.000	0.060	0.206
-174.969	528.052	-0.040	0.094
-173.954	-15.258	-0.166	0.106
-172.939	290.873	-0.109	-0.199
-171.925	210.698	-0.097	-0.152
-170.910	-127.123	0.265	0.039
-169.896	-102.397	0.358	0.086
-168.881	275.118	0.068	0.120
-167.866	179.331	-0.062	0.091
-166.852	-200.000	-0.020	-0.155
-165.837	230.740	0.033	-0.055
-164.823	133.416	0.074	0.095
-163.808	13.605	-0.040	0.031
-162.793	102.198	0.201	0.234
-161.779	40.393	-0.175	-0.157
-160.764	120.613	0.051	-0.064
-159.750	-13.894	0.199	-0.128
-158.735	-200.000	-0.022	-0.373
-157.720	57.337	-0.095	-0.092
-156.706	-200.000	-0.026	0.456
-155.691	-200.000	0.035	0.197
-154.677	-156.321	-0.115	-0.007
-153.662	-131.541	-0.305	-0.040
-152.647	-48.413	0.190	-0.092
-151.633	231.395	-0.079	-0.129
-150.618	-185.397	-0.073	-0.001
-149.604	-27.312	-0.332	0.193
-148.589	-42.465	0.190	-0.097
-147.574	-114.442	-0.050	0.010
-146.560	90.953	0.203	0.227
-145.545	-33.345	-0.167	-0.092
-144.531	-63.434	0.143	0.059
-143.516	-37.704	0.216	-0.115
-142.502	800.000	-0.109	0.320
-141.487	800.000	0.070	-0.201
-140.472	-94.264	0.241	0.066
-139.458	-22.847	-0.160	-0.096
-138.443	800.000	-0.036	-0.126
-137.429	-64.648	-0.114	-0.046
-136.414	-21.223	0.192	0.117
-135.399	83.958	-0.125	-0.136
-134.385	14.470	-0.274	0.213
-133.370	-11.330	0.229	0.151
-132.356	187.587	0.070	0.104
-131.341	280.526	-0.137	0.245
-130.326	-200.000	-0.027	0.348
-129.312	-128.953	-0.148	-0.021
-128.297	-127.454	0.145	-0.021
-127.283	-200.000	0.030	0.389
-126.268	-66.010	-0.328	0.131
-125.253	-74.862	-0.245	0.088
-124.239	800.000	-0.037	0.134
-123.224	6.537	-0.071	0.052
-122.210	259.041	0.090	0.155
-121.195	-200.000	0.001	-0.091
-120.180	-200.000	0.001	-0.099
-119.166	510.653	-0.156	-0.362
-118.151	-143.692	-0.233	0.022
-117.137	-54.082	0.023	-0.010
-116.122	-200.000	-0.046	0.462
-115.107	26.740	0.085	0.071
-114.093	44.516	-0.243	0.223
-113.078	182.259	0.063	0.092
-112.064	-19.250	0.106	0.066
-111.049	86.364	-0.072	0.080
-110.034	283.627	-0.037	0.067
-109.020	19.921	-0.054	-0.044
-108.005	-80.524	0.123	0.041
-106.991	-200.000	0.030	0.141
-105.976	-126.483	0.346	0.051
-104.962	93.110	-0.203	-0.229
-103.947	-200.000	-0.019	0.145
-102.932	800.000	-0.213	0.610
-101.918	800.000	0.026	0.102
-100.903	80.119	0.029	-0.031
-99.889	-200.000	0.031	-0.249
-98.874	-41.243	0.204	-0.105
-97.859	-112.233	0.237	0.047
-96.845	800.000	-0.059	0.188
-95.830	460.181	0.177	0.392
-94.816	800.000	0.021	0.061
-93.801	-122.864	0.157	-0.025
-92.786	-50.371	-0.209	-0.098
-91.772	-86.495	0.215	0.066
-90.757	179.070	0.067	-0.098
-89.743	800.000	0.038	0.153
-88.728	-80.907	-0.292	-0.096
-87.713	-200.000	0.030	0.185
-86.699	7.064	0.121	0.090
-85.684	89.976	0.065	0.072
-84.670	-119.691	0.110	-0.019
-83.655	-89.388	-0.227	0.067
-82.640	22.642	0.153	-0.124
-81.626	800.000	-0.060	0.239
-80.611	13.911	0.124	-0.096
-79.597	485.415	0.030	-0.067
-78.582	-6.222	-0.277	0.188
-77.567	800.000	-0.050	0.153
-76.553	-200.000	-0.038	-0.177
-75.538	-200.000	0.007	0.254
-74.524	-73.787	0.387	0.140
-73.509	14.176	-0.242	-0.188
-72.494	-21.348	-0.099	-0.060
-71.480	31.891	0.239	-0.205
-70.465	187.281	-0.066	-0.097
-69.451	158.827	0.151	-0.209
-68.436	800.000	0.071	-0.199
-67.422	769.213	-0.039	-0.107
-66.407	497.760	-0.176	-0.403
-65.392	198.414	-0.128	0.194
-64.378	353.959	0.032	-0.063
-63.363	-72.205	0.184	0.068
-62.349	-85.093	-0.209	-0.065
-61.334	190.051	-0.487	-0.727
-60.319	7.594	0.559	0.416
-59.305	-200.000	-0.029	-0.933
-58.290	-200.000	0.264	1.367
-57.276	605.946	0.667	1.654
-56.261	-200.000	88.795	494.710
-55.246	421.342	1426.510	3042.848
-54.232	141.162	2640.397	3473.856
-53.217	107.722	2245.353	2659.140
-52.203	47.268	1679.522	1555.503
-51.188	39.904	1407.307	1256.709
-50.173	36.841	1363.292	1198.438
-49.159	56.024	1407.159	1357.898
-48.144	60.118	1426.797	1402.523
-47.130	40.531	1383.655	1239.312
-46.115	36.902	1365.976	1200.986
-45.100	36.520	1361.390	1194.547
-44.086	36.467	1359.119	1192.177
-43.071	36.492	1356.519	1190.004
-42.057	36.485	1354.285	1187.957
-41.042	36.549	1352.654	1186.871
-40.027	36.660	1350.639	1185.734
-39.013	36.591	1349.210	1184.008
-37.998	36.627	1346.699	1181.981
-36.984	36.622	1345.116	1180.516
-35.969	36.690	1342.859	1178.899
-34.954	36.761	1341.377	1177.987
-33.940	36.702	1339.781	1176.177
-32.925	36.823	1338.164	1175.450
-31.911	36.748	1337.116	1174.025
-30.896	36.767	1335.336	1172.533
-29.881	36.805	1334.211	1171.728
-28.867	36.829	1332.690	1170.488
-27.852	36.784	1331.115	1168.786
-26.838	36.727	1329.800	1167.245
-25.823	36.779	1328.451	1166.329
-24.809	36.792	1326.939	1165.031
-23.794	36.705	1325.233	1162.962
-22.779	36.802	1323.713	1162.165
-21.765	36.836	1322.391	1161.163
-20.750	36.721	1321.168	1159.356
-19.736	36.632	1320.090	1157.830
-18.721	36.653	1318.744	1156.726
-17.706	36.649	1317.477	1155.544
-16.692	36.739	1315.982	1154.729
-15.677	36.618	1315.075	1153.166
-14.663	36.608	1314.356	1152.426
-13.648	36.617	1312.547	1150.850
-12.633	36.669	1311.634	1150.309
-11.619	36.605	1310.872	1149.215
-10.604	36.664	1309.961	1148.726
-9.590	36.641	1308.889	1147.602
-8.575	36.550	1308.377	1146.567
-7.560	36.612	1307.274	1145.923
-6.546	36.552	1306.460	1144.808
-5.531	36.684	1305.152	1144.396
-4.517	36.578	1304.477	1143.132
-3.502	36.594	1303.110	1141.984
-2.487	36.555	1302.450	1141.132
-1.473	36.798	1298.330	1138.906
-0.458	36.324	1284.615	1124.073
0.556	32.272	1267.098	1088.659
1.571	27.903	1270.650	1066.180
2.586	25.666	1283.435	1063.605
3.600	23.541	1270.686	1040.500
4.615	16.744	1192.763	939.046
5.629	6.172	1110.225	819.163
6.644	1.096	1086.737	775.825
7.659	0.759	1083.802	771.943
8.673	0.608	1083.219	770.688
9.688	0.708	1081.517	769.918
10.702	0.816	1080.347	769.567
11.717	6.185	1087.950	802.369
12.731	14.800	1099.190	854.832
13.746	17.876	1102.225	872.869
14.761	17.159	1101.373	868.451
15.775	16.362	1099.047	862.474
16.790	15.338	1096.713	855.348
17.804	14.584	1095.779	850.702
18.819	14.445	1094.035	848.560
19.834	14.056	1092.849	845.591
20.848	13.628	1092.821	843.317
21.863	13.398	1091.372	840.953
22.877	13.332	1090.367	839.768
23.892	13.260	1090.076	839.108
24.907	13.361	1088.667	838.459
25.921	13.453	1088.096	838.408
26.936	13.332	1087.845	837.530
27.950	13.563	1086.393	837.508
28.965	13.482	1085.668	836.464
29.980	13.549	1083.905	835.372
30.994	13.528	1083.320	834.741
32.009	13.482	1082.026	833.436
33.023	13.609	1080.704	832.984
34.038	13.524	1079.576	831.612
35.053	13.522	1078.748	830.890
36.067	13.486	1078.104	830.142
37.082	13.544	1077.157	829.631
38.096	13.578	1076.517	829.233
39.111	13.473	1075.700	828.007
40.126	13.456	1074.626	827.021
41.140	13.358	1073.424	825.533
42.155	13.419	1072.377	824.960
43.169	13.294	1071.356	823.480
44.184	13.375	1070.083	822.830
45.199	13.363	1069.044	821.900
46.213	13.387	1068.242	821.327
47.228	13.479	1066.714	820.538
48.242	13.412	1065.760	819.399
49.257	13.447	1064.835	818.791
50.271	13.444	1063.944	818.014
51.286	13.518	1062.897	817.503
52.301	13.394	1062.485	816.505
53.315	13.458	1061.106	815.686
54.330	13.455	1059.937	814.699
55.344	13.420	1059.029	813.760
56.359	13.261	1058.684	812.639
57.374	13.390	1057.334	812.166
58.388	13.318	1056.482	811.085
59.403	13.294	1055.518	810.155
60.417	13.318	1054.806	809.656
61.432	13.268	1054.234	808.899
62.447	13.292	1053.559	808.428
63.461	13.335	1052.506	807.759
64.476	13.219	1051.513	806.360
65.490	13.278	1050.658	805.922
66.505	13.337	1049.845	805.511
67.520	13.288	1049.431	804.883
68.534	13.183	1049.140	804.080
69.549	13.317	1048.053	803.827
70.563	13.359	1047.322	803.398
71.578	13.333	1046.046	802.222
72.593	13.228	1045.576	801.282
73.607	13.240	1044.833	800.703
74.622	13.192	1044.264	799.960
75.636	13.235	1043.614	799.599
76.651	13.291	1042.959	799.298
77.666	13.250	1042.303	798.530
78.680	13.277	1041.184	797.731
79.695	13.185	1040.824	796.941
80.709	13.254	1040.300	796.802
81.724	13.358	1039.522	796.636
82.739	13.341	1038.725	795.871
83.753	13.403	1037.722	795.330
84.768	13.459	1036.945	794.936
85.782	13.634	1035.645	794.706
86.797	13.434	1034.928	793.127
87.812	13.430	1034.203	792.480
88.826	13.338	1033.074	791.106
89.841	13.429	1031.940	790.603
90.855	13.473	1030.897	789.942
91.870	13.464	1030.188	789.291
92.884	13.563	1029.351	789.051
93.899	13.742	1028.144	788.906
94.914	13.567	1027.898	787.816
95.928	13.539	1027.029	786.945
96.943	13.627	1025.968	786.479
97.957	13.541	1024.758	785.074
98.972	13.536	1024.009	784.408
99.987	13.547	1023.440	783.957
101.001	13.598	1022.178	783.162
102.016	13.601	1021.341	782.466
103.030	13.409	1020.873	781.130
104.045	13.515	1020.187	781.039
105.060	13.488	1018.924	779.875
106.074	13.486	1018.334	779.343
107.089	13.567	1017.179	778.773
108.103	13.399	1016.225	777.183
109.118	13.320	1015.443	776.147
110.133	13.376	1014.423	775.559
111.147	13.399	1013.616	774.980
112.162	13.450	1012.835	774.557
113.176	13.579	1011.852	774.337
114.191	13.420	1011.436	773.205
115.206	13.547	1010.588	773.082
116.220	13.493	1009.146	771.663
117.235	13.511	1008.374	771.088
118.249	13.403	1007.820	770.091
119.264	13.409	1006.967	769.398
120.279	13.538	1005.836	769.066
121.293	13.442	1005.211	768.074
122.308	13.362	1004.368	766.991
123.322	13.506	1003.410	766.858
124.337	13.492	1002.263	765.849
125.352	13.425	1001.294	764.733
126.366	13.571	999.905	764.279
127.381	13.519	999.512	763.668
128.395	13.489	998.113	762.395
129.410	13.455	997.328	761.573
130.424	13.429	996.600	760.829
131.439	13.622	995.463	760.779
132.454	13.561	995.044	760.112
133.468	13.599	994.057	759.465
134.483	13.719	992.963	759.113
135.497	13.654	992.118	758.103
136.512	13.559	991.241	756.932
137.527	13.542	990.290	756.060
138.541	13.588	989.588	755.664
139.556	13.671	988.924	755.472
140.570	13.680	988.397	755.044
141.585	13.689	987.363	754.227
142.600	13.721	986.363	753.543
143.614	13.660	985.860	752.814
144.629	13.632	984.990	751.956
145.643	13.810	983.758	751.754
146.658	13.655	982.943	750.363
147.673	13.688	981.765	749.545
148.687	13.630	980.918	748.574
149.702	13.553	980.247	747.648
150.716	13.677	979.310	747.423
151.731	13.652	978.419	746.565
152.746	13.675	977.707	746.059
153.760	13.651	977.391	745.647
154.775	13.662	976.365	744.845
155.789	13.824	975.895	745.147
156.804	13.632	975.381	743.830
157.819	13.763	974.467	743.654
158.833	13.806	973.982	743.411
159.848	13.857	973.116	742.912
160.862	13.766	972.178	741.725
161.877	13.686	971.477	740.764
162.892	13.732	970.131	739.877
163.906	13.761	969.396	739.381
164.921	13.851	968.276	738.864
165.935	13.665	967.978	737.741
166.950	13.794	966.605	737.204
167.964	13.798	966.004	736.700
168.979	13.752	965.054	735.705
169.994	13.907	963.848	735.406
171.008	13.862	963.495	734.873
172.023	13.874	962.471	734.081
173.037	13.894	962.067	733.793
174.052	13.788	961.901	733.134
175.067	13.996	960.625	733.017
176.081	13.764	960.415	731.769
177.096	13.910	959.413	731.580
178.110	13.954	958.756	731.210
179.125	13.915	958.065	730.446
180.140	13.852	957.974	730.037
181.154	13.960	957.339	729.960
182.169	13.897	956.758	729.179
183.183	13.976	955.977	728.863
184.198	14.038	954.830	728.195
185.213	14.099	954.338	728.025
186.227	14.069	953.722	727.357
187.242	14.024	953.194	726.693
188.256	13.990	952.665	726.079
189.271	14.052	951.723	725.567
190.286	13.949	951.223	724.674
191.300	13.961	950.236	723.909
192.315	13.925	949.409	723.059
193.329	13.931	948.983	722.694
194.344	14.079	948.187	722.670
195.359	14.006	947.714	721.926
196.373	14.095	947.166	721.833
197.388	14.119	946.728	721.540
198.402	14.180	946.204	721.340
199.417	14.227	945.228	720.734
200.432	14.218	944.535	720.104
201.446	14.262	943.938	719.778
202.461	14.397	943.154	719.696
203.475	14.339	942.974	719.248
204.490	14.266	942.058	718.168
205.504	14.232	941.829	717.786
206.519	14.239	940.704	716.892
207.534	14.181	939.985	716.031
208.548	14.324	939.165	715.958
209.563	14.303	938.509	715.305
210.577	14.324	938.140	715.051
211.592	14.367	937.313	714.541
212.607	14.459	936.044	713.905
213.621	14.466	935.645	713.566
214.636	14.522	934.653	712.986
215.650	14.442	934.187	712.229
216.665	14.470	933.363	711.657
217.680	14.586	932.538	711.458
218.694	14.606	932.139	711.176
219.709	14.492	931.641	710.250
220.723	14.514	930.720	709.576
221.738	14.588	929.680	709.036
222.753	14.559	929.382	708.623
223.767	14.563	928.594	707.975
224.782	14.626	927.988	707.718
225.796	14.777	927.385	707.837
226.811	14.740	926.829	707.193
227.826	14.729	925.939	706.405
228.840	14.654	925.150	705.423
229.855	14.548	924.573	704.472
230.869	14.653	923.626	704.129
231.884	14.623	923.365	703.744
232.899	14.722	922.332	703.311
233.913	14.702	921.631	702.630
234.928	14.673	920.908	701.892
235.942	14.489	920.604	700.826
236.957	14.559	920.238	700.779
237.972	14.605	919.269	700.174
238.986	14.608	918.875	699.826
240.001	14.677	918.009	699.393
241.015	14.853	917.150	699.414
242.030	14.803	916.816	698.886
243.045	14.800	915.959	698.161
244.059	14.725	915.735	697.615
245.074	14.936	914.431	697.437
246.088	14.958	913.798	696.984
247.103	14.814	913.808	696.330
248.117	14.806	913.131	695.720
249.132	14.980	912.474	695.884
250.147	14.829	911.877	694.737
251.161	14.961	911.166	694.680
252.176	14.976	910.735	694.353
253.190	15.073	909.880	694.043
254.205	15.212	908.723	693.676
255.220	15.161	908.187	692.992
256.234	15.139	907.665	692.445
257.249	15.273	906.959	692.398
258.263	15.192	905.963	691.242
259.278	15.105	905.515	690.481
260.293	15.117	905.275	690.283
261.307	15.330	904.364	690.404
262.322	15.303	903.761	689.773
263.336	15.257	902.862	688.837
264.351	15.388	902.155	688.774
265.366	15.223	901.986	687.906
266.380	15.328	901.164	687.648
267.395	15.276	900.442	686.824
268.409	15.377	899.651	686.573
269.424	15.350	898.855	685.796
270.439	15.392	897.930	685.201
271.453	15.449	897.290	684.886
272.468	15.382	897.006	684.332
273.482	15.378	896.254	683.684
274.497	15.368	895.695	683.155
275.512	15.453	894.979	682.896
276.526	15.431	895.193	682.907
277.541	15.451	894.359	682.292
278.555	15.506	893.842	682.064
279.570	15.405	893.166	681.075
280.585	15.525	892.040	680.641
281.599	15.625	891.204	680.350
282.614	15.455	890.525	679.082
283.628	15.547	890.193	679.143
284.643	15.582	889.534	678.723
285.657	15.600	889.099	678.400
286.672	15.598	887.993	677.489
287.687	15.569	887.833	677.192
288.701	15.709	886.796	676.902
289.716	15.727	886.150	676.421
290.730	15.556	885.752	675.373
291.745	15.588	885.311	675.104
292.760	15.628	884.879	674.875
293.774	15.781	883.597	674.453
294.789	15.800	883.046	674.046
295.803	15.809	882.315	673.465
296.818	15.829	881.932	673.192
297.833	15.747	881.083	672.161
298.847	15.730	880.546	671.624
299.862	15.772	880.048	671.350
300.876	15.812	879.748	671.222
301.891	15.887	878.738	670.690
302.906	15.874	878.305	670.249
303.920	15.794	878.109	669.721
304.935	15.877	877.071	669.200
305.949	15.859	876.174	668.383
306.964	15.886	875.850	668.187
307.979	15.907	875.453	667.907
308.993	15.994	874.702	667.620
310.008	16.113	874.164	667.621
311.022	16.078	873.803	667.149
312.037	15.993	872.943	666.098
313.052	16.011	872.054	665.431
314.066	15.850	871.961	664.665
315.081	15.979	870.959	664.350
316.095	15.922	870.530	663.740
317.110	15.890	869.972	663.132
318.125	16.055	869.318	663.222
319.139	16.063	869.018	662.965
320.154	15.995	868.657	662.365
321.168	15.972	868.093	661.785
322.183	16.187	867.163	661.862
323.197	16.079	866.966	661.229
324.212	15.998	866.403	660.425
325.227	16.211	865.674	660.645
326.241	16.148	865.356	660.096
327.256	16.129	864.268	659.132
328.270	16.130	864.130	658.973
329.285	16.164	863.161	658.310
330.300	16.267	862.561	658.197
331.314	16.135	862.063	657.243
332.329	16.250	861.367	657.101
333.343	16.324	860.905	656.977
334.358	16.266	861.006	656.772
335.373	16.211	860.449	656.077
336.387	16.217	860.343	655.961
337.402	16.252	859.926	655.719
338.416	16.357	859.457	655.713
339.431	16.290	858.837	654.920
340.446	16.443	858.248	655.006
341.460	16.375	858.389	654.794
342.475	16.411	858.048	654.614
343.489	16.506	857.158	654.244
344.504	16.528	857.014	654.162
345.519	16.439	856.446	653.327
346.533	16.504	855.701	652.950
347.548	16.510	855.251	652.571
348.562	16.377	854.798	651.658
349.577	16.535	854.169	651.729
350.592	16.409	853.647	650.787
351.606	16.666	852.339	650.721
352.621	16.434	852.039	649.541
353.635	16.585	850.992	649.268
354.650	16.507	850.614	648.620
355.665	16.635	850.204	648.744
356.679	16.534	849.679	647.897
357.694	16.817	848.741	648.208
358.708	16.765	847.975	647.368
359.723	16.759	847.458	646.892
360.738	16.594	847.116	645.943
361.752	16.809	846.203	646.010
362.767	16.618	845.744	644.873
363.781	16.902	844.915	645.265
364.796	16.737	844.906	644.576
365.810	16.919	844.689	645.043
366.825	16.783	844.329	644.194
367.840	16.792	844.116	644.009
368.854	16.789	843.273	643.297
369.869	16.814	842.776	642.956
370.883	16.863	842.328	642.746
371.898	16.840	842.413	642.664
372.913	16.944	841.253	642.115
373.927	16.946	841.189	642.020
374.942	16.955	840.544	641.505
375.956	16.997	840.132	641.290
376.971	17.069	839.318	640.884
377.986	17.036	839.339	640.720
379.000	16.988	838.891	640.139
380.015	17.170	838.209	640.248
381.029	17.242	837.419	639.859
382.044	17.253	836.770	639.348
383.059	17.110	836.839	638.808
384.073	17.260	835.740	638.475
385.088	17.109	835.058	637.332
386.102	17.197	834.837	637.436
387.117	17.140	834.063	636.576
388.132	17.188	833.159	636.009
389.146	17.277	832.772	635.988
390.161	17.162	832.689	635.442
391.175	17.037	832.772	634.980
392.190	17.237	831.754	634.895
393.205	17.313	831.081	634.610
394.219	17.262	830.824	634.167
395.234	17.309	830.283	633.870
396.248	17.223	829.774	633.107
397.263	17.129	829.366	632.390
398.278	17.174	829.294	632.447
399.292	17.288	828.920	632.530
400.307	17.251	828.064	631.684
401.321	17.191	827.692	631.121
402.336	17.290	827.442	631.243
403.350	17.329	826.598	630.685
404.365	17.389	825.978	630.381
405.380	17.378	825.786	630.135
406.394	17.363	825.172	629.556
407.409	17.543	824.679	629.791
408.423	17.415	824.493	629.120
409.438	17.516	823.852	628.947
410.453	17.631	823.570	629.100
411.467	17.738	822.858	628.896
412.482	17.549	822.595	627.941
413.496	17.569	822.510	627.897
414.511	17.579	822.217	627.654
415.526	17.721	821.288	627.413
416.540	17.617	820.997	626.752
417.555	17.774	820.311	626.748
418.569	17.793	820.104	626.604
419.584	17.791	819.524	626.098
420.599	17.676	819.446	625.563
421.613	100.154	1281.339	1425.920
422.628	86.358	1348.610	1426.019
