DTS Sentinel unit serial number:	SN413079Multiplexer serial number:	ORYXHardware model number:	OX4-SRSoftware version number:	ORYX F/W v4.00 Oryx Data Collector v3.7.2.0data status	okinstallation	princeton_trtdifferential loss correction	single-endedforward channel	channel 1reverse channel	N/Adate	2019/09/17time	11:26:35forward acquisition time	60.00reverse acquisition time	0.00gamma	496.2192k internal	0.2323k external	0.2323temperature offset calibration	0.9969default loss term (dB/km)	0.3790temperature slope calibration	1.0000multiplexer offset coefficient	1.0000multiplexer slope coefficient	1.0000fibre end	0.00T internal ref (°C)	30.62T ext. ref 1 (°C)	0.34T ext. ref 2 (°C)	26.36length (m)	temperature (°C)	Stokes	anti-Stokes-747.200	46.175	-0.046	0.043
-746.185	-144.680	-0.221	-0.021
-745.171	-200.000	0.002	-0.158
-744.156	450.478	0.034	0.076
-743.142	800.000	0.037	0.131
-742.127	-17.921	-0.382	-0.242
-741.112	-90.248	0.382	0.112
-740.098	-200.000	-0.015	-0.169
-739.083	124.492	0.211	-0.269
-738.069	800.000	0.120	0.356
-737.054	163.444	0.112	0.159
-736.039	-112.449	-0.312	0.063
-735.025	-115.462	0.516	0.098
-734.010	51.133	-0.176	0.169
-732.996	-51.688	-0.487	0.229
-731.981	38.156	0.321	-0.288
-730.966	62.519	-0.288	-0.290
-729.952	-200.000	-0.086	-0.523
-728.937	454.991	-0.035	-0.077
-727.923	-110.049	-0.101	-0.021
-726.908	-3.926	-0.300	0.210
-725.894	332.048	-0.215	-0.419
-724.879	-159.725	-0.343	-0.019
-723.864	-91.204	0.120	-0.035
-722.850	402.130	-0.106	-0.225
-721.835	610.476	-0.056	-0.141
-720.821	-148.287	-0.449	0.037
-719.806	-72.452	0.295	-0.110
-718.791	542.473	-0.160	-0.385
-717.777	-61.044	-0.222	0.094
-716.762	-200.000	0.037	-0.375
-715.748	-200.000	0.042	-0.235
-714.733	-44.826	-0.174	0.087
-713.718	-23.611	-0.101	-0.061
-712.704	-200.000	-0.072	-0.323
-711.689	-130.693	-0.059	0.008
-710.675	-2.967	0.188	0.132
-709.660	-88.232	-0.218	0.066
-708.645	545.155	0.079	-0.191
-707.631	-200.000	-0.008	-0.068
-706.616	-77.861	-0.411	0.143
-705.602	213.586	-0.091	0.146
-704.587	-96.297	-0.159	0.042
-703.572	78.802	-0.224	-0.242
-702.558	87.485	-0.236	-0.264
-701.543	-115.672	0.198	0.037
-700.529	-76.385	-0.247	0.088
-699.514	-200.000	0.000	-0.320
-698.499	-173.463	-0.433	-0.013
-697.485	76.410	-0.324	-0.347
-696.470	-200.000	-0.008	0.058
-695.456	-45.939	0.296	0.147
-694.441	280.046	0.066	-0.119
-693.426	19.210	-0.124	-0.101
-692.412	70.085	-0.201	-0.209
-691.397	-14.650	-0.262	-0.169
-690.383	-82.284	0.424	0.139
-689.368	-200.000	-0.019	0.594
-688.354	466.893	-0.077	0.175
-687.339	-200.000	0.041	-0.303
-686.324	-148.866	0.152	0.012
-685.310	800.000	0.056	0.194
-684.295	-70.292	-0.144	-0.055
-683.281	-110.044	-0.073	0.015
-682.266	-114.755	0.195	-0.038
-681.251	800.000	0.042	0.154
-680.237	-47.716	-0.366	-0.179
-679.222	23.244	-0.252	0.209
-678.208	65.503	-0.354	0.361
-677.193	-117.332	-0.270	-0.049
-676.178	-106.641	0.093	0.021
-675.164	-200.000	0.010	-0.189
-674.149	-136.071	0.332	0.039
-673.135	-92.492	0.074	-0.021
-672.120	131.442	-0.204	-0.264
-671.105	35.228	-0.099	0.087
-670.091	-69.425	0.472	0.182
-669.076	-200.000	-0.033	-0.298
-668.062	134.215	0.281	-0.366
-667.047	78.375	0.117	-0.125
-666.032	-200.000	-0.014	-0.192
-665.018	310.556	-0.122	0.229
-664.003	413.120	0.123	-0.263
-662.989	-96.561	0.155	0.041
-661.974	-117.512	0.224	-0.041
-660.959	-164.215	0.395	0.018
-659.945	-84.601	0.202	0.064
-658.930	-200.000	0.063	0.303
-657.916	-118.329	0.051	-0.009
-656.901	800.000	0.021	0.064
-655.886	-136.057	-0.183	-0.022
-654.872	-46.192	0.193	-0.095
-653.857	201.912	0.009	0.014
-652.843	-5.364	-0.358	0.248
-651.828	-163.968	0.253	-0.012
-650.814	800.000	0.037	0.112
-649.799	23.545	0.132	0.109
-648.784	160.427	-0.140	0.197
-647.770	-25.859	-0.061	0.036
-646.755	45.823	0.486	-0.452
-645.741	-119.233	-0.425	0.075
-644.726	32.816	-0.261	0.227
-643.711	-35.913	0.167	-0.091
-642.697	469.340	-0.056	0.127
-641.682	9.876	0.103	0.079
-640.668	-5.535	-0.055	0.038
-639.653	-30.405	-0.226	-0.129
-638.638	257.956	-0.045	-0.078
-637.624	-113.747	0.225	-0.044
-636.609	-200.000	-0.013	-0.226
-635.595	-200.000	0.024	-0.137
-634.580	16.606	-0.230	-0.183
-633.565	800.000	0.093	-0.267
-632.551	-5.699	-0.183	0.126
-631.536	-200.000	0.022	0.223
-630.522	-70.391	0.215	0.082
-629.507	293.102	-0.112	-0.206
-628.492	358.372	-0.046	-0.093
-627.478	68.618	0.109	-0.113
-626.463	218.567	-0.161	0.258
-625.449	-200.000	-0.002	-0.341
-624.434	349.246	0.078	-0.156
-623.419	-141.605	0.260	0.026
-622.405	156.292	0.181	0.252
-621.390	800.000	-0.016	-0.054
-620.376	38.029	0.093	-0.084
-619.361	502.282	-0.068	-0.158
-618.346	43.921	-0.155	-0.143
-617.332	196.072	-0.113	0.172
-616.317	-83.901	0.230	-0.074
-615.303	-19.236	-0.270	0.168
-614.288	-200.000	0.013	-0.065
-613.273	138.073	-0.118	0.156
-612.259	-200.000	-0.031	-0.139
-611.244	-83.138	-0.165	-0.053
-610.230	-99.695	0.100	-0.025
-609.215	-136.362	-0.177	-0.021
-608.201	69.170	-0.021	0.022
-607.186	-85.251	0.166	0.052
-606.171	154.685	0.230	0.318
-605.157	800.000	0.041	-0.122
-604.142	290.004	-0.067	-0.122
-603.128	-172.081	0.347	-0.011
-602.113	-200.000	0.018	-0.161
-601.098	-200.000	-0.024	0.108
-600.084	-200.000	-0.017	-0.080
-599.069	58.545	0.110	0.109
-598.055	-13.300	-0.197	-0.129
-597.040	-121.024	0.248	0.042
-596.025	77.958	-0.105	0.112
-595.011	242.138	0.134	0.224
-593.996	39.647	-0.087	0.078
-592.982	56.678	-0.198	-0.194
-591.967	699.485	0.029	0.077
-590.952	110.693	-0.078	-0.094
-589.938	-135.640	0.115	-0.014
-588.923	800.000	0.091	0.354
-587.909	11.452	-0.107	-0.083
-586.894	-113.165	-0.055	-0.011
-585.879	1.629	-0.162	0.117
-584.865	298.622	-0.129	-0.238
-583.850	422.304	-0.063	-0.135
-582.836	-22.029	0.067	0.041
-581.821	101.101	-0.217	-0.253
-580.806	800.000	-0.156	-0.477
-579.792	-25.395	0.184	-0.109
-578.777	-62.856	0.125	0.052
-577.763	800.000	-0.040	0.126
-576.748	-31.352	0.291	0.164
-575.733	-200.000	-0.039	-0.394
-574.719	175.476	0.039	0.057
-573.704	23.156	-0.103	-0.085
-572.690	800.000	-0.122	0.476
-571.675	-131.704	-0.116	-0.015
-570.661	-116.066	-0.092	0.017
-569.646	53.629	-0.212	0.204
-568.631	-113.147	-0.118	-0.023
-567.617	-200.000	-0.039	0.382
-566.602	59.171	-0.028	-0.028
-565.588	-27.005	0.249	-0.146
-564.573	-122.427	-0.358	-0.058
-563.558	15.011	0.261	0.205
-562.544	-200.000	-0.015	0.107
-561.529	7.578	-0.317	0.238
-560.515	-200.000	0.012	0.188
-559.500	94.489	-0.243	-0.277
-558.485	179.360	-0.030	-0.044
-557.471	44.862	-0.058	0.054
-556.456	-54.409	-0.204	0.093
-555.442	80.433	0.186	0.201
-554.427	-95.854	0.125	-0.033
-553.412	800.000	-0.077	0.258
-552.398	76.625	0.290	0.309
-551.383	-20.505	-0.084	-0.051
-550.369	-48.153	-0.292	0.141
-549.354	-200.000	-0.015	0.312
-548.339	26.923	-0.091	-0.077
-547.325	-200.000	0.016	-0.085
-546.310	-81.243	-0.292	-0.097
-545.296	35.094	-0.128	0.112
-544.281	146.144	-0.165	0.222
-543.266	-75.334	-0.141	-0.050
-542.252	781.560	-0.093	0.254
-541.237	230.612	0.151	0.247
-540.223	490.510	-0.061	-0.139
-539.208	-147.168	-0.029	-0.002
-538.193	-125.565	0.297	-0.045
-537.179	302.539	0.272	0.504
-536.164	203.363	0.296	0.459
-535.150	-109.206	0.106	-0.023
-534.135	-200.000	0.028	-0.275
-533.121	18.818	-0.192	-0.154
-532.106	800.000	-0.009	-0.028
-531.091	800.000	0.052	0.171
-530.077	78.922	0.190	-0.203
-529.062	144.519	-0.123	-0.164
-528.048	80.432	0.027	0.029
-527.033	-8.843	0.240	0.161
-526.018	28.341	0.203	-0.172
-525.004	-89.526	-0.134	-0.039
-523.989	-200.000	-0.009	-0.224
-522.975	-49.429	-0.141	0.067
-521.960	-50.464	0.205	-0.097
-520.945	800.000	0.082	0.234
-519.931	55.149	0.215	-0.208
-518.916	800.000	0.054	-0.189
-517.902	137.365	0.068	0.089
-516.887	-176.856	0.283	0.007
-515.872	-200.000	0.022	0.172
-514.858	555.163	0.095	-0.228
-513.843	-21.645	0.150	0.092
-512.829	177.189	0.117	0.170
-511.814	-200.000	-0.035	0.215
-510.799	-5.833	0.241	0.165
-509.785	-7.864	-0.163	-0.110
-508.770	424.018	0.036	-0.077
-507.756	-200.000	0.025	0.272
-506.741	800.000	0.035	0.144
-505.726	-142.048	0.113	-0.011
-504.712	85.570	0.023	-0.025
-503.697	-7.488	-0.080	0.054
-502.683	800.000	0.036	0.142
-501.668	12.094	-0.241	0.186
-500.653	-67.176	-0.062	0.024
-499.639	-200.000	0.038	0.206
-498.624	543.141	0.163	0.389
-497.610	-168.102	0.176	0.007
-496.595	-60.223	-0.156	-0.067
-495.581	-179.185	0.147	0.003
-494.566	-200.000	0.005	-0.224
-493.551	-185.900	0.441	0.007
-492.537	-33.556	-0.114	-0.063
-491.522	39.936	-0.294	0.264
-490.508	-200.000	-0.083	-0.428
-489.493	-103.108	-0.211	0.050
-488.478	118.134	0.127	-0.157
-487.464	-39.081	-0.408	-0.215
-486.449	-139.903	0.021	-0.002
-485.435	228.944	-0.074	0.120
-484.420	-200.000	-0.014	-0.218
-483.405	-200.000	0.006	-0.127
-482.391	162.480	-0.206	-0.289
-481.376	52.550	-0.067	-0.064
-480.362	800.000	-0.065	0.270
-479.347	800.000	0.040	-0.116
-478.332	800.000	-0.053	-0.164
-477.318	-68.983	0.081	0.031
-476.303	-37.157	-0.138	-0.074
-475.289	-57.927	0.129	-0.056
-474.274	-95.528	0.159	-0.043
-473.259	-119.748	-0.315	-0.054
-472.245	36.639	0.176	0.155
-471.230	-200.000	0.008	0.069
-470.216	-91.506	0.194	-0.055
-469.201	91.865	0.165	0.186
-468.186	-142.780	0.195	-0.019
-467.172	192.603	-0.087	-0.131
-466.157	-4.262	0.051	0.035
-465.143	127.817	-0.066	-0.084
-464.128	74.551	-0.090	0.095
-463.113	-8.242	0.274	-0.184
-462.099	-31.241	0.225	-0.126
-461.084	-54.610	-0.066	-0.030
-460.070	741.173	-0.042	-0.113
-459.055	754.379	0.072	-0.194
-458.040	-23.373	0.149	-0.089
-457.026	622.290	-0.121	0.304
-456.011	612.482	0.072	0.181
-454.997	17.094	-0.202	-0.160
-453.982	-0.027	0.221	-0.157
-452.968	-200.000	-0.017	0.150
-451.953	-123.887	0.041	0.006
-450.938	247.074	0.110	0.186
-449.924	547.448	-0.092	0.220
-448.909	-136.280	0.215	0.025
-447.895	193.851	0.182	0.275
-446.880	-166.857	0.040	0.002
-445.865	-91.072	0.042	0.012
-444.851	88.669	0.138	0.154
-443.836	800.000	-0.128	0.424
-442.822	800.000	-0.061	0.238
-441.807	-91.246	-0.077	0.022
-440.792	297.823	0.088	0.161
-439.778	-155.463	-0.225	-0.014
-438.763	545.511	-0.027	-0.066
-437.749	-200.000	-0.017	0.120
-436.734	-4.872	0.157	-0.108
-435.719	-157.659	0.253	-0.015
-434.705	-200.000	0.012	-0.166
-433.690	46.371	0.133	0.123
-432.676	288.106	-0.173	-0.312
-431.661	-200.000	0.040	-0.450
-430.646	-200.000	-0.046	0.297
-429.632	800.000	0.074	0.289
-428.617	207.707	0.105	-0.164
-427.603	-79.813	0.312	0.105
-426.588	-74.695	0.089	0.032
-425.573	8.806	-0.220	-0.165
-424.559	-200.000	0.101	-0.453
-423.544	136.842	-0.143	-0.187
-422.530	-200.000	-0.015	-0.169
-421.515	-42.968	-0.331	0.167
-420.500	-26.891	0.241	0.140
-419.486	-93.036	0.404	-0.112
-418.471	-143.502	0.243	-0.023
-417.457	-136.146	-0.279	-0.033
-416.442	-200.000	0.018	-0.118
-415.428	-172.754	0.416	0.013
-414.413	-182.963	-0.265	-0.005
-413.398	127.574	-0.179	-0.227
-412.384	138.136	-0.366	-0.478
-411.369	-111.081	-0.084	-0.017
-410.355	23.312	-0.101	-0.083
-409.340	1.560	0.111	-0.080
-408.325	-31.689	-0.125	-0.070
-407.311	410.505	-0.105	0.222
-406.296	-121.260	0.232	-0.039
-405.282	66.013	-0.054	-0.055
-404.267	-114.341	0.168	-0.032
-403.252	58.498	0.277	0.271
-402.238	277.644	-0.078	0.139
-401.223	137.585	-0.035	-0.046
-400.209	79.735	0.077	0.083
-399.194	5.029	0.150	0.110
-398.179	54.700	-0.179	0.172
-397.165	52.485	-0.015	-0.014
-396.150	-167.760	0.253	0.010
-395.136	170.703	-0.098	0.140
-394.121	-37.485	0.096	-0.051
-393.106	777.708	0.081	-0.220
-392.092	-43.098	-0.244	0.123
-391.077	-38.137	-0.291	0.154
-390.063	667.568	-0.121	-0.310
-389.048	-200.000	-0.016	-0.334
-388.033	-133.551	-0.297	-0.037
-387.019	-167.606	0.245	0.010
-386.004	-25.253	-0.233	0.137
-384.990	-49.245	0.327	-0.156
-383.975	79.705	0.283	-0.303
-382.960	0.962	-0.219	0.156
-381.946	-114.984	-0.104	0.020
-380.931	142.985	-0.215	-0.285
-379.917	-140.686	0.171	-0.018
-378.902	221.552	0.041	-0.065
-377.888	-66.198	-0.077	0.030
-376.873	-125.770	-0.181	0.027
-375.858	-47.710	-0.232	0.112
-374.844	-98.978	-0.376	0.095
-373.829	800.000	0.099	0.309
-372.815	-93.306	0.079	0.022
-371.800	-54.171	0.133	-0.060
-370.785	-54.421	-0.279	0.126
-369.771	-136.521	-0.227	0.026
-368.756	-200.000	0.023	-0.127
-367.742	-45.087	-0.177	0.088
-366.727	2.939	-0.251	0.181
-365.712	119.081	-0.119	0.147
-364.698	75.487	0.313	-0.329
-363.683	103.511	-0.053	0.062
-362.669	-200.000	-0.002	0.260
-361.654	62.026	0.397	0.394
-360.639	-75.242	-0.132	0.047
-359.625	256.347	-0.118	0.202
-358.610	-200.000	-0.014	0.101
-357.596	45.064	0.265	-0.243
-356.581	-190.427	-0.417	0.005
-355.566	-90.403	0.267	0.077
-354.552	-66.619	-0.128	0.050
-353.537	156.392	-0.183	-0.251
-352.523	-69.333	-0.154	-0.059
-351.508	-12.487	0.181	0.117
-350.493	331.517	0.040	-0.077
-349.479	-15.564	-0.338	-0.214
-348.464	-200.000	0.011	0.129
-347.450	126.466	0.209	0.262
-346.435	-200.000	-0.026	-0.247
-345.420	89.176	-0.170	0.188
-344.406	330.142	0.096	0.183
-343.391	-200.000	-0.013	0.148
-342.377	-140.318	-0.159	0.017
-341.362	-117.955	0.266	0.047
-340.348	-200.000	0.011	-0.134
-339.333	-10.874	-0.199	0.131
-338.318	139.207	-0.020	0.026
-337.304	337.896	0.088	0.170
-336.289	71.179	0.035	-0.036
-335.275	-23.882	-0.207	-0.123
-334.260	260.284	0.225	0.387
-333.245	800.000	0.094	-0.408
-332.231	-200.000	0.021	-0.367
-331.216	-97.533	-0.364	0.094
-330.202	29.718	-0.088	-0.074
-329.187	4.071	-0.098	0.072
-328.172	-200.000	-0.016	-0.123
-327.158	-200.000	0.001	-0.122
-326.143	800.000	-0.046	-0.154
-325.129	-200.000	-0.034	-0.228
-324.114	-60.875	0.218	0.091
-323.099	-108.284	0.268	0.058
-322.085	-107.565	0.108	0.024
-321.070	74.678	0.264	0.276
-320.056	10.851	0.067	-0.051
-319.041	112.399	0.079	0.095
-318.026	158.669	-0.221	0.304
-317.012	-149.817	-0.616	0.048
-315.997	-110.582	-0.250	0.051
-314.983	800.000	0.114	-0.363
-313.968	-116.421	0.373	0.068
-312.953	-200.000	-0.025	0.195
-311.939	9.249	0.222	0.166
-310.924	-43.034	0.053	0.027
-309.910	352.224	-0.169	0.333
-308.895	-11.638	-0.076	0.050
-307.880	87.532	-0.283	-0.311
-306.866	-140.240	0.458	0.048
-305.851	-133.093	-0.366	-0.046
-304.837	800.000	-0.062	-0.200
-303.822	-84.149	0.197	0.062
-302.807	155.646	-0.128	-0.174
-301.793	800.000	0.030	-0.091
-300.778	-55.089	0.275	-0.123
-299.764	229.377	-0.151	-0.245
-298.749	-0.544	-0.274	-0.193
-297.735	401.903	-0.018	0.037
-296.720	4.766	0.208	-0.152
-295.705	72.172	-0.094	-0.097
-294.691	290.503	0.077	-0.138
-293.676	150.401	-0.084	0.113
-292.662	-185.347	0.241	-0.004
-291.647	-63.053	0.305	0.125
-290.632	-200.000	0.024	0.196
-289.618	-10.408	-0.253	0.167
-288.603	-200.000	0.088	0.594
-287.589	-49.451	-0.216	0.102
-286.574	-52.268	0.149	-0.069
-285.559	-184.945	0.354	0.006
-284.545	-87.868	0.140	0.042
-283.530	-200.000	-0.006	0.108
-282.516	278.175	-0.204	0.360
-281.501	-200.000	0.021	-0.129
-280.486	-200.000	0.013	0.292
-279.472	800.000	0.060	0.178
-278.457	-148.640	0.293	0.024
-277.443	73.240	-0.176	-0.182
-276.428	-47.903	-0.106	-0.051
-275.413	589.617	-0.124	-0.303
-274.399	-21.279	-0.115	-0.069
-273.384	-109.825	-0.178	0.037
-272.370	703.344	-0.022	-0.057
-271.355	-23.712	0.130	0.077
-270.340	275.138	0.201	0.353
-269.326	98.838	-0.041	0.047
-268.311	129.428	0.054	0.069
-267.297	-200.000	-0.030	-0.152
-266.282	-27.637	0.150	-0.087
-265.267	436.773	0.130	-0.280
-264.253	800.000	0.071	-0.246
-263.238	553.949	-0.085	-0.202
-262.224	-27.610	0.335	-0.193
-261.209	367.018	-0.082	0.165
-260.195	-200.000	0.015	0.092
-259.180	314.224	-0.072	-0.135
-258.165	128.404	0.072	0.090
-257.151	800.000	0.076	0.292
-256.136	-51.993	-0.253	-0.116
-255.122	-139.990	0.243	0.025
-254.107	446.812	-0.115	-0.250
-253.092	800.000	-0.085	0.253
-252.078	-120.541	-0.193	-0.032
-251.063	114.313	-0.076	-0.092
-250.049	220.423	0.114	0.182
-249.034	-70.797	0.176	0.066
-248.019	-86.640	-0.233	-0.071
-247.005	171.203	0.044	0.063
-245.990	-153.608	-0.354	0.024
-244.976	7.633	-0.153	-0.113
-243.961	-73.438	0.223	-0.081
-242.946	55.116	0.072	-0.069
-241.932	-154.620	-0.301	-0.020
-240.917	-83.179	-0.175	-0.056
-239.903	161.422	0.114	0.158
-238.888	-119.207	0.517	-0.089
-237.873	-155.877	-0.171	-0.011
-236.859	31.968	0.085	-0.072
-235.844	800.000	0.059	-0.179
-234.830	45.808	0.142	0.130
-233.815	-200.000	0.025	0.114
-232.800	-123.852	0.195	0.030
-231.786	176.794	-0.142	-0.204
-230.771	-20.202	0.146	0.089
-229.757	-122.548	-0.174	0.028
-228.742	-200.000	0.009	-0.078
-227.727	-200.000	-0.013	-0.065
-226.713	13.667	-0.203	-0.156
-225.698	32.235	-0.244	0.208
-224.684	46.151	-0.278	0.255
-223.669	153.806	-0.085	-0.116
-222.655	341.999	0.150	-0.289
-221.640	103.957	-0.250	-0.291
-220.625	-19.239	-0.067	0.041
-219.611	-72.862	0.303	-0.110
-218.596	-200.000	0.009	-0.161
-217.582	800.000	-0.057	-0.209
-216.567	-37.155	0.164	-0.087
-215.552	800.000	-0.112	0.407
-214.538	-200.000	0.024	0.237
-213.523	-94.344	-0.184	-0.050
-212.509	-63.503	-0.162	-0.066
-211.494	-72.173	-0.231	0.085
-210.479	-25.442	0.130	0.076
-209.465	800.000	-0.032	-0.100
-208.450	-200.000	0.006	0.073
-207.436	800.000	-0.045	0.140
-206.421	-158.756	0.337	0.019
-205.406	121.536	-0.129	-0.159
-204.392	58.951	0.219	-0.213
-203.377	55.236	-0.115	0.110
-202.363	-77.230	0.081	0.028
-201.348	-43.510	0.317	0.158
-200.333	202.032	0.104	0.158
-199.319	-83.154	0.172	-0.055
-198.304	252.779	-0.162	-0.273
-197.290	-63.387	-0.205	0.083
-196.275	166.208	0.038	0.053
-195.260	-32.468	0.068	0.037
-194.246	-200.000	-0.029	0.171
-193.231	-200.000	0.033	0.180
-192.217	236.523	-0.189	-0.310
-191.202	171.263	0.023	0.032
-190.187	168.093	-0.221	-0.311
-189.173	218.324	-0.059	0.093
-188.158	-200.000	0.016	0.296
-187.144	-200.000	0.132	-0.588
-186.129	800.000	0.049	-0.164
-185.114	-200.000	0.018	-0.352
-184.100	800.000	-0.083	-0.315
-183.085	38.963	-0.082	-0.072
-182.071	260.290	-0.111	-0.189
-181.056	800.000	-0.036	0.107
-180.042	57.720	0.184	0.178
-179.027	237.499	0.145	-0.238
-178.012	318.516	0.222	0.414
-176.998	1.185	-0.315	0.224
-175.983	43.242	0.118	0.106
-174.969	-142.480	0.112	0.011
-173.954	-200.000	-0.011	-0.181
-172.939	-119.883	-0.129	-0.022
-171.925	-179.336	0.276	-0.006
-170.910	-50.589	0.308	0.144
-169.896	-200.000	-0.039	0.220
-168.881	-53.357	-0.119	0.054
-167.866	-29.387	-0.285	-0.161
-166.852	-68.385	0.112	0.043
-165.837	-70.430	0.224	0.084
-164.823	181.668	0.148	-0.215
-163.808	-121.502	0.106	0.017
-162.793	-99.024	-0.149	-0.037
-161.779	800.000	0.050	0.195
-160.764	-200.000	0.047	-0.442
-159.750	-198.619	-0.151	-0.001
-158.735	-40.319	0.122	-0.063
-157.720	608.151	-0.107	0.262
-156.706	-200.000	0.065	-0.323
-155.691	-200.000	-0.013	-0.114
-154.677	800.000	0.023	0.065
-153.662	800.000	-0.136	-0.577
-152.647	-74.507	0.221	0.079
-151.633	29.219	-0.253	-0.212
-150.618	-0.838	-0.046	0.032
-149.604	-56.765	0.214	0.094
-148.589	-200.000	0.013	-0.076
-147.574	-200.000	-0.028	0.223
-146.560	45.172	0.247	-0.225
-145.545	181.818	0.067	-0.097
-144.531	800.000	0.082	-0.270
-143.516	800.000	-0.046	-0.182
-142.502	-112.197	-0.129	0.026
-141.487	-200.000	0.024	-0.345
-140.472	-200.000	0.465	-0.000
-139.458	-44.447	-0.108	-0.053
-138.443	-200.000	-0.010	-0.122
-137.429	-62.067	-0.286	0.118
-136.414	-2.996	-0.156	0.108
-135.399	800.000	-0.044	-0.142
-134.385	-24.773	0.438	-0.257
-133.370	-200.000	-0.004	0.155
-132.356	120.831	-0.124	0.152
-131.341	-124.539	0.316	-0.048
-130.326	-200.000	0.024	-0.222
-129.312	-200.000	0.046	0.214
-128.297	315.766	0.079	-0.147
-127.283	800.000	-0.064	-0.261
-126.268	-42.141	-0.449	0.226
-125.253	-200.000	0.009	0.164
-124.239	761.000	-0.019	-0.052
-123.224	-76.518	-0.059	0.021
-122.210	-27.911	-0.145	-0.083
-121.195	334.508	-0.065	0.123
-120.180	-200.000	-0.014	0.108
-119.166	-58.062	0.290	0.125
-118.151	88.852	-0.155	0.170
-117.137	-200.000	-0.039	0.247
-116.122	-48.714	-0.423	-0.200
-115.107	58.376	0.124	0.120
-114.093	193.968	0.009	0.014
-113.078	370.495	-0.093	0.186
-112.064	393.604	-0.231	0.475
-111.049	-22.931	0.185	0.110
-110.034	-4.879	-0.181	-0.123
-109.020	190.181	-0.207	0.306
-108.005	-111.395	0.194	-0.039
-106.991	8.267	0.248	-0.183
-105.976	-200.000	-0.011	0.058
-104.962	732.550	-0.067	0.176
-103.947	800.000	0.114	-0.443
-102.932	45.096	-0.212	0.193
-101.918	97.564	0.228	0.258
-100.903	441.670	0.099	0.213
-99.889	-135.566	0.436	-0.051
-98.874	-2.344	-0.068	0.047
-97.859	-74.059	0.060	0.022
-96.845	435.639	-0.104	0.224
-95.830	-59.627	0.272	0.115
-94.816	-113.952	-0.081	-0.016
-93.801	0.273	0.018	-0.013
-92.786	655.921	-0.035	0.090
-91.772	-73.770	0.181	-0.065
-90.757	23.329	0.354	-0.287
-89.743	6.412	-0.240	-0.175
-88.728	800.000	0.047	0.148
-87.713	4.216	0.241	-0.174
-86.699	188.641	-0.140	-0.206
-85.684	-50.811	0.223	0.103
-84.670	-51.770	0.441	-0.202
-83.655	371.859	0.026	0.052
-82.640	-200.000	0.006	0.180
-81.626	-200.000	-0.009	0.260
-80.611	-152.273	0.166	0.012
-79.597	-200.000	-0.038	-0.168
-78.582	-200.000	0.017	-0.223
-77.567	800.000	0.054	0.177
-76.553	-200.000	-0.070	-0.327
-75.538	-26.798	-0.103	0.059
-74.524	324.141	-0.199	0.373
-73.509	154.555	-0.052	0.070
-72.494	-43.555	-0.208	0.103
-71.480	-145.548	-0.126	-0.011
-70.465	63.451	0.102	0.101
-69.451	-139.121	-0.205	-0.022
-68.436	-95.619	0.114	-0.030
-67.422	-200.000	0.006	-0.045
-66.407	-84.183	-0.181	0.056
-65.392	800.000	-0.056	0.206
-64.378	154.265	0.231	0.311
-63.363	241.973	0.121	0.199
-62.349	-76.814	-0.222	0.076
-61.334	110.436	-0.659	-0.778
-60.319	120.504	0.529	0.647
-59.305	800.000	-0.395	-1.329
-58.290	283.075	0.630	1.113
-57.276	460.211	0.576	1.261
-56.261	-200.000	101.552	581.859
-55.246	484.927	1436.925	3216.543
-54.232	151.764	2622.031	3513.024
-53.217	110.393	2163.925	2556.004
-52.203	42.747	1606.318	1438.180
-51.188	34.155	1339.551	1147.756
-50.173	30.926	1297.904	1093.121
-49.159	54.186	1347.995	1274.848
-48.144	55.509	1364.573	1298.373
-47.130	34.334	1322.356	1133.909
-46.115	30.854	1304.029	1097.685
-45.100	30.669	1299.459	1092.708
-44.086	30.489	1296.981	1089.523
-43.071	30.463	1295.154	1087.793
-42.057	30.545	1292.461	1085.965
-41.042	30.570	1290.787	1084.664
-40.027	30.569	1289.477	1083.513
-39.013	30.554	1287.423	1081.659
-37.998	30.570	1286.036	1080.543
-36.984	30.655	1284.335	1079.562
-35.969	30.583	1282.787	1077.801
-34.954	30.620	1280.779	1076.289
-33.940	30.609	1279.607	1075.192
-32.925	30.751	1277.926	1074.560
-31.911	30.587	1276.936	1072.738
-30.896	30.779	1275.095	1072.258
-29.881	30.810	1273.629	1071.160
-28.867	30.788	1272.086	1069.693
-27.852	30.715	1271.115	1068.412
-26.838	30.812	1269.476	1067.551
-25.823	30.776	1268.159	1066.192
-24.809	30.733	1267.496	1065.348
-23.794	30.743	1265.406	1063.605
-22.779	30.652	1264.421	1062.218
-21.765	30.696	1263.307	1061.492
-20.750	30.680	1261.897	1060.170
-19.736	30.624	1260.468	1058.612
-18.721	30.526	1259.393	1057.106
-17.706	30.508	1258.589	1056.290
-16.692	30.572	1257.270	1055.505
-15.677	30.618	1255.619	1054.338
-14.663	30.577	1254.674	1053.268
-13.648	30.566	1253.858	1052.478
-12.633	30.556	1252.554	1051.286
-11.619	30.555	1252.030	1050.797
-10.604	30.557	1251.016	1049.920
-9.590	30.561	1250.055	1049.093
-8.575	30.587	1249.167	1048.450
-7.560	30.596	1248.272	1047.710
-6.546	30.550	1247.087	1046.417
-5.531	30.419	1246.527	1045.168
-4.517	30.640	1245.281	1045.325
-3.502	30.612	1244.572	1044.530
-2.487	30.575	1243.449	1043.338
-1.473	30.617	1239.894	1040.546
-0.458	29.250	1225.552	1020.903
0.556	24.414	1208.868	985.033
1.571	20.709	1214.756	969.155
2.586	19.730	1229.765	975.519
3.600	19.443	1218.968	965.261
4.615	14.554	1145.900	881.544
5.629	5.132	1069.596	776.100
6.644	0.733	1048.860	739.502
7.659	0.328	1046.751	735.971
8.673	0.112	1046.011	734.335
9.688	0.199	1044.020	733.293
10.702	0.522	1042.961	734.055
11.717	5.929	1049.963	765.339
12.731	14.525	1060.899	815.437
13.746	17.808	1064.219	833.989
14.761	17.106	1063.400	829.845
15.775	16.128	1060.744	822.929
16.790	15.102	1059.131	816.601
17.804	14.434	1057.174	811.769
18.819	14.066	1056.436	809.341
19.834	13.835	1055.181	807.185
20.848	13.566	1054.452	805.248
21.863	13.431	1053.465	803.765
22.877	13.251	1052.602	802.161
23.892	13.204	1052.086	801.473
24.907	13.133	1051.627	800.708
25.921	13.141	1050.889	800.113
26.936	13.263	1049.997	799.955
27.950	13.350	1048.502	799.161
28.965	13.319	1047.864	798.457
29.980	13.312	1046.763	797.514
30.994	13.362	1045.593	796.792
32.009	13.441	1044.528	796.288
33.023	13.389	1043.500	795.184
34.038	13.375	1042.411	794.217
35.053	13.514	1041.482	794.110
36.067	13.340	1040.615	792.540
37.082	13.247	1040.345	791.822
38.096	13.487	1039.269	792.078
39.111	13.450	1038.345	791.130
40.126	13.265	1037.944	789.870
41.140	13.143	1036.756	788.312
42.155	13.121	1035.730	787.359
43.169	13.101	1034.611	786.342
44.184	13.067	1033.358	785.160
45.199	13.178	1032.426	784.909
46.213	13.154	1030.950	783.602
47.228	13.225	1029.957	783.118
48.242	13.256	1028.955	782.434
49.257	13.289	1027.960	781.764
50.271	13.371	1027.347	781.613
51.286	13.326	1026.666	780.813
52.301	13.270	1025.631	779.692
53.315	13.222	1024.391	778.457
54.330	13.294	1023.349	777.935
55.344	13.235	1022.510	776.951
56.359	13.225	1022.056	776.489
57.374	13.273	1020.812	775.701
58.388	13.216	1020.203	774.904
59.403	13.143	1019.524	773.974
60.417	13.149	1018.658	773.281
61.432	13.082	1018.009	772.406
62.447	13.032	1017.270	771.542
63.461	13.096	1016.215	770.973
64.476	13.080	1015.734	770.464
65.490	13.207	1014.375	769.956
66.505	13.029	1014.283	768.991
67.520	13.108	1013.726	768.866
68.534	13.098	1012.656	767.942
69.549	13.225	1011.747	767.771
70.563	13.135	1011.198	766.872
71.578	13.134	1009.694	765.657
72.593	13.029	1009.147	764.689
73.607	13.129	1008.409	764.523
74.622	13.009	1008.129	763.690
75.636	13.052	1007.566	763.394
76.651	13.151	1006.172	762.727
77.666	12.967	1006.194	761.826
78.680	13.081	1005.213	761.544
79.695	13.147	1004.697	761.390
80.709	13.199	1004.200	761.183
81.724	13.226	1003.295	760.557
82.739	13.182	1003.051	760.102
83.753	13.119	1002.242	759.131
84.768	13.300	1000.842	758.835
85.782	13.383	1000.189	758.653
86.797	13.346	999.403	757.820
87.812	13.283	998.436	756.731
88.826	13.316	997.384	756.018
89.841	13.360	996.141	755.207
90.855	13.349	995.896	754.907
91.870	13.473	994.464	754.321
92.884	13.375	994.535	753.860
93.899	13.487	993.183	753.277
94.914	13.372	992.715	752.335
95.928	13.370	991.952	751.678
96.943	13.409	991.202	751.221
97.957	13.348	989.982	749.956
98.972	13.365	989.461	749.569
99.987	13.498	988.104	749.079
101.001	13.445	987.373	748.220
102.016	13.429	986.421	747.357
103.030	13.349	985.965	746.585
104.045	13.413	985.142	746.187
105.060	13.366	984.112	745.127
106.074	13.430	983.106	744.586
107.089	13.271	982.112	743.055
108.103	13.236	981.477	742.352
109.118	13.304	980.329	741.723
110.133	13.205	979.827	740.831
111.147	13.151	979.214	740.061
112.162	13.394	978.167	740.294
113.176	13.282	977.620	739.312
114.191	13.412	976.580	739.043
115.206	13.321	975.900	738.054
116.220	13.266	975.431	737.391
117.235	13.410	974.025	736.900
118.249	13.334	973.338	735.977
119.264	13.413	972.227	735.426
120.279	13.364	971.855	734.861
121.293	13.287	970.816	733.668
122.308	13.242	970.137	732.892
123.322	13.196	968.905	731.690
124.337	13.307	968.182	731.573
125.352	13.196	967.418	730.440
126.366	13.227	966.121	729.530
127.381	13.110	965.237	728.283
128.395	13.238	964.424	728.170
129.410	13.370	963.386	727.902
130.424	13.391	962.886	727.556
131.439	13.419	961.621	726.655
132.454	13.340	961.168	725.903
133.468	13.430	959.885	725.265
134.483	13.418	959.434	724.806
135.497	13.344	958.649	723.827
136.512	13.391	957.513	723.109
137.527	13.427	957.018	722.829
138.541	13.299	956.448	721.774
139.556	13.396	955.787	721.638
140.570	13.467	954.743	721.094
141.585	13.465	953.895	720.379
142.600	13.556	952.946	719.993
143.614	13.564	952.121	719.345
144.629	13.583	951.497	718.892
145.643	13.580	950.582	718.125
146.658	13.597	949.615	717.401
147.673	13.501	948.680	716.218
148.687	13.438	947.881	715.277
149.702	13.406	947.088	714.479
150.716	13.491	946.107	714.040
151.731	13.354	945.930	713.254
152.746	13.510	944.988	713.151
153.760	13.400	944.467	712.223
154.775	13.621	943.985	712.748
155.789	13.619	943.336	712.186
156.804	13.573	942.357	711.187
157.819	13.637	941.669	710.880
158.833	13.600	941.636	710.631
159.848	13.812	940.271	710.444
160.862	13.712	939.303	709.226
161.877	13.654	938.091	708.000
162.892	13.595	937.328	707.109
163.906	13.513	936.500	706.071
164.921	13.517	935.870	705.553
165.935	13.628	935.056	705.347
166.950	13.500	934.373	704.224
167.964	13.694	933.146	704.064
168.979	13.675	932.169	703.181
169.994	13.600	931.753	702.489
171.008	13.678	930.814	702.048
172.023	13.665	929.858	701.210
173.037	13.718	929.458	701.070
174.052	13.725	928.950	700.654
175.067	13.696	928.191	699.900
176.081	13.524	927.754	698.781
177.096	13.595	927.207	698.605
178.110	13.708	926.457	698.457
179.125	13.722	925.942	698.066
180.140	13.726	925.446	697.645
181.154	13.915	924.578	697.725
182.169	13.911	924.043	697.240
183.183	13.979	922.969	696.657
184.198	13.829	923.097	696.062
185.213	13.912	922.036	695.546
186.227	13.841	921.723	694.951
187.242	13.820	921.257	694.452
188.256	13.968	919.986	694.051
189.271	14.090	919.224	693.922
190.286	13.778	918.767	692.214
191.300	13.781	917.722	691.379
192.315	13.633	917.155	690.274
193.329	13.600	917.204	690.112
194.344	13.759	916.301	690.033
195.359	13.863	915.879	690.088
196.373	13.907	915.077	689.606
197.388	13.921	914.441	689.124
198.402	13.933	914.625	689.249
199.417	14.052	913.662	688.955
200.432	14.052	913.114	688.481
201.446	14.169	912.446	688.403
202.461	14.146	912.055	687.953
203.475	14.269	911.570	688.031
204.490	14.085	911.019	686.795
205.504	14.084	909.833	685.837
206.519	14.145	909.149	685.511
207.534	14.027	908.626	684.573
208.548	14.023	908.308	684.256
209.563	14.131	907.526	684.050
210.577	14.310	906.577	684.007
211.592	14.244	906.067	683.292
212.607	14.321	905.220	682.909
213.621	14.271	904.547	682.135
214.636	14.210	903.709	681.193
215.650	14.293	903.098	681.011
216.665	14.407	901.846	680.475
217.680	14.400	901.457	680.093
218.694	14.310	901.142	679.427
219.709	14.282	900.884	679.055
220.723	14.313	899.826	678.326
221.738	14.346	899.046	677.811
222.753	14.471	898.222	677.641
223.767	14.454	897.727	677.137
224.782	14.520	896.814	676.656
225.796	14.564	896.488	676.526
226.811	14.473	895.953	675.696
227.826	14.562	895.556	675.697
228.840	14.400	894.547	674.221
229.855	14.404	893.855	673.658
230.869	14.468	892.692	672.978
231.884	14.288	892.849	672.310
232.899	14.531	891.603	672.291
233.913	14.466	891.071	671.570
234.928	14.351	890.206	670.395
235.942	14.402	889.771	670.212
236.957	14.467	889.197	669.985
237.972	14.482	888.734	669.634
238.986	14.522	888.087	669.247
240.001	14.548	887.254	668.667
241.015	14.553	886.991	668.428
242.030	14.618	886.122	667.976
243.045	14.495	885.511	666.963
244.059	14.652	884.981	667.132
245.074	14.573	884.586	666.461
246.088	14.695	883.888	666.361
247.103	14.746	883.089	665.905
248.117	14.693	882.697	665.340
249.132	14.780	881.770	664.926
250.147	14.973	881.313	665.291
251.161	14.837	880.790	664.296
252.176	14.930	880.160	664.133
253.190	14.901	879.697	663.611
254.205	14.818	879.211	662.855
255.220	15.014	878.396	662.958
256.234	15.027	877.367	662.176
257.249	15.037	877.062	661.924
258.263	15.080	876.061	661.284
259.278	15.068	875.536	660.780
260.293	15.136	874.474	660.188
261.307	15.041	874.844	660.032
262.322	15.055	874.075	659.451
263.336	15.232	872.986	659.268
264.351	15.106	872.390	658.262
265.366	15.238	871.815	658.290
266.380	15.185	871.050	657.447
267.395	15.140	870.675	656.929
268.409	15.152	869.774	656.238
269.424	15.256	868.915	655.937
270.439	15.083	868.417	654.826
271.453	15.122	867.962	654.580
272.468	15.276	867.393	654.695
273.482	15.153	867.108	653.941
274.497	15.141	866.460	653.348
275.512	15.271	865.704	653.226
276.526	15.185	865.116	652.388
277.541	15.398	864.628	652.794
278.555	15.331	864.103	652.077
279.570	15.293	863.176	651.172
280.585	15.380	862.348	650.827
281.599	15.474	861.739	650.675
282.614	15.451	860.853	649.861
283.628	15.440	860.491	649.487
284.643	15.493	860.032	649.289
285.657	15.480	859.313	648.635
286.672	15.487	858.701	648.145
287.687	15.451	857.902	647.346
288.701	15.495	857.480	647.139
289.716	15.348	857.168	646.278
290.730	15.451	856.476	646.096
291.745	15.575	855.857	646.050
292.760	15.579	855.381	645.650
293.774	15.688	854.537	645.374
294.789	15.598	853.953	644.530
295.803	15.485	853.577	643.755
296.818	15.550	852.451	643.100
297.833	15.639	852.043	643.076
298.847	15.583	851.884	642.684
299.862	15.494	851.290	641.838
300.876	15.618	850.615	641.744
301.891	15.627	850.026	641.279
302.906	15.921	849.090	641.637
303.920	15.864	848.414	640.852
304.935	15.893	848.131	640.694
305.949	15.725	847.776	639.730
306.964	15.836	846.743	639.314
307.979	15.974	846.346	639.480
308.993	15.787	846.203	638.605
310.008	15.869	845.249	638.141
311.022	16.111	844.335	638.312
312.037	15.853	844.263	637.224
313.052	15.813	843.460	636.408
314.066	15.849	843.197	636.292
315.081	15.857	842.589	635.807
316.095	15.840	841.714	635.025
317.110	15.862	841.199	634.662
318.125	15.893	840.616	634.286
319.139	15.835	840.293	633.768
320.154	15.885	839.917	633.615
321.168	15.889	839.156	632.999
322.183	16.019	838.568	632.988
323.197	15.854	838.487	632.253
324.212	15.997	837.490	631.980
325.227	15.917	837.207	631.413
326.241	15.933	836.494	630.877
327.256	15.917	835.849	630.275
328.270	15.954	835.505	630.097
329.285	15.910	834.654	629.238
330.300	15.976	834.314	629.170
331.314	15.991	833.587	628.623
332.329	15.828	833.888	628.184
333.343	16.065	832.702	628.120
334.358	16.031	832.576	627.844
335.373	16.121	832.072	627.744
336.387	16.182	831.633	627.584
337.402	16.206	831.569	627.566
338.416	16.172	831.107	627.038
339.431	16.211	830.616	626.758
340.446	16.195	830.472	626.534
341.460	16.422	829.891	626.880
342.475	16.329	829.444	626.144
343.489	16.405	828.847	625.919
344.504	16.334	828.495	625.335
345.519	16.462	827.962	625.352
346.533	16.382	827.744	624.836
347.548	16.254	827.349	624.007
348.562	16.324	826.562	623.618
349.577	16.481	825.803	623.570
350.592	16.373	825.524	622.905
351.606	16.377	824.771	622.298
352.621	16.366	824.280	621.831
353.635	16.454	823.482	621.497
354.650	16.511	822.882	621.198
355.665	16.655	822.008	621.012
356.679	16.499	821.563	620.049
357.694	16.574	820.929	619.790
358.708	16.559	820.102	619.058
359.723	16.541	819.599	618.557
360.738	16.526	819.429	618.317
361.752	16.571	818.745	617.912
362.767	16.671	817.884	617.573
363.781	16.587	817.876	617.203
364.796	16.763	817.177	617.263
365.810	16.905	816.713	617.377
366.825	16.823	816.329	616.734
367.840	16.927	815.852	616.695
368.854	16.747	815.448	615.682
369.869	16.762	815.229	615.517
370.883	16.718	814.799	614.979
371.898	16.728	814.450	614.696
372.913	16.856	813.936	614.718
373.927	16.949	813.285	614.508
374.942	16.751	813.338	613.778
375.956	16.906	812.530	613.673
376.971	16.990	811.888	613.437
377.986	17.013	811.470	613.153
379.000	16.932	811.104	612.530
380.015	17.053	810.897	612.754
381.029	17.060	809.665	611.796
382.044	17.225	809.035	611.859
383.059	17.086	808.720	611.065
384.073	17.064	808.075	610.447
385.088	16.983	807.892	609.961
386.102	17.110	807.073	609.745
387.117	17.052	806.781	609.262
388.132	16.970	806.132	608.427
389.146	17.143	805.157	608.256
390.161	17.185	805.138	608.338
391.175	17.284	804.431	608.105
392.190	17.304	803.969	607.771
393.205	17.144	803.653	606.909
394.219	17.031	803.466	606.309
395.234	17.045	803.062	606.000
396.248	17.064	802.682	605.726
397.263	16.934	802.383	604.985
398.278	16.970	802.013	604.782
399.292	17.017	801.480	604.493
400.307	17.106	800.416	603.955
401.321	17.100	800.314	603.802
402.336	17.101	799.579	603.197
403.350	17.289	799.152	603.489
404.365	17.131	799.422	603.080
405.380	17.137	798.863	602.624
406.394	17.350	798.082	602.737
407.409	17.548	797.584	603.009
408.423	17.342	797.445	602.122
409.438	17.257	797.287	601.647
410.453	17.472	796.307	601.615
411.467	17.421	795.904	601.075
412.482	17.503	795.460	600.978
413.496	17.425	795.205	600.457
414.511	17.505	794.960	600.501
415.526	17.438	794.742	600.048
416.540	17.722	793.812	600.292
417.555	17.528	793.356	599.211
418.569	17.707	792.757	599.334
419.584	17.495	792.720	598.508
420.599	17.530	792.271	598.242
421.613	109.071	1289.198	1465.014
422.628	93.686	1361.576	1465.141
