DTS Sentinel unit serial number:	SN413079Multiplexer serial number:	ORYXHardware model number:	OX4-SRSoftware version number:	ORYX F/W v4.00 Oryx Data Collector v3.7.2.0data status	okinstallation	princeton_trtdifferential loss correction	single-endedforward channel	channel 1reverse channel	N/Adate	2019/09/19time	12:14:35forward acquisition time	60.00reverse acquisition time	0.00gamma	496.2192k internal	0.2336k external	0.2336temperature offset calibration	1.0013default loss term (dB/km)	0.3790temperature slope calibration	1.0000multiplexer offset coefficient	1.0000multiplexer slope coefficient	1.0000fibre end	0.00T internal ref (°C)	26.44T ext. ref 1 (°C)	0.85T ext. ref 2 (°C)	23.25length (m)	temperature (°C)	Stokes	anti-Stokes-747.200	672.417	-0.064	-0.166
-746.185	30.972	0.177	0.152
-745.171	-72.994	0.078	0.029
-744.156	-200.000	-0.060	0.409
-743.142	-200.000	0.012	0.503
-742.127	93.820	-0.178	-0.203
-741.112	30.673	-0.060	0.052
-740.098	44.977	0.144	-0.133
-739.083	-141.360	0.370	0.038
-738.069	-14.245	-0.329	0.213
-737.054	-79.165	0.293	-0.100
-736.039	-136.927	-0.242	-0.028
-735.025	-200.000	-0.017	0.317
-734.010	-96.822	-0.209	-0.055
-732.996	-200.000	0.016	-0.515
-731.981	-70.355	-0.135	-0.051
-730.966	-89.330	-0.304	0.090
-729.952	539.616	-0.015	-0.035
-728.937	800.000	-0.036	0.103
-727.923	81.236	-0.125	-0.135
-726.908	-200.000	-0.009	-0.043
-725.894	781.888	-0.069	-0.189
-724.879	0.827	0.256	-0.184
-723.864	94.908	-0.118	-0.135
-722.850	-73.107	-0.173	-0.064
-721.835	-24.412	0.255	-0.152
-720.821	203.897	-0.170	0.264
-719.806	-200.000	0.004	0.135
-718.791	379.871	0.274	-0.563
-717.777	-200.000	-0.009	-0.260
-716.762	800.000	-0.031	-0.136
-715.748	202.999	-0.078	0.122
-714.733	-187.575	0.257	0.003
-713.718	4.462	-0.298	-0.219
-712.704	3.755	0.099	-0.073
-711.689	-91.358	0.163	-0.047
-710.675	-200.000	-0.006	-0.108
-709.660	-200.000	0.011	-0.516
-708.645	197.089	-0.067	0.103
-707.631	284.968	0.191	0.344
-706.616	631.384	-0.040	0.102
-705.602	468.439	0.057	0.128
-704.587	800.000	0.038	-0.112
-703.572	-67.102	-0.143	-0.057
-702.558	55.297	0.204	0.197
-701.543	18.975	0.265	0.213
-700.529	118.828	-0.240	0.297
-699.514	-200.000	0.007	-0.031
-698.499	800.000	0.088	0.261
-697.485	-200.000	0.038	-0.191
-696.470	81.241	0.217	0.235
-695.456	219.450	0.065	0.104
-694.441	17.677	0.256	0.204
-693.426	111.175	-0.119	-0.143
-692.412	490.567	0.051	-0.117
-691.397	170.063	0.148	0.212
-690.383	-200.000	-0.003	-0.136
-689.368	79.974	-0.044	-0.047
-688.354	-68.684	0.154	0.060
-687.339	-40.582	-0.139	0.072
-686.324	-200.000	0.022	0.208
-685.310	33.157	-0.161	-0.140
-684.295	-200.000	0.028	-0.128
-683.281	-53.395	-0.370	0.170
-682.266	-187.457	-0.267	0.004
-681.251	-94.393	-0.140	-0.038
-680.237	800.000	-0.059	-0.255
-679.222	-2.378	-0.198	-0.139
-678.208	44.111	0.136	0.125
-677.193	-24.816	0.429	0.256
-676.178	126.850	0.086	-0.109
-675.164	135.456	-0.144	-0.188
-674.149	800.000	-0.048	0.137
-673.135	800.000	-0.035	-0.148
-672.120	-55.034	-0.241	0.109
-671.105	800.000	0.015	-0.046
-670.091	-13.729	0.116	0.075
-669.076	-55.385	-0.074	0.033
-668.062	-200.000	0.008	0.244
-667.047	-51.574	-0.153	-0.071
-666.032	-46.094	-0.117	-0.058
-665.018	800.000	-0.071	0.236
-664.003	627.759	0.065	0.165
-662.989	-153.940	0.243	-0.017
-661.974	442.588	-0.068	-0.150
-660.959	-18.268	-0.233	-0.146
-659.945	679.766	-0.129	0.337
-658.930	-131.878	0.218	0.029
-657.916	-168.208	0.176	-0.007
-656.901	-94.242	-0.412	-0.113
-655.886	-200.000	0.053	-0.467
-654.872	-200.000	0.027	-0.146
-653.857	-83.275	0.173	-0.056
-652.843	-155.812	0.386	0.025
-651.828	92.472	0.093	0.105
-650.814	-200.000	0.035	-0.170
-649.799	149.983	-0.228	0.310
-648.784	800.000	0.027	0.087
-647.770	-144.728	-0.097	0.009
-646.755	800.000	0.048	0.200
-645.741	375.210	-0.080	-0.162
-644.726	800.000	0.020	0.084
-643.711	64.370	0.243	0.245
-642.697	-166.334	-0.106	0.004
-641.682	128.783	-0.203	0.259
-640.668	-85.064	0.134	-0.042
-639.653	19.599	-0.101	-0.081
-638.638	206.404	-0.074	0.116
-637.624	403.122	0.094	-0.197
-636.609	692.200	-0.046	-0.120
-635.595	800.000	0.046	-0.159
-634.580	-32.466	0.095	0.053
-633.565	-5.382	-0.127	0.087
-632.551	789.289	0.120	0.329
-631.536	425.640	-0.114	-0.245
-630.522	138.319	0.042	0.056
-629.507	-80.475	0.259	0.087
-628.492	280.606	0.183	-0.327
-627.478	-200.000	-0.023	0.271
-626.463	374.231	-0.101	0.207
-625.449	-200.000	-0.060	0.306
-624.434	214.490	0.025	0.040
-623.419	800.000	0.092	-0.271
-622.405	-200.000	-0.033	0.184
-621.390	-82.825	0.249	0.080
-620.376	-131.974	0.211	0.027
-619.361	-80.372	-0.197	0.066
-618.346	-200.000	-0.004	-0.418
-617.332	-34.817	0.123	-0.067
-616.317	123.792	-0.173	-0.217
-615.303	800.000	-0.051	0.201
-614.288	-169.319	-0.319	0.012
-613.273	-85.806	-0.275	0.085
-612.259	56.984	0.165	-0.161
-611.244	325.572	0.183	-0.349
-610.230	-50.540	0.118	0.055
-609.215	56.154	0.280	0.271
-608.201	422.105	-0.211	-0.452
-607.186	-144.024	0.378	-0.035
-606.171	-79.128	-0.216	-0.073
-605.157	226.594	-0.083	-0.134
-604.142	651.280	-0.030	-0.077
-603.128	306.041	-0.133	0.248
-602.113	-200.000	-0.037	-0.262
-601.098	-85.296	0.250	-0.078
-600.084	-74.395	-0.211	-0.076
-599.069	40.467	-0.096	0.087
-598.055	136.477	0.144	-0.188
-597.040	329.926	0.123	0.237
-596.025	-115.079	-0.222	0.042
-595.011	597.804	-0.109	0.269
-593.996	282.453	0.097	-0.174
-592.982	-160.918	-0.211	-0.011
-591.967	-50.489	0.126	-0.059
-590.952	-91.338	0.218	0.062
-589.938	-200.000	-0.005	0.181
-588.923	-200.000	-0.050	-0.234
-587.909	-85.943	-0.205	-0.063
-586.894	233.675	-0.116	-0.190
-585.879	-101.655	-0.165	-0.040
-584.865	-200.000	0.026	-0.189
-583.850	38.668	-0.150	0.134
-582.836	-12.716	-0.080	-0.052
-581.821	-62.599	0.148	0.061
-580.806	206.253	-0.021	0.032
-579.792	-133.554	0.292	0.037
-578.777	-68.171	0.174	-0.068
-577.763	-131.513	-0.269	0.035
-576.748	800.000	0.090	0.316
-575.733	-62.513	-0.148	-0.061
-574.719	105.136	0.175	-0.206
-573.704	-144.032	0.390	0.037
-572.690	-99.059	-0.175	0.044
-571.675	-46.400	0.224	-0.110
-570.661	-31.105	0.168	-0.095
-569.646	-66.510	-0.251	0.100
-568.631	800.000	0.023	-0.094
-567.617	-200.000	-0.007	-0.161
-566.602	215.553	0.157	0.248
-565.588	-176.854	-0.046	-0.001
-564.573	-200.000	0.013	0.100
-563.558	-56.597	-0.123	-0.054
-562.544	-193.353	-0.066	-0.001
-561.529	-88.167	0.068	-0.020
-560.515	-200.000	0.013	-0.100
-559.500	-69.527	0.091	0.035
-558.485	24.024	0.209	0.172
-557.471	7.373	-0.032	0.024
-556.456	43.603	0.211	0.193
-555.442	-35.182	0.249	-0.135
-554.427	486.988	0.112	0.255
-553.412	-200.000	0.018	0.240
-552.398	539.426	-0.023	-0.054
-551.383	-200.000	-0.015	-0.239
-550.369	-163.098	-0.200	-0.010
-549.354	91.202	-0.059	0.066
-548.339	316.075	0.085	-0.160
-547.325	450.881	-0.099	0.218
-546.310	-200.000	0.001	-0.075
-545.296	-200.000	0.004	-0.075
-544.281	-200.000	-0.035	-0.280
-543.266	176.948	0.092	-0.133
-542.252	-180.910	-0.244	0.005
-541.237	-65.887	-0.068	-0.027
-540.223	432.847	0.088	0.190
-539.208	-6.536	0.239	-0.162
-538.193	-5.612	0.341	-0.233
-537.179	800.000	-0.076	0.268
-536.164	800.000	0.012	0.041
-535.150	17.088	-0.179	0.141
-534.135	172.195	0.120	0.172
-533.121	165.911	-0.091	-0.128
-532.106	800.000	0.130	0.410
-531.091	-104.977	0.083	0.019
-530.077	-90.719	-0.150	-0.043
-529.062	-64.424	0.255	-0.103
-528.048	219.071	0.058	-0.092
-527.033	-127.853	0.188	-0.027
-526.018	450.742	-0.025	-0.054
-525.004	-200.000	-0.024	0.236
-523.989	149.788	-0.091	-0.122
-522.975	615.083	0.091	0.227
-521.960	-200.000	0.017	-0.486
-520.945	-200.000	-0.053	0.275
-519.931	419.680	0.127	-0.272
-518.916	800.000	-0.058	-0.196
-517.902	-200.000	0.083	-0.437
-516.887	490.141	-0.109	-0.248
-515.872	55.645	0.289	-0.279
-514.858	800.000	-0.058	-0.208
-513.843	-56.538	0.329	0.145
-512.829	-56.106	0.200	-0.089
-511.814	-40.603	-0.116	-0.060
-510.799	55.375	0.104	-0.101
-509.785	-39.935	0.236	0.123
-508.770	59.143	0.181	-0.178
-507.756	264.910	-0.149	0.259
-506.741	148.052	0.069	0.093
-505.726	-200.000	-0.037	-0.166
-504.712	-31.357	-0.094	0.053
-503.697	33.755	0.239	0.207
-502.683	31.299	0.258	0.221
-501.668	-50.214	-0.147	0.069
-500.653	69.593	0.097	0.099
-499.639	13.971	-0.201	0.155
-498.624	-200.000	0.017	0.149
-497.610	-21.136	-0.163	0.099
-496.595	-200.000	-0.003	-0.116
-495.581	-72.019	-0.185	-0.069
-494.566	448.177	-0.100	-0.220
-493.551	43.509	-0.215	0.195
-492.537	-106.634	0.215	0.048
-491.522	-104.807	-0.298	0.068
-490.508	145.425	-0.261	0.348
-489.493	673.005	0.025	0.064
-488.478	-200.000	0.020	-0.126
-487.464	89.584	-0.111	-0.123
-486.449	-184.077	0.106	-0.002
-485.435	14.704	-0.298	0.231
-484.420	483.354	0.117	0.265
-483.405	28.656	-0.217	-0.182
-482.391	351.912	0.193	-0.381
-481.376	20.360	-0.202	-0.163
-480.362	351.426	0.096	0.189
-479.347	379.197	-0.127	0.258
-478.332	-200.000	0.017	0.177
-477.318	-130.565	0.222	-0.030
-476.303	-143.334	-0.473	-0.045
-475.289	-200.000	0.017	-0.332
-474.274	62.491	0.167	-0.166
-473.259	-145.199	-0.288	-0.026
-472.245	88.660	-0.036	0.039
-471.230	27.641	0.023	0.019
-470.216	-97.379	0.057	-0.015
-469.201	-32.249	-0.335	-0.186
-468.186	313.525	0.110	0.206
-467.172	-43.007	-0.118	-0.060
-466.157	-76.294	0.468	-0.164
-465.143	-159.889	0.371	0.020
-464.128	102.589	-0.091	0.106
-463.113	15.562	-0.140	-0.109
-462.099	-54.216	0.111	-0.050
-461.084	-100.599	0.430	-0.105
-460.070	35.192	0.186	-0.162
-459.055	-130.092	-0.349	0.047
-458.040	714.324	-0.074	-0.194
-457.026	-48.732	0.351	-0.167
-456.011	-149.610	-0.127	-0.010
-454.997	-40.827	-0.031	0.016
-453.982	-200.000	-0.024	0.171
-452.968	-200.000	-0.034	0.168
-451.953	148.987	-0.178	0.239
-450.938	-200.000	0.075	-0.420
-449.924	-200.000	-0.004	0.162
-448.909	-175.728	0.238	-0.006
-447.895	-16.781	-0.104	0.065
-446.880	10.411	0.093	-0.071
-445.865	-100.972	-0.355	-0.086
-444.851	-83.365	0.346	-0.110
-443.836	12.770	-0.193	0.148
-442.822	237.362	-0.224	-0.368
-441.807	46.073	-0.064	0.059
-440.792	-64.786	-0.329	0.132
-439.778	427.940	0.100	-0.214
-438.763	-134.618	-0.121	-0.015
-437.749	-76.618	0.075	-0.026
-436.734	-200.000	-0.044	-0.231
-435.719	198.124	-0.154	0.233
-434.705	-121.802	-0.244	-0.040
-433.690	-200.000	-0.036	0.215
-432.676	256.994	0.070	-0.119
-431.661	282.238	0.072	0.129
-430.646	800.000	0.092	0.285
-429.632	584.064	-0.142	-0.345
-428.617	659.751	0.123	-0.315
-427.603	154.010	0.082	0.111
-426.588	130.356	0.227	0.289
-425.573	69.289	-0.341	-0.348
-424.559	-114.221	0.101	0.019
-423.544	-41.477	-0.335	-0.171
-422.530	-147.668	0.306	-0.026
-421.515	800.000	-0.038	-0.126
-420.500	-200.000	-0.011	-0.196
-419.486	-94.474	-0.019	0.005
-418.471	-83.196	-0.238	0.076
-417.457	-12.914	0.227	0.147
-416.442	-70.771	-0.209	-0.078
-415.428	-19.647	0.092	0.056
-414.413	-39.062	0.202	0.105
-413.398	-19.573	0.189	0.116
-412.384	-74.794	-0.105	0.037
-411.369	-116.297	0.057	0.010
-410.355	-200.000	-0.058	-0.333
-409.340	-5.676	-0.442	-0.300
-408.325	119.691	0.061	-0.075
-407.311	-52.884	-0.342	0.156
-406.296	163.451	-0.182	0.253
-405.282	-200.000	0.018	-0.211
-404.267	-65.050	0.105	-0.042
-403.252	319.770	-0.048	0.091
-402.238	-14.226	-0.091	-0.058
-401.223	-200.000	-0.019	-0.286
-400.209	81.762	-0.034	-0.036
-399.194	452.097	0.031	0.069
-398.179	-143.958	0.304	-0.028
-397.165	-101.211	0.318	-0.077
-396.150	-200.000	0.056	-0.380
-395.136	-53.749	-0.164	0.074
-394.121	99.826	-0.101	0.116
-393.106	-96.576	0.364	-0.095
-392.092	82.781	0.162	0.174
-391.077	325.913	-0.113	-0.213
-390.063	-119.061	0.430	0.075
-389.048	13.825	-0.164	0.126
-388.033	-200.000	-0.068	-0.465
-387.019	800.000	-0.089	-0.366
-386.004	-66.659	0.195	-0.077
-384.990	-92.032	0.155	0.043
-383.975	-95.732	-0.422	0.112
-382.960	-200.000	-0.002	0.064
-381.946	273.184	-0.165	-0.289
-380.931	-50.178	0.166	-0.078
-379.917	335.842	-0.148	-0.284
-378.902	44.841	-0.082	0.074
-377.888	262.409	0.152	0.262
-376.873	800.000	0.089	0.342
-375.858	800.000	0.087	0.371
-374.844	-106.074	0.205	-0.046
-373.829	69.163	-0.106	0.108
-372.815	51.854	-0.166	0.157
-371.800	111.630	0.171	-0.205
-370.785	-28.693	-0.166	-0.094
-369.771	800.000	-0.159	0.621
-368.756	800.000	-0.140	0.427
-367.742	14.441	-0.072	-0.056
-366.727	32.260	0.081	-0.070
-365.712	-53.655	-0.117	0.053
-364.698	673.236	0.199	-0.511
-363.683	-105.513	0.204	0.046
-362.669	800.000	0.107	-0.360
-361.654	-42.835	-0.201	-0.101
-360.639	-124.245	-0.315	0.049
-359.625	-48.786	0.295	0.140
-358.610	-108.680	0.169	-0.036
-357.596	710.468	0.141	0.370
-356.581	-54.980	-0.265	-0.118
-355.566	-123.369	0.151	-0.024
-354.552	-99.145	-0.365	0.091
-353.537	-200.000	0.043	-0.226
-352.523	-200.000	0.014	-0.086
-351.508	57.056	0.177	-0.171
-350.493	144.345	0.050	-0.067
-349.479	-148.973	-0.240	0.019
-348.464	179.532	0.200	0.290
-347.450	-16.983	-0.247	0.154
-346.435	271.001	-0.216	0.376
-345.420	-102.138	0.213	-0.051
-344.406	-27.122	0.130	0.075
-343.391	-200.000	0.026	-0.307
-342.377	-40.046	0.114	-0.059
-341.362	-87.055	0.116	-0.035
-340.348	82.695	0.241	0.258
-339.333	357.456	-0.104	0.206
-338.318	162.688	-0.213	-0.296
-337.304	-85.511	-0.149	0.046
-336.289	290.544	0.030	0.055
-335.275	-76.630	-0.292	0.101
-334.260	-50.710	0.201	-0.094
-333.245	76.048	0.054	0.056
-332.231	-200.000	-0.022	0.394
-331.216	-78.744	-0.326	0.110
-330.202	247.149	0.073	0.122
-329.187	-100.232	0.201	-0.049
-328.172	-200.000	-0.001	-0.084
-327.158	-4.502	0.173	0.118
-326.143	-129.211	-0.280	0.039
-325.129	213.151	0.031	-0.048
-324.114	-59.463	0.254	0.108
-323.099	-4.738	0.297	0.203
-322.085	257.248	0.112	-0.190
-321.070	-142.596	0.190	-0.018
-320.056	-158.179	-0.267	0.015
-319.041	-135.311	0.128	-0.015
-318.026	-200.000	0.046	-0.231
-317.012	-147.516	-0.140	-0.012
-315.997	-200.000	-0.011	-0.110
-314.983	-59.020	-0.291	-0.124
-313.968	196.101	-0.068	-0.102
-312.953	198.700	-0.254	0.383
-311.939	345.205	-0.069	-0.134
-310.924	210.168	-0.065	0.102
-309.910	800.000	0.028	-0.099
-308.895	-200.000	0.022	-0.258
-307.880	-16.305	-0.155	0.097
-306.866	272.874	-0.127	0.222
-305.851	800.000	0.056	0.241
-304.837	112.943	0.040	0.047
-303.822	38.337	0.162	0.143
-302.807	-128.274	-0.472	0.066
-301.793	-155.414	-0.478	-0.031
-300.778	-152.719	0.382	-0.027
-299.764	800.000	-0.065	-0.226
-298.749	800.000	0.051	0.163
-297.735	-72.490	0.069	-0.025
-296.720	213.126	0.109	-0.170
-295.705	321.267	0.142	0.266
-294.691	800.000	-0.048	0.190
-293.676	-19.640	-0.311	-0.190
-292.662	-51.608	0.104	-0.048
-291.647	84.617	0.184	0.198
-290.632	800.000	0.065	0.200
-289.618	800.000	-0.112	0.310
-288.603	-200.000	-0.054	-0.274
-287.589	-4.370	-0.056	-0.038
-286.574	-38.957	0.205	0.106
-285.559	800.000	0.066	-0.218
-284.545	68.282	-0.233	-0.236
-283.530	208.983	-0.060	-0.093
-282.516	73.973	0.112	-0.116
-281.501	184.329	0.219	0.319
-280.486	-94.665	-0.243	0.065
-279.472	241.390	-0.260	0.428
-278.457	-46.812	-0.075	-0.036
-277.443	263.140	-0.062	0.107
-276.428	-200.000	0.042	0.223
-275.413	48.016	0.077	0.071
-274.399	67.058	-0.107	-0.107
-273.384	-200.000	-0.023	0.218
-272.370	-20.901	0.134	0.081
-271.355	247.815	-0.198	0.330
-270.340	-200.000	-0.041	0.245
-269.326	-200.000	-0.069	-0.504
-268.311	800.000	0.075	-0.209
-267.297	12.430	0.169	-0.129
-266.282	72.030	-0.532	-0.545
-265.267	58.071	0.154	0.149
-264.253	-137.913	0.224	-0.025
-263.238	800.000	-0.091	-0.248
-262.224	-82.043	-0.163	-0.052
-261.209	563.248	0.159	-0.379
-260.195	-200.000	0.009	0.083
-259.180	-135.291	0.120	0.014
-258.165	580.767	0.104	-0.250
-257.151	-139.207	0.277	0.029
-256.136	-95.966	0.158	0.042
-255.122	-187.155	0.101	0.001
-254.107	49.590	0.174	-0.161
-253.092	-137.128	0.161	-0.018
-252.078	76.007	-0.175	0.182
-251.063	-142.864	0.029	-0.003
-250.049	-44.485	0.163	-0.080
-249.034	-35.749	-0.290	-0.155
-248.019	-131.420	-0.253	-0.033
-247.005	-64.301	-0.134	0.054
-245.990	800.000	0.115	0.327
-244.976	-56.190	-0.210	0.092
-243.961	643.980	-0.123	0.310
-242.946	-38.429	0.015	0.008
-241.932	-84.370	0.170	0.053
-240.917	48.293	0.104	-0.096
-239.903	607.965	-0.046	0.114
-238.888	-200.000	0.021	0.257
-237.873	216.199	-0.068	-0.106
-236.859	39.249	-0.230	0.202
-235.844	260.547	-0.202	-0.345
-234.830	-69.943	-0.201	-0.076
-233.815	546.868	-0.059	0.140
-232.800	44.010	0.173	0.156
-231.786	-75.482	0.246	0.086
-230.771	-9.770	-0.183	-0.120
-229.757	-194.590	-0.322	-0.003
-228.742	-200.000	0.001	0.244
-227.727	-126.114	0.180	0.027
-226.713	-124.374	0.187	0.029
-225.698	122.545	0.257	-0.316
-224.684	-53.477	0.143	0.065
-223.669	14.071	0.217	0.166
-222.655	61.232	0.171	0.167
-221.640	-115.697	0.153	0.028
-220.625	-126.105	-0.256	0.038
-219.611	179.745	-0.093	-0.134
-218.596	123.521	0.170	-0.210
-217.582	-73.028	-0.138	0.050
-216.567	194.301	-0.153	-0.229
-215.552	293.233	0.073	-0.131
-214.538	800.000	0.089	-0.251
-213.523	192.479	0.039	-0.057
-212.509	-58.351	0.154	-0.066
-211.494	415.297	-0.078	0.162
-210.479	-200.000	-0.007	-0.141
-209.465	-17.851	0.357	-0.220
-208.450	-71.752	-0.354	0.130
-207.436	-200.000	0.012	0.074
-206.421	33.003	0.087	0.074
-205.406	-83.670	-0.529	0.166
-204.392	-200.000	0.133	0.001
-203.377	30.803	-0.083	-0.070
-202.363	2.530	-0.010	0.007
-201.348	-30.752	-0.278	-0.154
-200.333	-0.177	0.168	0.117
-199.319	-58.055	0.275	0.118
-198.304	398.788	0.145	0.299
-197.290	800.000	0.058	0.209
-196.275	70.901	-0.205	0.209
-195.260	-200.000	0.012	-0.193
-194.246	186.709	-0.069	0.102
-193.231	637.161	0.026	-0.064
-192.217	457.200	0.073	-0.159
-191.202	-75.010	-0.171	-0.060
-190.187	-200.000	-0.019	0.120
-189.173	-180.578	-0.155	0.003
-188.158	-35.681	-0.219	-0.117
-187.144	-74.002	-0.176	-0.063
-186.129	-200.000	0.054	-0.235
-185.114	-4.198	0.275	0.187
-184.100	27.839	0.074	0.061
-183.085	-200.000	-0.016	-0.135
-182.071	544.366	0.057	-0.133
-181.056	-45.982	0.047	-0.023
-180.042	19.913	0.221	-0.175
-179.027	-75.425	-0.080	0.028
-178.012	199.951	-0.096	0.145
-176.998	52.208	-0.263	-0.246
-175.983	800.000	0.005	0.018
-174.969	-151.052	-0.107	0.008
-173.954	320.817	0.090	0.168
-172.939	37.086	0.252	0.219
-171.925	-18.237	-0.410	0.252
-170.910	-200.000	0.027	0.237
-169.896	649.776	-0.024	0.060
-168.881	-200.000	-0.007	-0.045
-167.866	800.000	0.088	0.304
-166.852	200.963	-0.251	0.379
-165.837	-200.000	0.046	0.420
-164.823	-11.637	-0.052	0.033
-163.808	647.166	-0.047	-0.119
-162.793	-200.000	0.027	-0.167
-161.779	216.229	-0.124	-0.193
-160.764	-110.225	-0.098	0.020
-159.750	23.051	0.331	-0.267
-158.735	-78.973	0.287	0.096
-157.720	14.713	0.111	-0.085
-156.706	-72.235	-0.268	-0.097
-155.691	-79.844	0.237	-0.078
-154.677	67.708	0.183	0.183
-153.662	-171.299	0.046	0.002
-152.647	800.000	-0.043	0.176
-151.633	686.848	0.123	-0.316
-150.618	-135.110	0.209	0.025
-149.604	-56.135	-0.265	0.116
-148.589	-79.021	0.126	0.042
-147.574	16.942	0.106	-0.082
-146.560	29.624	-0.170	-0.142
-145.545	-41.492	-0.121	-0.061
-144.531	-20.823	-0.257	-0.154
-143.516	-200.000	-0.095	-0.506
-142.502	242.621	-0.162	0.266
-141.487	-200.000	-0.020	-0.283
-140.472	-133.887	-0.155	-0.019
-139.458	-61.625	-0.137	-0.056
-138.443	491.498	0.113	0.253
-137.429	102.807	0.133	0.153
-136.414	21.476	0.105	-0.083
-135.399	18.484	0.188	-0.147
-134.385	178.222	-0.156	0.224
-133.370	-60.938	-0.129	-0.053
-132.356	-40.102	-0.303	0.155
-131.341	203.549	0.077	-0.117
-130.326	270.480	-0.126	0.217
-129.312	-27.386	-0.310	0.177
-128.297	71.434	0.237	-0.241
-127.283	52.289	0.110	-0.103
-126.268	295.203	0.102	0.184
-125.253	642.123	0.041	-0.101
-124.239	65.856	-0.079	0.078
-123.224	-95.049	-0.234	0.062
-122.210	800.000	0.032	-0.117
-121.195	104.946	-0.280	-0.323
-120.180	-200.000	0.086	0.407
-119.166	800.000	-0.078	-0.226
-118.151	-31.385	-0.029	0.016
-117.137	168.219	0.109	0.153
-116.122	-58.549	-0.181	0.077
-115.107	-200.000	0.005	-0.157
-114.093	598.317	-0.113	-0.274
-113.078	-200.000	0.002	-0.157
-112.064	-172.995	-0.176	-0.005
-111.049	-51.984	-0.040	-0.018
-110.034	800.000	0.063	-0.177
-109.020	-175.314	-0.154	-0.004
-108.005	-42.297	-0.404	-0.202
-106.991	202.646	0.192	-0.290
-105.976	2.687	-0.286	-0.203
-104.962	5.142	0.079	-0.057
-103.947	70.855	0.244	0.248
-102.932	800.000	-0.122	-0.332
-101.918	144.258	0.281	0.367
-100.903	307.481	0.039	0.071
-99.889	800.000	-0.044	-0.138
-98.874	-20.898	-0.090	-0.054
-97.859	-153.200	-0.007	0.000
-96.845	386.499	0.095	0.192
-95.830	70.741	0.146	-0.148
-94.816	-26.087	-0.039	0.023
-93.801	-200.000	-0.068	0.496
-92.786	47.835	0.062	0.057
-91.772	-96.860	0.259	-0.066
-90.757	82.863	-0.249	0.265
-89.743	-125.013	-0.273	-0.041
-88.728	-136.235	0.175	-0.020
-87.713	193.006	-0.099	-0.146
-86.699	800.000	0.050	0.206
-85.684	578.124	-0.014	-0.034
-84.670	118.566	-0.147	0.177
-83.655	-89.709	0.076	0.022
-82.640	-114.394	0.412	-0.078
-81.626	-47.956	0.142	-0.067
-80.611	800.000	-0.085	-0.241
-79.597	-200.000	0.052	0.224
-78.582	-200.000	0.006	-0.203
-77.567	73.968	0.075	-0.077
-76.553	464.127	-0.175	0.384
-75.538	800.000	0.018	0.072
-74.524	-139.584	-0.239	-0.025
-73.509	-42.274	0.306	0.153
-72.494	-125.771	-0.411	-0.061
-71.480	38.804	0.206	-0.180
-70.465	-135.474	-0.122	-0.014
-69.451	174.493	0.117	-0.166
-68.436	800.000	-0.070	0.256
-67.422	549.454	0.043	-0.102
-66.407	633.347	-0.041	0.102
-65.392	-157.179	-0.102	-0.006
-64.378	800.000	0.095	-0.320
-63.363	-200.000	-0.012	-0.201
-62.349	-128.911	-0.096	0.013
-61.334	14.694	-1.195	-0.914
-60.319	-169.465	0.776	0.028
-59.305	194.228	-0.592	-0.877
-58.290	232.580	0.659	1.059
-57.276	488.685	0.532	1.188
-56.261	-200.000	113.306	612.527
-55.246	432.954	1524.387	3233.656
-54.232	142.493	2718.903	3529.324
-53.217	100.477	2188.745	2484.107
-52.203	38.264	1618.123	1408.445
-51.188	29.572	1357.255	1128.505
-50.173	26.853	1317.464	1079.221
-49.159	52.838	1373.591	1283.730
-48.144	51.354	1388.237	1288.362
-47.130	29.959	1343.510	1119.236
-46.115	26.647	1324.839	1083.860
-45.100	26.406	1320.082	1078.488
-44.086	26.254	1317.488	1075.418
-43.071	26.245	1315.117	1073.386
-42.057	26.242	1313.332	1071.871
-41.042	26.325	1311.000	1070.415
-40.027	26.357	1310.251	1069.954
-39.013	26.367	1307.384	1067.626
-37.998	26.244	1306.349	1066.014
-36.984	26.427	1304.293	1065.376
-35.969	26.467	1302.314	1063.947
-34.954	26.533	1300.408	1062.738
-33.940	26.418	1299.317	1061.130
-32.925	26.518	1297.379	1060.088
-31.911	26.582	1296.018	1059.311
-30.896	26.492	1294.741	1057.696
-29.881	26.465	1293.493	1056.480
-28.867	26.627	1292.015	1056.173
-27.852	26.528	1290.913	1054.653
-26.838	26.597	1288.984	1053.440
-25.823	26.529	1288.072	1052.255
-24.809	26.414	1286.731	1050.451
-23.794	26.416	1285.210	1049.180
-22.779	26.560	1283.508	1048.582
-21.765	26.563	1282.978	1048.123
-20.750	26.556	1281.481	1046.818
-19.736	26.493	1279.910	1045.131
-18.721	26.404	1278.866	1043.726
-17.706	26.379	1278.102	1042.914
-16.692	26.254	1277.270	1041.476
-15.677	26.387	1275.722	1040.936
-14.663	26.432	1274.175	1039.890
-13.648	26.386	1273.185	1038.778
-12.633	26.361	1272.020	1037.642
-11.619	26.432	1270.921	1037.114
-10.604	26.449	1270.422	1036.761
-9.590	26.443	1269.581	1035.999
-8.575	26.264	1269.075	1034.519
-7.560	26.401	1267.469	1033.953
-6.546	26.462	1266.659	1033.598
-5.531	26.242	1266.355	1032.054
-4.517	26.541	1264.504	1032.213
-3.502	26.456	1264.207	1031.445
-2.487	26.515	1262.891	1030.662
-1.473	26.509	1258.978	1027.396
-0.458	25.390	1244.777	1009.481
0.556	21.625	1228.990	975.958
1.571	18.061	1236.203	961.581
2.586	16.956	1250.881	966.619
3.600	16.346	1239.049	953.944
4.615	11.955	1165.270	873.692
5.629	4.464	1090.692	780.191
6.644	1.097	1072.240	750.273
7.659	0.758	1070.397	747.244
8.673	0.756	1069.145	746.295
9.688	0.790	1067.988	745.588
10.702	1.094	1065.268	745.117
11.717	5.282	1070.616	769.452
12.731	12.408	1080.267	811.625
13.746	16.512	1084.822	835.290
14.761	17.369	1085.767	840.176
15.775	16.689	1083.985	835.370
16.790	15.683	1081.847	828.694
17.804	14.938	1080.700	824.069
18.819	14.638	1079.547	821.642
19.834	14.439	1078.453	819.757
20.848	14.099	1077.862	817.565
21.863	13.915	1076.276	815.388
22.877	13.840	1075.648	814.468
23.892	13.676	1074.810	812.959
24.907	13.691	1074.533	812.752
25.921	13.671	1073.893	812.097
26.936	13.686	1072.935	811.376
27.950	13.745	1071.719	810.671
28.965	13.856	1070.433	810.168
29.980	13.887	1069.168	809.289
30.994	13.888	1067.914	808.275
32.009	13.935	1067.210	807.899
33.023	13.955	1065.904	806.938
34.038	13.875	1065.167	805.918
35.053	13.893	1064.486	805.421
36.067	13.823	1063.282	804.096
37.082	13.914	1062.610	803.958
38.096	13.865	1061.562	802.861
39.111	13.900	1060.725	802.322
40.126	13.857	1059.778	801.328
41.140	13.793	1058.609	800.066
42.155	13.837	1057.546	799.401
43.169	13.681	1056.450	797.755
44.184	13.630	1055.496	796.719
45.199	13.769	1054.532	796.587
46.213	13.809	1053.320	795.792
47.228	13.754	1052.676	794.972
48.242	13.843	1050.703	793.839
49.257	13.874	1050.101	793.461
50.271	13.809	1049.550	792.663
51.286	13.774	1048.494	791.627
52.301	13.887	1047.599	791.420
53.315	13.813	1046.857	790.440
54.330	13.819	1045.660	789.492
55.344	13.744	1044.880	788.480
56.359	13.732	1044.079	787.745
57.374	13.662	1042.925	786.473
58.388	13.603	1042.364	785.703
59.403	13.644	1041.243	784.982
60.417	13.625	1040.794	784.485
61.432	13.703	1039.430	783.755
62.447	13.658	1038.961	783.119
63.461	13.712	1037.898	782.505
64.476	13.674	1037.266	781.782
65.490	13.570	1036.507	780.646
66.505	13.711	1035.712	780.642
67.520	13.672	1035.049	779.890
68.534	13.686	1034.670	779.604
69.549	13.752	1033.348	778.849
70.563	13.672	1032.767	777.968
71.578	13.667	1031.520	776.933
72.593	13.558	1031.208	776.120
73.607	13.774	1030.365	776.427
74.622	13.675	1029.612	775.327
75.636	13.540	1028.873	774.072
76.651	13.481	1028.666	773.572
77.666	13.590	1027.682	773.272
78.680	13.635	1026.812	772.759
79.695	13.658	1026.198	772.337
80.709	13.641	1025.605	771.740
81.724	13.670	1025.184	771.492
82.739	13.828	1024.228	771.438
83.753	13.701	1023.685	770.373
84.768	13.783	1022.602	769.867
85.782	13.775	1021.718	769.098
86.797	13.780	1020.672	768.267
87.812	13.754	1019.738	767.373
88.826	13.861	1018.642	766.975
89.841	13.883	1017.452	766.116
90.855	13.825	1016.374	764.966
91.870	13.837	1015.783	764.511
92.884	13.909	1014.969	764.161
93.899	13.846	1014.317	763.314
94.914	13.923	1013.240	762.790
95.928	14.003	1012.584	762.596
96.943	14.023	1011.332	761.674
97.957	13.845	1011.044	760.575
98.972	13.955	1009.693	759.994
99.987	13.836	1008.983	758.849
101.001	13.950	1007.654	758.304
102.016	13.971	1006.680	757.599
103.030	13.921	1006.428	757.114
104.045	13.875	1005.300	755.989
105.060	13.962	1004.466	755.694
106.074	13.871	1003.340	754.365
107.089	13.788	1002.587	753.355
108.103	13.704	1002.043	752.499
109.118	13.779	1000.783	751.825
110.133	13.778	1000.206	751.322
111.147	13.748	999.331	750.460
112.162	13.761	998.185	749.595
113.176	13.901	997.584	749.709
114.191	13.917	997.055	749.316
115.206	13.873	996.318	748.498
116.220	13.820	995.216	747.365
117.235	13.918	994.397	747.122
118.249	13.843	993.491	746.040
119.264	13.723	993.195	745.212
120.279	13.897	991.785	744.871
121.293	13.963	990.666	744.261
122.308	13.896	989.907	743.325
123.322	13.738	989.259	742.063
124.337	13.813	988.088	741.453
125.352	13.854	986.785	740.593
126.366	13.851	985.919	739.866
127.381	13.839	984.814	738.917
128.395	13.887	983.677	738.213
129.410	13.827	982.992	737.369
130.424	13.820	982.191	736.669
131.439	13.878	981.544	736.377
132.454	13.858	980.709	735.597
133.468	13.947	979.825	735.263
134.483	13.822	979.552	734.437
135.497	13.789	978.243	733.248
136.512	13.926	977.097	732.926
137.527	13.902	976.340	732.189
138.541	13.992	975.668	732.016
139.556	13.955	974.755	731.106
140.570	13.898	974.150	730.337
141.585	14.115	973.099	730.435
142.600	14.049	972.307	729.485
143.614	14.084	971.816	729.209
144.629	14.051	971.437	728.714
145.643	14.074	970.223	727.838
146.658	14.213	968.689	727.230
147.673	13.977	968.063	725.665
148.687	13.971	967.260	724.976
149.702	13.945	966.139	723.958
150.716	13.899	965.867	723.488
151.731	13.944	965.054	723.013
152.746	14.022	964.252	722.687
153.760	13.990	963.825	722.163
154.775	13.979	963.076	721.490
155.789	14.179	961.960	721.457
156.804	14.123	961.649	720.917
157.819	14.183	961.031	720.650
158.833	14.235	960.650	720.527
159.848	14.179	959.722	719.523
160.862	14.178	958.605	718.620
161.877	14.254	957.340	717.935
162.892	14.149	956.693	716.936
163.906	14.195	955.554	716.214
164.921	14.039	955.201	715.216
165.935	14.134	953.897	714.586
166.950	14.218	953.008	714.215
167.964	14.235	952.180	713.602
168.979	14.091	951.474	712.394
169.994	14.203	950.482	712.070
171.008	14.236	949.750	711.597
172.023	14.376	948.837	711.451
173.037	14.264	948.588	710.722
174.052	14.145	947.768	709.538
175.067	14.334	946.829	709.577
176.081	14.310	946.570	709.219
177.096	14.266	945.868	708.443
178.110	14.199	945.229	707.615
179.125	14.341	944.675	707.743
180.140	14.421	944.025	707.532
181.154	14.216	943.909	706.511
182.169	14.473	942.827	706.728
183.183	14.475	942.158	706.173
184.198	14.458	941.615	705.633
185.213	14.499	940.907	705.213
186.227	14.483	940.495	704.774
187.242	14.477	939.791	704.156
188.256	14.511	938.798	703.494
189.271	14.472	938.057	702.714
190.286	14.429	937.303	701.907
191.300	14.363	936.559	701.010
192.315	14.422	935.931	700.724
193.329	14.352	935.694	700.192
194.344	14.477	934.671	699.886
195.359	14.415	934.198	699.210
196.373	14.439	933.948	699.063
197.388	14.595	932.796	698.791
198.402	14.579	932.645	698.549
199.417	14.740	931.762	698.501
200.432	14.663	931.491	697.914
201.446	14.718	930.799	697.565
202.461	14.691	930.345	697.050
203.475	14.683	929.731	696.492
204.490	14.636	928.929	695.637
205.504	14.649	928.232	695.107
206.519	14.591	927.240	694.061
207.534	14.736	926.477	694.032
208.548	14.768	925.939	693.700
209.563	14.514	925.377	692.163
210.577	14.691	924.948	692.513
211.592	14.744	924.166	692.088
212.607	14.783	923.297	691.536
213.621	14.792	922.565	690.963
214.636	14.856	921.792	690.587
215.650	14.944	920.998	690.295
216.665	14.955	920.233	689.706
217.680	14.880	919.588	688.853
218.694	14.750	919.384	688.105
219.709	14.916	918.375	687.970
220.723	14.961	917.652	687.552
221.738	14.768	917.026	686.233
222.753	14.989	916.361	686.578
223.767	15.053	915.886	686.427
224.782	15.095	915.046	685.908
225.796	15.058	914.489	685.277
226.811	15.139	914.187	685.322
227.826	15.026	912.935	683.861
228.840	14.992	912.516	683.349
229.855	15.166	911.334	683.113
230.869	15.053	910.997	682.338
231.884	15.124	910.022	681.838
232.899	15.026	909.530	681.010
233.913	15.264	908.475	681.127
234.928	15.154	908.132	680.360
235.942	14.992	907.590	679.236
236.957	15.169	906.801	679.304
237.972	15.103	906.260	678.571
238.986	14.965	906.083	677.821
240.001	15.253	904.650	677.852
241.015	15.124	904.316	677.023
242.030	15.154	903.594	676.540
243.045	15.210	903.318	676.503
244.059	15.312	902.457	676.208
245.074	15.227	902.130	675.560
246.088	15.247	901.181	674.872
247.103	15.271	900.790	674.616
248.117	15.351	900.217	674.450
249.132	15.302	899.560	673.699
250.147	15.232	898.953	672.905
251.161	15.297	898.405	672.693
252.176	15.273	897.763	672.059
253.190	15.503	896.751	672.163
254.205	15.442	896.037	671.326
255.220	15.491	895.482	671.045
256.234	15.460	894.691	670.269
257.249	15.546	894.155	670.149
258.263	15.473	893.439	669.265
259.278	15.657	892.673	669.363
260.293	15.600	892.053	668.612
261.307	15.621	891.683	668.360
262.322	15.719	890.904	668.107
263.336	15.710	890.185	667.474
264.351	15.742	889.422	666.969
265.366	15.660	888.471	665.871
266.380	15.743	887.966	665.763
267.395	15.729	887.628	665.393
268.409	15.782	886.351	664.589
269.424	15.749	886.102	664.211
270.439	15.671	885.283	663.232
271.453	15.714	884.552	662.793
272.468	15.864	884.098	662.988
273.482	15.744	883.471	661.986
274.497	15.824	882.888	661.805
275.512	15.854	882.021	661.214
276.526	15.759	881.897	660.691
277.541	15.770	881.474	660.356
278.555	15.991	880.563	660.485
279.570	15.851	880.376	659.737
280.585	15.886	879.171	658.912
281.599	15.995	878.322	658.641
282.614	15.936	877.537	657.765
283.628	16.023	877.217	657.805
284.643	15.967	876.868	657.269
285.657	15.942	876.307	656.690
286.672	16.012	875.281	656.138
287.687	16.029	874.762	655.757
288.701	15.933	874.548	655.164
289.716	16.093	873.837	655.195
290.730	16.134	872.846	654.556
291.745	15.962	872.747	653.756
292.760	16.064	871.800	653.385
293.774	16.269	870.983	653.506
294.789	16.134	870.307	652.421
295.803	16.222	869.516	652.109
296.818	16.168	868.805	651.308
297.833	16.255	867.877	650.891
298.847	16.132	867.848	650.340
299.862	16.235	866.856	649.932
300.876	16.207	866.509	649.509
301.891	16.279	865.855	649.236
302.906	16.223	865.306	648.552
303.920	16.397	864.870	648.836
304.935	16.431	864.074	648.312
305.949	16.447	863.712	648.045
306.964	16.359	863.005	647.120
307.979	16.277	862.941	646.700
308.993	16.493	861.478	646.371
310.008	16.454	861.322	646.050
311.022	16.310	861.117	645.288
312.037	16.431	860.311	645.088
313.052	16.366	859.869	644.453
314.066	16.553	858.755	644.273
315.081	16.347	858.785	643.454
316.095	16.502	857.961	643.370
317.110	16.441	857.399	642.660
318.125	16.406	856.898	642.096
319.139	16.439	856.487	641.855
320.154	16.455	855.890	641.411
321.168	16.551	855.001	641.054
322.183	16.603	854.597	640.891
323.197	16.599	854.200	640.518
324.212	16.444	853.785	639.566
325.227	16.722	852.504	639.601
326.241	16.506	852.644	638.833
327.256	16.582	851.978	638.563
328.270	16.513	851.417	637.828
329.285	16.655	850.480	637.604
330.300	16.547	850.138	636.883
331.314	16.499	850.168	636.670
332.329	16.636	849.283	636.466
333.343	16.817	848.740	636.682
334.358	16.494	848.951	635.570
335.373	16.649	848.195	635.529
336.387	16.749	847.597	635.399
337.402	16.676	847.683	635.134
338.416	16.755	847.268	635.064
339.431	16.914	846.392	634.947
340.446	16.812	846.327	634.461
341.460	16.865	845.939	634.311
342.475	16.971	844.868	633.846
343.489	17.037	844.665	633.886
344.504	16.848	844.440	632.956
345.519	16.752	844.052	632.251
346.533	16.905	843.561	632.399
347.548	17.020	842.970	632.326
348.562	17.009	842.522	631.892
349.577	16.937	842.156	631.295
350.592	16.973	841.125	630.601
351.606	17.066	840.515	630.433
352.621	16.995	839.713	629.511
353.635	16.991	839.288	629.125
354.650	16.936	838.151	628.010
355.665	17.064	837.776	628.147
356.679	16.962	837.628	627.603
357.694	17.102	836.588	627.288
358.708	17.096	835.792	626.611
359.723	17.102	835.251	626.172
360.738	17.061	834.965	625.752
361.752	17.151	833.924	625.247
362.767	17.172	833.485	624.943
363.781	17.180	833.497	624.925
364.796	17.320	832.623	624.728
365.810	17.179	832.200	623.836
366.825	17.265	832.090	624.015
367.840	17.332	831.259	623.583
368.854	17.288	830.632	622.898
369.869	17.333	830.570	622.960
370.883	17.423	829.878	622.717
371.898	17.358	829.631	622.236
372.913	17.492	829.276	622.406
373.927	17.552	828.519	622.001
374.942	17.369	828.322	621.128
375.956	17.460	827.988	621.155
376.971	17.427	827.596	620.687
377.986	17.513	827.008	620.505
379.000	17.478	826.705	620.094
380.015	17.610	825.996	619.988
381.029	17.590	825.478	619.473
382.044	17.561	824.798	618.803
383.059	17.515	824.361	618.252
384.073	17.586	823.766	618.009
385.088	17.637	822.928	617.512
386.102	17.497	822.697	616.775
387.117	17.699	821.928	616.877
388.132	17.633	821.380	616.171
389.146	17.745	820.737	616.040
390.161	17.604	820.638	615.399
391.175	17.806	819.978	615.579
392.190	17.739	819.571	614.977
393.205	17.662	819.048	614.254
394.219	17.771	818.457	614.149
395.234	17.652	818.381	613.610
396.248	17.686	817.954	613.358
397.263	17.735	817.222	612.929
398.278	17.713	817.008	612.636
399.292	17.811	816.515	612.563
400.307	17.743	816.138	611.983
401.321	17.815	815.249	611.519
402.336	17.785	814.875	611.080
403.350	17.756	814.762	610.836
404.365	17.899	814.022	610.738
405.380	17.941	813.936	610.769
406.394	17.982	813.281	610.373
407.409	17.911	812.686	609.616
408.423	17.912	812.355	609.320
409.438	17.919	812.346	609.284
410.453	18.039	811.371	608.924
411.467	18.080	810.893	608.658
412.482	18.127	810.398	608.402
413.496	18.001	810.624	608.068
414.511	18.029	810.151	607.758
415.526	18.130	809.879	607.861
416.540	18.208	808.910	607.354
417.555	18.367	808.258	607.377
418.569	18.018	808.165	606.013
419.584	18.182	807.652	606.159
420.599	18.209	807.262	605.908
421.613	113.671	1296.851	1481.766
422.628	98.214	1368.153	1481.827
