DTS Sentinel unit serial number:	SN413079Multiplexer serial number:	ORYXHardware model number:	OX4-SRSoftware version number:	ORYX F/W v4.00 Oryx Data Collector v3.7.2.0data status	okinstallation	princeton_trtdifferential loss correction	single-endedforward channel	channel 1reverse channel	N/Adate	2019/09/14time	18:58:35forward acquisition time	60.00reverse acquisition time	0.00gamma	496.2192k internal	0.2308k external	0.2308temperature offset calibration	1.0030default loss term (dB/km)	0.3790temperature slope calibration	1.0000multiplexer offset coefficient	1.0000multiplexer slope coefficient	1.0000fibre end	0.00T internal ref (°C)	35.69T ext. ref 1 (°C)	4.87T ext. ref 2 (°C)	29.54length (m)	temperature (°C)	Stokes	anti-Stokes-747.200	-15.782	0.117	-0.076
-746.185	-129.966	0.370	0.052
-745.171	800.000	0.020	0.078
-744.156	224.832	-0.121	0.199
-743.142	26.167	0.162	0.137
-742.127	-72.039	-0.316	-0.119
-741.112	-148.930	0.110	0.009
-740.098	76.799	0.376	0.405
-739.083	256.774	0.179	0.312
-738.069	264.724	0.079	0.141
-737.054	-200.000	0.007	-0.062
-736.039	-100.136	-0.403	0.102
-735.025	-48.487	0.215	-0.105
-734.010	-16.156	-0.312	0.201
-732.996	-119.009	-0.497	-0.088
-731.981	378.382	-0.140	-0.290
-730.966	211.840	0.167	-0.268
-729.952	-162.576	-0.400	0.020
-728.937	138.560	-0.208	-0.278
-727.923	-37.549	0.065	-0.035
-726.908	47.618	-0.390	0.369
-725.894	-200.000	-0.038	-0.186
-724.879	286.935	-0.141	0.259
-723.864	87.215	-0.063	-0.071
-722.850	800.000	-0.020	0.057
-721.835	800.000	-0.093	-0.323
-720.821	6.787	0.252	0.190
-719.806	-200.000	-0.023	0.177
-718.791	800.000	-0.066	-0.259
-717.777	164.794	0.168	-0.240
-716.762	-60.581	0.103	0.044
-715.748	-19.826	-0.126	0.079
-714.733	143.432	0.203	-0.275
-713.718	-93.234	0.185	-0.052
-712.704	-125.183	-0.308	0.048
-711.689	28.941	-0.082	-0.071
-710.675	-19.810	-0.228	-0.143
-709.660	526.816	-0.055	-0.132
-708.645	-124.031	-0.113	-0.018
-707.631	-137.901	-0.270	0.031
-706.616	208.474	0.107	0.170
-705.602	-7.350	0.191	0.131
-704.587	-149.597	0.139	0.011
-703.572	-78.360	0.344	-0.120
-702.558	-200.000	0.000	-0.015
-701.543	-119.769	0.302	-0.053
-700.529	-144.233	-0.144	0.014
-699.514	323.459	0.086	-0.167
-698.499	-200.000	0.059	-0.413
-697.485	57.410	-0.179	-0.177
-696.470	-37.583	-0.306	0.166
-695.456	-32.825	0.082	-0.046
-694.441	99.397	-0.192	0.226
-693.426	43.602	0.212	-0.197
-692.412	167.206	0.074	-0.106
-691.397	800.000	0.083	0.289
-690.383	-122.491	0.230	-0.038
-689.368	-159.203	-0.135	0.008
-688.354	-73.995	-0.141	0.052
-687.339	-54.608	0.243	-0.111
-686.324	80.640	-0.068	0.074
-685.310	-46.902	-0.045	0.022
-684.295	800.000	-0.080	-0.336
-683.281	-7.933	-0.267	-0.182
-682.266	-200.000	-0.016	0.093
-681.251	43.656	-0.108	0.100
-680.237	364.936	-0.112	0.229
-679.222	147.790	0.182	0.249
-678.208	-200.000	-0.024	-0.145
-677.193	-7.929	-0.457	-0.313
-676.178	120.931	0.232	-0.293
-675.164	-171.515	0.101	0.003
-674.149	7.140	0.082	0.062
-673.135	-16.465	-0.190	0.122
-672.120	19.647	0.224	0.183
-671.105	-51.183	0.200	-0.095
-670.091	649.942	0.026	0.068
-669.076	125.899	-0.151	-0.194
-668.062	-55.055	0.252	-0.115
-667.047	-108.925	-0.054	0.012
-666.032	-200.000	-0.001	-0.030
-665.018	-90.017	0.266	-0.079
-664.003	450.857	-0.020	-0.045
-662.989	-104.268	0.284	0.067
-661.974	-200.000	0.040	-0.231
-660.959	800.000	-0.074	0.255
-659.945	15.856	0.121	-0.096
-658.930	172.399	0.096	0.141
-657.916	522.643	-0.134	-0.318
-656.901	-98.355	0.065	-0.017
-655.886	172.347	0.207	-0.301
-654.872	-200.000	-0.007	-0.044
-653.857	49.176	0.141	-0.135
-652.843	-37.418	-0.117	-0.063
-651.828	-79.598	-0.127	-0.043
-650.814	13.256	0.017	0.013
-649.799	800.000	0.054	-0.155
-648.784	-200.000	-0.021	0.118
-647.770	-200.000	0.015	0.265
-646.755	145.732	-0.096	-0.130
-645.741	-200.000	-0.020	-0.214
-644.726	-51.913	-0.081	-0.038
-643.711	-14.479	-0.225	0.146
-642.697	-55.789	-0.188	0.085
-641.682	152.545	-0.117	-0.161
-640.668	172.851	-0.030	-0.044
-639.653	-200.000	-0.038	-0.362
-638.638	-143.027	0.135	0.013
-637.624	175.315	-0.229	-0.336
-636.609	137.793	0.061	0.081
-635.595	758.885	-0.099	-0.270
-634.580	79.354	0.014	0.015
-633.565	11.912	-0.181	-0.141
-632.551	159.828	-0.314	-0.442
-631.536	653.779	-0.115	-0.299
-630.522	282.425	-0.072	-0.130
-629.507	20.523	-0.206	-0.168
-628.492	518.239	-0.038	0.091
-627.478	-19.184	-0.489	0.307
-626.463	-200.000	-0.052	-0.253
-625.449	104.757	0.277	-0.331
-624.434	-40.083	-0.281	-0.148
-623.419	-200.000	0.004	0.128
-622.405	800.000	-0.073	-0.282
-621.390	-200.000	0.013	-0.301
-620.376	182.119	0.126	-0.187
-619.361	-53.835	-0.160	-0.074
-618.346	-99.832	-0.207	0.052
-617.332	-67.767	-0.204	0.081
-616.317	296.050	-0.123	0.228
-615.303	53.422	-0.233	-0.226
-614.288	-92.865	0.112	-0.032
-613.273	-200.000	-0.006	0.070
-612.259	-91.916	-0.112	-0.032
-611.244	-200.000	-0.032	0.227
-610.230	800.000	0.109	-0.459
-609.215	-54.819	-0.248	-0.113
-608.201	45.219	0.241	-0.224
-607.186	800.000	0.017	0.049
-606.171	-181.120	-0.109	0.002
-605.157	-200.000	0.070	-0.490
-604.142	-200.000	0.164	-0.000
-603.128	-90.706	-0.233	-0.068
-602.113	800.000	-0.075	-0.228
-601.098	-122.021	0.157	-0.026
-600.084	281.643	0.143	0.259
-599.069	-94.213	0.141	-0.039
-598.055	238.185	0.126	-0.212
-597.040	-35.782	-0.106	0.058
-596.025	517.071	0.111	0.262
-595.011	3.938	0.264	-0.195
-593.996	-103.632	0.213	-0.051
-592.982	131.991	-0.118	-0.154
-591.967	800.000	0.090	-0.292
-590.952	800.000	-0.072	0.202
-589.938	565.980	-0.033	0.082
-588.923	-130.652	0.519	-0.071
-587.909	86.178	0.213	-0.237
-586.894	-200.000	-0.017	0.123
-585.879	394.447	-0.172	-0.363
-584.865	5.209	0.217	0.161
-583.850	-118.701	0.137	-0.024
-582.836	132.896	0.096	0.125
-581.821	-200.000	-0.006	0.115
-580.806	459.147	-0.134	-0.301
-579.792	-200.000	-0.055	0.328
-578.777	-200.000	0.051	0.379
-577.763	55.639	-0.294	-0.288
-576.748	7.846	-0.218	-0.165
-575.733	800.000	-0.057	0.230
-574.719	767.782	-0.045	0.123
-573.704	-14.206	-0.298	0.194
-572.690	233.506	0.168	0.280
-571.675	380.211	-0.131	-0.272
-570.661	5.131	0.142	-0.105
-569.646	-132.268	-0.311	-0.041
-568.631	-35.210	-0.181	0.099
-567.617	-161.594	-0.483	-0.025
-566.602	-32.988	0.274	-0.153
-565.588	800.000	0.067	0.207
-564.573	-200.000	-0.011	-0.111
-563.558	-200.000	0.017	-0.090
-562.544	40.913	-0.194	-0.177
-561.529	65.141	-0.171	-0.174
-560.515	91.636	-0.192	0.217
-559.500	147.321	0.290	0.393
-558.485	10.788	-0.266	0.205
-557.471	-120.673	-0.182	0.031
-556.456	-102.682	0.015	0.004
-555.442	585.890	0.051	0.126
-554.427	102.580	0.306	0.361
-553.412	-89.403	0.173	-0.051
-552.398	157.671	-0.014	0.020
-551.383	-15.656	-0.252	0.162
-550.369	-120.078	-0.360	0.062
-549.354	-200.000	0.061	0.493
-548.339	593.119	0.025	0.061
-547.325	-101.683	0.340	0.083
-546.310	313.415	0.091	0.173
-545.296	-200.000	-0.035	0.272
-544.281	-123.479	-0.162	-0.026
-543.266	-4.788	0.269	-0.187
-542.252	-7.641	0.143	-0.097
-541.237	0.185	-0.063	0.045
-540.223	8.791	-0.120	0.091
-539.208	-6.594	-0.163	0.112
-538.193	-99.324	-0.218	-0.055
-537.179	-108.534	-0.420	0.091
-536.164	475.283	-0.134	0.305
-535.150	30.237	0.212	0.183
-534.135	-79.931	-0.098	-0.033
-533.121	800.000	-0.044	0.138
-532.106	800.000	-0.024	-0.096
-531.091	-200.000	0.025	-0.314
-530.077	-107.320	0.193	-0.043
-529.062	-87.452	0.098	0.030
-528.048	52.951	0.311	-0.300
-527.033	714.703	-0.053	0.141
-526.018	-74.834	-0.202	0.073
-525.004	-157.740	0.271	-0.016
-523.989	-154.941	-0.201	-0.013
-522.975	330.749	0.124	0.242
-521.960	800.000	0.017	-0.073
-520.945	-110.005	0.298	0.063
-519.931	-47.671	-0.116	0.057
-518.916	-58.388	0.265	0.116
-517.902	90.337	0.185	-0.208
-516.887	-1.718	-0.178	0.126
-515.872	-16.742	-0.180	-0.115
-514.858	21.758	0.200	-0.164
-513.843	-145.441	-0.379	-0.034
-512.829	-200.000	0.053	0.464
-511.814	-17.867	0.204	-0.129
-510.799	-115.490	-0.218	-0.041
-509.785	-102.141	0.097	0.023
-508.770	53.721	0.312	0.302
-507.756	800.000	-0.010	-0.036
-506.741	-28.064	-0.466	-0.271
-505.726	-61.355	0.256	0.109
-504.712	-13.378	0.301	0.197
-503.697	-115.904	-0.204	-0.038
-502.683	138.360	0.028	-0.037
-501.668	-95.811	0.285	-0.077
-500.653	80.163	0.166	0.180
-499.639	-83.687	0.116	-0.037
-498.624	75.016	0.044	0.046
-497.610	-114.596	0.150	0.029
-496.595	27.759	0.108	-0.092
-495.581	-64.274	-0.206	-0.084
-494.566	-149.455	-0.244	-0.019
-493.551	64.999	-0.157	0.160
-492.537	293.921	-0.205	-0.377
-491.522	341.829	0.076	-0.150
-490.508	72.792	0.212	-0.222
-489.493	-132.279	0.305	-0.040
-488.478	-200.000	0.001	-0.387
-487.464	29.503	0.340	-0.291
-486.449	-200.000	-0.062	-0.288
-485.435	-159.399	0.177	0.010
-484.420	309.228	0.132	0.248
-483.405	800.000	-0.045	-0.165
-482.391	-38.983	-0.229	0.121
-481.376	157.653	0.075	0.105
-480.362	-103.491	-0.386	0.091
-479.347	33.368	-0.229	-0.200
-478.332	-163.513	-0.399	-0.019
-477.318	800.000	0.122	-0.340
-476.303	-95.310	-0.378	0.102
-475.289	-3.508	-0.159	-0.111
-474.274	-91.182	0.209	-0.060
-473.259	-200.000	-0.055	-0.378
-472.245	139.760	0.048	0.064
-471.230	-127.553	-0.081	0.012
-470.216	-200.000	-0.055	-0.273
-469.201	-77.372	-0.221	0.077
-468.186	-48.533	0.226	-0.110
-467.172	-7.385	-0.084	-0.057
-466.157	26.917	-0.130	0.110
-465.143	-188.717	0.144	-0.002
-464.128	-47.962	-0.152	-0.074
-463.113	-87.556	0.161	-0.049
-462.099	475.288	0.037	-0.084
-461.084	-200.000	0.006	-0.055
-460.070	-200.000	-0.014	0.097
-459.055	590.305	-0.081	-0.202
-458.040	-88.761	-0.135	-0.040
-457.026	-46.993	-0.084	0.041
-456.011	-128.470	-0.533	0.076
-454.997	-200.000	-0.011	0.075
-453.982	-7.671	-0.067	0.045
-452.968	-10.143	-0.266	0.178
-451.953	-200.000	-0.038	-0.211
-450.938	-170.420	0.089	-0.003
-449.924	800.000	0.027	0.093
-448.909	-82.301	0.092	0.030
-447.895	48.078	0.264	-0.248
-446.880	-62.440	-0.343	0.143
-445.865	-45.548	-0.261	0.130
-444.851	-123.644	0.466	-0.074
-443.836	17.533	0.091	0.073
-442.822	112.077	-0.172	-0.209
-441.807	-9.540	0.111	0.075
-440.792	140.685	-0.166	0.220
-439.778	545.631	0.136	-0.326
-438.763	-3.506	0.083	-0.058
-437.749	-9.978	0.286	-0.191
-436.734	800.000	-0.091	0.332
-435.719	739.966	0.024	0.064
-434.705	61.983	0.180	0.180
-433.690	87.596	-0.161	0.179
-432.676	-200.000	-0.014	-0.426
-431.661	110.156	-0.158	-0.191
-430.646	-200.000	0.062	-0.392
-429.632	800.000	-0.131	0.433
-428.617	800.000	0.102	0.357
-427.603	800.000	0.032	-0.131
-426.588	800.000	0.080	-0.253
-425.573	-0.404	0.216	0.154
-424.559	200.555	-0.126	0.194
-423.544	-14.424	-0.227	0.147
-422.530	153.413	0.072	0.098
-421.515	-26.900	-0.122	-0.072
-420.500	176.478	0.040	-0.058
-419.486	5.901	0.039	0.029
-418.471	-183.805	-0.253	0.004
-417.457	-116.540	0.190	-0.035
-416.442	-82.384	-0.434	-0.142
-415.428	-46.672	-0.361	-0.178
-414.413	-107.408	-0.130	-0.029
-413.398	-52.507	0.205	-0.095
-412.384	-200.000	-0.028	0.217
-411.369	-65.843	-0.164	0.066
-410.355	-200.000	-0.038	0.408
-409.340	-52.550	-0.079	0.037
-408.325	-63.674	-0.175	-0.072
-407.311	420.708	0.081	-0.173
-406.296	-200.000	-0.030	-0.146
-405.282	18.058	-0.343	-0.274
-404.267	800.000	-0.110	-0.421
-403.252	-56.413	-0.317	0.141
-402.238	-200.000	0.011	0.100
-401.223	201.983	-0.112	0.173
-400.209	184.738	-0.141	-0.210
-399.194	232.025	-0.141	-0.232
-398.179	-200.000	-0.028	-0.335
-397.165	52.446	0.096	-0.092
-396.150	-46.622	0.032	0.016
-395.136	-98.648	-0.146	-0.037
-394.121	150.069	0.199	-0.271
-393.106	778.689	0.168	0.460
-392.092	37.824	0.074	-0.066
-391.077	-32.652	0.194	-0.108
-390.063	9.447	-0.117	0.089
-389.048	-200.000	0.000	0.049
-388.033	-200.000	0.002	0.019
-387.019	-22.070	-0.286	0.174
-386.004	-111.412	0.287	-0.059
-384.990	-200.000	-0.009	0.192
-383.975	129.108	-0.128	-0.164
-382.960	-200.000	0.001	0.031
-381.946	226.466	-0.150	0.244
-380.931	84.578	0.146	-0.160
-379.917	-130.680	-0.144	-0.019
-378.902	-200.000	0.012	0.352
-377.888	800.000	0.098	0.346
-376.873	-23.857	-0.111	0.067
-375.858	-200.000	0.016	0.095
-374.844	-200.000	0.008	-0.428
-373.829	-200.000	-0.002	-0.028
-372.815	-128.751	0.111	0.016
-371.800	-99.270	-0.397	0.100
-370.785	444.588	-0.059	0.129
-369.771	-200.000	-0.019	0.245
-368.756	-200.000	0.035	0.270
-367.742	800.000	0.057	0.170
-366.727	22.344	-0.017	0.014
-365.712	60.078	0.099	0.098
-364.698	-113.320	-0.020	0.004
-363.683	49.483	0.136	0.129
-362.669	-99.939	-0.273	-0.068
-361.654	-97.297	0.138	0.036
-360.639	-46.316	-0.159	0.078
-359.625	-163.518	-0.131	0.006
-358.610	224.771	0.102	-0.165
-357.596	18.212	0.264	0.211
-356.581	667.545	-0.058	0.149
-355.566	57.585	-0.099	-0.097
-354.552	429.607	-0.157	-0.341
-353.537	800.000	-0.090	-0.262
-352.523	-200.000	0.032	0.147
-351.508	77.650	-0.094	-0.100
-350.493	-122.208	-0.207	-0.034
-349.479	674.828	-0.023	-0.060
-348.464	700.466	-0.041	-0.107
-347.450	293.446	0.002	0.004
-346.435	171.705	0.202	-0.290
-345.420	-184.458	0.374	0.006
-344.406	-200.000	-0.009	0.093
-343.391	-200.000	0.092	0.420
-342.377	-102.015	0.059	0.014
-341.362	-118.736	0.355	0.063
-340.348	-200.000	-0.032	0.629
-339.333	-129.944	0.062	0.008
-338.318	-1.717	0.316	-0.223
-337.304	459.692	-0.085	0.190
-336.289	-57.030	-0.070	-0.031
-335.275	800.000	0.076	0.236
-334.260	-51.837	0.336	-0.156
-333.245	-134.587	-0.241	0.029
-332.231	-193.893	0.359	-0.003
-331.216	-35.511	0.057	-0.031
-330.202	-110.870	0.296	-0.061
-329.187	335.274	-0.128	0.247
-328.172	-8.505	-0.216	-0.145
-327.158	214.641	-0.185	-0.293
-326.143	-21.929	0.378	-0.230
-325.129	-88.315	0.309	0.092
-324.114	-43.934	0.252	0.127
-323.099	275.373	-0.022	0.039
-322.085	800.000	-0.041	0.119
-321.070	302.114	0.053	0.097
-320.056	-200.000	-0.108	-0.554
-319.041	-145.092	0.186	0.017
-318.026	-95.927	0.273	0.073
-317.012	-200.000	0.007	0.082
-315.997	-200.000	-0.005	-0.114
-314.983	87.142	0.119	-0.132
-313.968	800.000	0.046	0.177
-312.953	-200.000	-0.108	-0.481
-311.939	2.646	-0.118	0.086
-310.924	-7.203	0.146	0.099
-309.910	-116.751	-0.235	-0.043
-308.895	11.835	-0.149	0.115
-307.880	172.445	-0.112	0.161
-306.866	35.742	0.300	0.264
-305.851	20.170	-0.162	0.130
-304.837	-125.097	0.130	0.020
-303.822	-50.980	0.003	0.001
-302.807	-162.420	0.123	-0.006
-301.793	45.724	0.173	0.160
-300.778	-200.000	0.020	0.092
-299.764	394.049	0.010	-0.021
-298.749	-200.000	0.079	0.437
-297.735	-79.006	0.228	0.077
-296.720	135.873	-0.186	-0.242
-295.705	92.456	0.064	-0.072
-294.691	-200.000	0.025	-0.226
-293.676	280.492	-0.083	0.148
-292.662	135.099	-0.112	0.145
-291.647	438.720	-0.171	-0.373
-290.632	-124.777	0.348	0.054
-289.618	800.000	0.065	0.195
-288.603	657.637	-0.089	-0.227
-287.589	-160.783	0.174	0.009
-286.574	-108.944	0.109	0.023
-285.559	800.000	-0.048	-0.168
-284.545	324.515	0.196	0.373
-283.530	121.990	0.126	0.156
-282.516	-0.501	-0.045	0.032
-281.501	450.435	0.041	-0.089
-280.486	110.975	-0.097	-0.116
-279.472	-152.869	0.206	-0.015
-278.457	65.783	-0.047	0.047
-277.443	-200.000	-0.023	-0.164
-276.428	262.113	-0.181	-0.313
-275.413	-149.529	0.160	-0.013
-274.399	800.000	-0.033	-0.093
-273.384	-26.779	0.169	-0.098
-272.370	77.285	-0.278	0.295
-271.355	-4.468	0.090	0.062
-270.340	78.205	-0.093	0.099
-269.326	-103.858	0.342	0.080
-268.311	399.370	0.256	0.534
-267.297	-97.383	-0.167	0.043
-266.282	522.997	0.057	-0.133
-265.267	5.331	-0.153	0.112
-264.253	228.787	0.099	-0.161
-263.238	355.737	-0.078	0.155
-262.224	682.833	0.034	-0.089
-261.209	-125.625	0.282	0.043
-260.195	-200.000	0.032	-0.227
-259.180	188.713	-0.078	0.116
-258.165	90.345	0.134	0.149
-257.151	81.347	0.131	0.142
-256.136	139.178	0.194	0.254
-255.122	800.000	-0.140	0.387
-254.107	-114.428	-0.270	-0.052
-253.092	231.689	0.078	-0.127
-252.078	105.384	-0.150	-0.177
-251.063	-200.000	-0.015	0.303
-250.049	-0.089	0.206	-0.146
-249.034	-86.133	0.131	-0.040
-248.019	390.610	0.173	0.357
-247.005	-125.197	-0.213	0.033
-245.990	-9.371	0.234	-0.156
-244.976	735.456	0.009	-0.023
-243.961	0.117	0.264	0.188
-242.946	-108.210	0.465	-0.100
-241.932	187.260	0.165	0.246
-240.917	283.361	0.080	-0.144
-239.903	-68.746	0.216	0.083
-238.888	-200.000	0.059	-0.377
-237.873	54.783	0.239	-0.230
-236.859	4.380	-0.168	0.123
-235.844	-200.000	-0.013	0.089
-234.830	50.627	-0.083	-0.078
-233.815	311.693	0.093	-0.175
-232.800	388.201	-0.115	-0.238
-231.786	800.000	0.070	0.252
-230.771	29.610	-0.349	-0.296
-229.757	-21.992	0.430	0.260
-228.742	-98.705	0.089	0.023
-227.727	-22.301	0.110	-0.066
-226.713	-200.000	-0.014	-0.184
-225.698	-200.000	0.018	-0.160
-224.684	-92.869	0.058	0.016
-223.669	-33.888	-0.175	-0.096
-222.655	-90.914	-0.256	0.074
-221.640	-153.329	-0.190	0.013
-220.625	63.870	0.052	-0.052
-219.611	-200.000	0.021	-0.211
-218.596	800.000	0.140	0.397
-217.582	-90.895	-0.387	-0.111
-216.567	-65.428	-0.196	0.079
-215.552	-18.899	-0.023	-0.014
-214.538	-40.692	-0.362	-0.187
-213.523	101.550	0.082	-0.095
-212.509	158.409	-0.124	0.171
-211.494	-95.635	-0.213	0.057
-210.479	-39.307	-0.050	-0.026
-209.465	-116.341	-0.036	-0.007
-208.450	-186.282	0.317	0.005
-207.436	62.410	-0.084	0.083
-206.421	19.178	0.086	0.068
-205.406	-57.472	-0.221	0.096
-204.392	100.859	0.139	0.161
-203.377	600.148	0.057	0.140
-202.363	-156.122	0.198	0.012
-201.348	293.601	0.188	0.341
-200.333	-110.511	-0.268	0.055
-199.319	557.734	-0.062	-0.148
-198.304	233.337	0.225	-0.369
-197.290	-72.784	0.114	0.042
-196.275	-30.209	0.138	0.078
-195.260	800.000	0.067	0.291
-194.246	-151.140	0.102	-0.008
-193.231	-19.720	-0.211	-0.130
-192.217	24.247	0.218	0.179
-191.202	-60.152	0.034	-0.014
-190.187	185.474	-0.055	0.081
-189.173	-200.000	0.051	0.348
-188.158	-147.534	0.280	-0.024
-187.144	557.849	0.049	0.119
-186.129	-11.067	0.321	-0.211
-185.114	212.906	-0.126	0.198
-184.100	-100.742	0.171	0.042
-183.085	70.915	-0.107	-0.110
-182.071	800.000	-0.117	0.412
-181.056	41.847	0.255	0.230
-180.042	-120.467	0.320	-0.054
-179.027	-21.284	-0.235	-0.143
-178.012	-150.133	-0.237	-0.018
-176.998	800.000	0.013	-0.059
-175.983	642.724	0.097	0.245
-174.969	-20.544	-0.128	-0.078
-173.954	-200.000	0.007	-0.055
-172.939	-106.576	0.338	0.075
-171.925	128.971	-0.211	-0.267
-170.910	131.555	0.045	0.057
-169.896	50.192	0.232	-0.218
-168.881	800.000	-0.083	-0.326
-167.866	-200.000	0.043	0.257
-166.852	-155.940	0.247	0.016
-165.837	-101.084	-0.337	0.082
-164.823	137.849	0.234	0.305
-163.808	-120.397	0.322	-0.054
-162.793	-152.590	-0.209	-0.015
-161.779	-153.881	-0.227	0.015
-160.764	-200.000	0.000	-0.051
-159.750	-45.476	0.022	0.011
-158.735	780.232	0.058	0.159
-157.720	-200.000	0.046	0.216
-156.706	800.000	0.021	0.063
-155.691	-200.000	0.026	-0.446
-154.677	-200.000	-0.004	-0.107
-153.662	109.986	-0.058	-0.069
-152.647	417.236	0.147	0.311
-151.633	800.000	0.123	0.342
-150.618	800.000	-0.075	0.236
-149.604	-165.848	0.250	0.011
-148.589	684.019	-0.105	0.273
-147.574	-200.000	-0.001	-0.207
-146.560	-200.000	0.025	-0.183
-145.545	-200.000	-0.010	-0.058
-144.531	-116.762	0.131	-0.024
-143.516	109.945	-0.061	0.073
-142.502	799.775	0.027	0.074
-141.487	-90.522	0.247	0.071
-140.472	800.000	0.031	-0.094
-139.458	-89.399	-0.082	-0.024
-138.443	671.406	0.021	-0.055
-137.429	-100.082	0.231	0.057
-136.414	-54.293	0.330	-0.149
-135.399	15.609	0.227	-0.177
-134.385	161.581	0.034	-0.047
-133.370	800.000	0.040	-0.147
-132.356	-20.744	-0.077	-0.047
-131.341	228.627	0.039	-0.063
-130.326	-200.000	0.038	-0.213
-129.312	-100.090	-0.292	0.072
-128.297	15.294	0.039	-0.031
-127.283	-95.102	-0.202	0.054
-126.268	53.852	0.222	0.211
-125.253	88.044	0.071	-0.079
-124.239	-41.567	-0.262	-0.134
-123.224	-80.270	0.082	0.027
-122.210	173.514	0.057	-0.082
-121.195	532.564	0.088	0.208
-120.180	-200.000	0.013	0.146
-119.166	-119.673	-0.304	-0.052
-118.151	96.423	-0.045	-0.051
-117.137	-25.979	-0.253	0.148
-116.122	701.746	-0.023	0.061
-115.107	-24.224	-0.076	0.045
-114.093	-29.996	0.118	-0.066
-113.078	118.559	0.101	0.124
-112.064	27.619	0.028	0.024
-111.049	133.019	0.265	0.340
-110.034	-200.000	0.089	0.402
-109.020	-22.010	-0.320	0.192
-108.005	303.003	0.075	-0.137
-106.991	800.000	0.100	0.346
-105.976	-161.122	-0.052	0.003
-104.962	-127.810	-0.094	-0.013
-103.947	-85.184	-0.328	0.102
-102.932	-108.179	-0.412	0.088
-101.918	-56.174	0.314	0.139
-100.903	450.676	-0.161	0.353
-99.889	-200.000	0.029	0.323
-98.874	800.000	-0.055	-0.175
-97.859	-136.988	0.056	0.006
-96.845	-130.515	-0.346	-0.046
-95.830	454.647	-0.079	-0.174
-94.816	540.405	-0.080	0.189
-93.801	-200.000	0.020	0.419
-92.786	800.000	0.030	-0.124
-91.772	267.624	0.117	-0.202
-90.757	4.581	0.173	-0.126
-89.743	-12.004	-0.084	0.055
-88.728	800.000	0.085	-0.271
-87.713	76.850	-0.117	-0.123
-86.699	66.812	-0.151	0.152
-85.684	-185.723	-0.249	0.004
-84.670	420.432	0.033	0.070
-83.655	800.000	0.029	0.123
-82.640	109.496	0.132	0.157
-81.626	199.336	-0.040	0.061
-80.611	324.223	-0.154	-0.292
-79.597	24.607	0.147	0.121
-78.582	161.643	-0.208	0.288
-77.567	-33.960	0.116	0.063
-76.553	-128.337	-0.180	-0.025
-75.538	-130.952	0.139	-0.018
-74.524	-106.725	-0.099	0.022
-73.509	-14.833	0.075	0.048
-72.494	-184.520	0.146	0.002
-71.480	-200.000	-0.009	0.218
-70.465	800.000	-0.070	0.269
-69.451	61.053	-0.279	-0.274
-68.436	-3.572	0.264	-0.181
-67.422	142.699	0.074	0.097
-66.407	-62.800	0.105	0.043
-65.392	116.542	0.127	-0.155
-64.378	152.165	0.069	0.093
-63.363	-200.000	-0.012	0.111
-62.349	-123.189	0.203	-0.032
-61.334	414.226	-0.381	-0.803
-60.319	132.418	0.328	0.418
-59.305	407.361	-0.462	-0.966
-58.290	232.873	0.523	0.850
-57.276	606.286	0.638	1.574
-56.261	-200.000	94.917	575.612
-55.246	662.875	1374.921	3508.368
-54.232	190.249	2582.024	3836.639
-53.217	125.692	2171.379	2712.912
-52.203	47.682	1629.071	1503.982
-51.188	39.217	1365.670	1209.005
-50.173	35.790	1323.474	1151.139
-49.159	57.532	1371.489	1325.719
-48.144	62.234	1389.411	1371.541
-47.130	39.576	1344.142	1191.930
-46.115	35.921	1325.901	1153.851
-45.100	35.686	1321.759	1148.794
-44.086	35.502	1319.181	1145.412
-43.071	35.502	1316.512	1143.050
-42.057	35.503	1314.336	1141.118
-41.042	35.462	1313.110	1139.767
-40.027	35.703	1311.086	1139.395
-39.013	35.615	1309.479	1137.429
-37.998	35.606	1307.422	1135.544
-36.984	35.667	1306.119	1134.728
-35.969	35.726	1303.716	1132.947
-34.954	35.803	1302.183	1132.024
-33.940	35.783	1300.843	1130.693
-32.925	35.799	1299.808	1129.846
-31.911	35.794	1298.360	1128.509
-30.896	35.807	1296.943	1127.312
-29.881	35.811	1295.517	1126.048
-28.867	35.826	1293.810	1124.609
-27.852	35.838	1292.442	1123.443
-26.838	35.796	1291.247	1122.116
-25.823	35.835	1289.702	1120.955
-24.809	35.666	1288.411	1118.806
-23.794	35.857	1287.025	1118.671
-22.779	35.915	1284.774	1117.004
-21.765	35.714	1284.588	1115.632
-20.750	35.632	1283.722	1114.361
-19.736	35.634	1282.019	1112.848
-18.721	35.620	1280.782	1111.651
-17.706	35.593	1279.509	1110.347
-16.692	35.534	1278.239	1108.860
-15.677	35.696	1276.897	1108.586
-14.663	35.649	1275.979	1107.474
-13.648	35.643	1274.720	1106.300
-12.633	35.594	1274.120	1105.456
-11.619	35.572	1272.964	1104.281
-10.604	35.586	1272.220	1103.673
-9.590	35.560	1271.374	1102.748
-8.575	35.567	1270.517	1102.001
-7.560	35.627	1269.141	1101.105
-6.546	35.689	1268.318	1100.704
-5.531	35.544	1267.704	1099.294
-4.517	35.639	1266.661	1098.892
-3.502	35.690	1265.670	1098.282
-2.487	35.650	1264.709	1097.177
-1.473	35.490	1260.745	1092.781
-0.458	33.888	1245.484	1070.493
0.556	29.364	1226.257	1027.228
1.571	25.096	1230.568	1006.837
2.586	24.067	1244.883	1012.609
3.600	23.112	1233.717	998.053
4.615	17.456	1161.585	909.479
5.629	8.981	1085.763	807.538
6.644	4.991	1064.848	772.180
7.659	4.806	1062.388	769.415
8.673	4.838	1061.363	768.760
9.688	4.865	1060.307	768.064
10.702	4.983	1058.495	767.260
11.717	9.693	1064.647	794.921
12.731	17.134	1075.752	840.087
13.746	19.929	1077.820	855.458
14.761	18.838	1076.458	848.916
15.775	17.864	1074.493	842.485
16.790	16.770	1072.070	835.121
17.804	16.092	1070.484	830.475
18.819	15.755	1069.374	827.880
19.834	15.510	1068.146	825.650
20.848	15.309	1067.831	824.348
21.863	15.005	1067.173	822.272
22.877	14.869	1066.453	820.977
23.892	14.921	1065.370	820.326
24.907	14.873	1064.606	819.430
25.921	14.874	1063.797	818.741
26.936	14.997	1062.067	817.937
27.950	15.139	1060.636	817.457
28.965	15.157	1059.363	816.491
29.980	15.192	1057.656	815.269
30.994	15.133	1057.052	814.445
32.009	15.246	1055.592	813.796
33.023	15.196	1054.774	812.856
34.038	15.105	1053.699	811.514
35.053	15.047	1053.034	810.647
36.067	15.134	1051.614	809.905
37.082	15.028	1051.257	809.043
38.096	15.089	1050.687	808.827
39.111	15.174	1049.236	808.051
40.126	15.029	1048.149	806.445
41.140	14.986	1046.725	805.067
42.155	14.918	1045.140	803.454
43.169	14.724	1044.868	802.239
44.184	14.726	1043.888	801.428
45.199	14.800	1042.495	800.640
46.213	14.874	1041.594	800.234
47.228	15.008	1040.683	800.102
48.242	15.078	1039.571	799.510
49.257	15.041	1038.557	798.482
50.271	15.103	1037.780	798.109
51.286	15.038	1036.811	796.984
52.301	15.052	1035.514	795.983
53.315	14.991	1034.875	795.132
54.330	14.955	1033.503	793.838
55.344	14.867	1033.128	793.062
56.359	14.950	1032.203	792.675
57.374	14.812	1031.414	791.347
58.388	14.822	1030.544	790.655
59.403	14.765	1029.171	789.263
60.417	14.788	1028.837	789.044
61.432	14.842	1027.818	788.450
62.447	14.770	1026.983	787.399
63.461	14.652	1025.822	785.882
64.476	14.716	1025.117	785.578
65.490	14.574	1024.629	784.465
66.505	14.780	1023.320	784.362
67.520	14.728	1022.768	783.624
68.534	14.674	1022.251	782.903
69.549	14.771	1020.992	782.327
70.563	14.661	1020.834	781.620
71.578	14.532	1020.132	780.408
72.593	14.529	1018.969	779.437
73.607	14.581	1018.314	779.109
74.622	14.480	1018.375	778.617
75.636	14.725	1017.081	778.699
76.651	14.623	1016.537	777.740
77.666	14.561	1015.509	776.597
78.680	14.690	1014.987	776.728
79.695	14.692	1014.814	776.539
80.709	14.837	1013.496	776.135
81.724	14.693	1013.628	775.496
82.739	14.880	1012.653	775.547
83.753	15.057	1011.754	775.611
84.768	15.012	1011.369	775.042
85.782	15.170	1010.256	774.850
86.797	15.208	1009.140	774.101
87.812	15.063	1007.961	772.459
88.826	15.070	1007.230	771.864
89.841	15.039	1006.535	771.119
90.855	15.126	1005.805	770.892
91.870	15.207	1004.677	770.332
92.884	15.190	1003.575	769.342
93.899	15.272	1003.000	769.208
94.914	15.240	1002.236	768.409
95.928	15.281	1001.352	767.850
96.943	15.130	1000.626	766.534
97.957	15.175	999.600	765.888
98.972	15.212	998.382	765.052
99.987	15.125	998.118	764.388
101.001	15.170	997.017	763.682
102.016	15.207	995.974	762.981
103.030	15.220	995.454	762.577
104.045	15.201	994.478	761.673
105.060	15.197	993.608	760.923
106.074	14.898	992.827	758.902
107.089	14.822	991.690	757.621
108.103	14.841	990.591	756.799
109.118	14.773	989.800	755.818
110.133	14.654	989.228	754.778
111.147	14.725	988.611	754.562
112.162	14.918	987.299	754.362
113.176	14.894	986.531	753.602
114.191	15.009	985.818	753.508
115.206	14.938	985.420	752.820
116.220	14.937	984.417	751.979
117.235	14.838	983.436	750.720
118.249	14.908	982.437	750.206
119.264	14.942	981.900	749.884
120.279	14.927	980.869	748.961
121.293	14.868	979.989	747.958
122.308	14.770	979.314	746.937
123.322	14.637	978.248	745.465
124.337	14.733	977.269	745.081
125.352	14.815	976.242	744.599
126.366	14.686	975.364	743.289
127.381	14.834	973.986	742.829
128.395	14.711	973.662	741.970
129.410	14.936	972.168	741.764
130.424	14.966	971.707	741.480
131.439	14.959	971.111	740.930
132.454	15.111	970.303	740.921
133.468	15.015	969.584	739.879
134.483	14.980	968.629	738.933
135.497	15.173	967.643	738.965
136.512	15.017	967.121	737.812
137.527	15.086	966.236	737.378
138.541	15.033	965.412	736.453
139.556	14.944	965.217	735.845
140.570	15.127	964.352	735.926
141.585	15.142	963.519	735.293
142.600	15.257	962.788	735.171
143.614	15.329	961.648	734.553
144.629	15.295	961.101	733.922
145.643	15.332	959.566	732.845
146.658	15.174	958.918	731.593
147.673	15.045	957.843	730.149
148.687	15.066	957.088	729.597
149.702	15.042	956.126	728.695
150.716	15.082	955.517	728.343
151.731	15.043	954.920	727.652
152.746	15.092	954.446	727.438
153.760	15.114	953.901	727.057
154.775	15.154	953.190	726.621
155.789	15.223	952.778	726.544
156.804	15.139	951.815	725.381
157.819	15.296	951.152	725.489
158.833	15.263	950.600	724.864
159.848	15.387	949.470	724.473
160.862	15.358	948.537	723.574
161.877	15.314	947.281	722.359
162.892	15.195	946.391	721.106
163.906	15.099	945.762	720.151
164.921	14.974	945.078	719.028
165.935	15.084	943.982	718.602
166.950	15.295	942.636	718.420
167.964	15.175	941.867	717.257
168.979	15.051	941.444	716.337
169.994	15.135	940.529	715.938
171.008	15.219	939.959	715.802
172.023	15.267	939.699	715.745
173.037	15.374	938.867	715.505
174.052	15.306	938.116	714.576
175.067	15.230	937.057	713.386
176.081	15.152	936.695	712.713
177.096	15.151	936.277	712.328
178.110	15.192	935.528	711.868
179.125	15.255	934.972	711.652
180.140	15.364	934.281	711.524
181.154	15.345	934.170	711.295
182.169	15.414	933.406	710.945
183.183	15.475	933.008	710.836
184.198	15.465	932.182	710.103
185.213	15.628	931.016	709.841
186.227	15.575	930.497	709.156
187.242	15.654	930.251	709.240
188.256	15.671	929.567	708.729
189.271	15.642	928.567	707.779
190.286	15.450	927.710	706.259
191.300	15.207	926.875	704.535
192.315	15.166	926.632	704.119
193.329	15.176	925.991	703.609
194.344	15.206	925.385	703.213
195.359	15.376	924.749	703.380
196.373	15.671	924.118	704.076
197.388	15.537	923.722	703.148
198.402	15.730	923.329	703.594
199.417	15.737	922.993	703.306
200.432	15.776	922.551	703.069
201.446	15.911	921.934	703.104
202.461	16.001	921.130	702.803
203.475	15.849	920.810	701.860
204.490	15.658	920.077	700.445
205.504	15.677	919.192	699.787
206.519	15.659	918.527	699.146
207.534	15.709	917.303	698.358
208.548	15.669	916.995	697.895
209.563	15.715	916.911	697.962
210.577	15.818	915.956	697.602
211.592	15.854	914.716	696.745
212.607	15.910	914.214	696.531
213.621	15.878	913.746	695.983
214.636	15.838	912.671	694.935
215.650	15.851	912.328	694.667
216.665	16.076	911.268	694.723
217.680	16.074	911.039	694.480
218.694	16.082	910.238	693.842
219.709	16.002	909.650	693.001
220.723	16.075	908.776	692.575
221.738	15.929	908.197	691.474
222.753	16.001	907.657	691.298
223.767	16.100	907.257	691.336
224.782	16.075	906.602	690.674
225.796	16.170	906.148	690.656
226.811	16.083	905.669	689.875
227.826	16.002	904.787	688.812
228.840	16.199	903.758	688.771
229.855	15.987	902.790	687.109
230.869	16.023	902.133	686.692
231.884	16.000	901.543	686.089
232.899	15.979	900.685	685.290
233.913	15.907	900.494	684.790
234.928	16.064	899.644	684.722
235.942	15.960	898.784	683.584
236.957	16.046	898.087	683.345
237.972	15.864	897.894	682.398
238.986	15.978	897.089	682.189
240.001	16.006	896.260	681.610
241.015	15.979	895.829	681.112
242.030	16.192	895.587	681.731
243.045	16.181	894.699	680.948
244.059	16.106	894.090	680.122
245.074	16.234	893.377	680.034
246.088	16.232	892.800	679.528
247.103	16.228	892.255	679.037
248.117	16.335	891.830	679.082
249.132	16.499	891.608	679.513
250.147	16.547	891.019	679.197
251.161	16.634	890.302	678.940
252.176	16.611	889.765	678.378
253.190	16.610	889.047	677.766
254.205	16.653	888.493	677.457
255.220	16.733	887.266	676.782
256.234	16.773	886.615	676.384
257.249	16.735	885.968	675.679
258.263	16.678	885.515	675.046
259.278	16.585	885.221	674.393
260.293	16.811	884.304	674.535
261.307	16.850	883.924	674.341
262.322	16.778	883.245	673.475
263.336	16.868	882.269	673.028
264.351	16.824	881.738	672.391
265.366	16.878	881.161	672.103
266.380	16.826	880.576	671.393
267.395	16.729	879.826	670.377
268.409	16.857	879.188	670.338
269.424	16.782	878.235	669.258
270.439	16.791	877.935	669.005
271.453	16.772	877.121	668.248
272.468	16.869	876.192	667.866
273.482	16.792	875.882	667.265
274.497	16.873	875.061	666.900
275.512	16.880	874.599	666.515
276.526	16.791	874.663	666.157
277.541	16.834	873.825	665.627
278.555	16.868	873.570	665.509
279.570	17.087	872.209	665.272
280.585	17.097	871.596	664.784
281.599	17.042	870.945	664.013
282.614	16.794	870.602	662.724
283.628	16.863	869.729	662.268
284.643	17.053	868.818	662.260
285.657	16.962	868.428	661.549
286.672	16.889	868.299	661.108
287.687	17.038	867.267	660.844
288.701	17.071	866.699	660.481
289.716	17.131	866.232	660.297
290.730	16.949	865.952	659.319
291.745	17.255	864.643	659.452
292.760	17.163	864.338	658.804
293.774	17.295	863.782	658.834
294.789	16.984	863.592	657.426
295.803	16.979	862.750	656.708
296.818	16.977	861.932	656.019
297.833	17.113	860.897	655.698
298.847	17.168	860.344	655.432
299.862	17.132	860.017	654.983
300.876	17.306	859.344	655.085
301.891	17.423	858.712	654.995
302.906	17.334	858.421	654.375
303.920	17.459	857.869	654.374
304.935	17.418	857.659	654.000
305.949	17.497	856.536	653.390
306.964	17.290	856.084	652.192
307.979	17.306	856.002	652.132
308.993	17.367	854.975	651.528
310.008	17.360	854.696	651.230
311.022	17.415	853.890	650.770
312.037	17.400	853.383	650.267
313.052	17.310	852.279	649.025
314.066	17.350	851.801	648.755
315.081	17.351	851.282	648.308
316.095	17.305	850.561	647.527
317.110	17.243	850.205	646.962
318.125	17.375	849.556	646.912
319.139	17.311	849.457	646.537
320.154	17.314	848.702	645.916
321.168	17.387	848.302	645.830
322.183	17.445	847.591	645.453
323.197	17.450	846.989	644.957
324.212	17.400	846.535	644.365
325.227	17.377	846.148	643.925
326.241	17.415	845.259	643.337
327.256	17.468	844.946	643.241
328.270	17.283	844.659	642.264
329.285	17.339	843.865	641.818
330.300	17.412	842.984	641.364
331.314	17.550	842.741	641.644
332.329	17.593	842.446	641.525
333.343	17.611	841.724	640.987
334.358	17.630	841.594	640.902
335.373	17.480	841.174	639.962
336.387	17.670	840.672	640.234
337.402	17.663	840.490	640.015
338.416	17.772	840.194	640.140
339.431	17.861	839.710	640.049
340.446	17.913	839.235	639.825
341.460	17.888	838.896	639.418
342.475	17.966	838.648	639.465
343.489	17.840	838.221	638.611
344.504	17.971	837.604	638.574
345.519	17.989	837.556	638.548
346.533	17.855	836.757	637.382
347.548	17.936	836.213	637.215
348.562	17.922	835.460	636.529
349.577	17.844	834.770	635.657
350.592	17.769	834.163	634.861
351.606	17.779	833.133	634.055
352.621	17.712	832.865	633.549
353.635	17.806	832.190	633.328
354.650	17.846	831.716	633.059
355.665	17.898	831.061	632.698
356.679	17.983	830.195	632.298
357.694	17.797	830.095	631.476
358.708	17.908	828.975	630.980
359.723	18.034	828.630	631.127
360.738	17.936	827.860	630.124
361.752	17.847	827.850	629.730
362.767	18.224	826.677	630.170
363.781	18.187	826.796	630.068
364.796	18.172	826.138	629.457
365.810	18.320	825.964	629.812
366.825	18.313	825.929	629.705
367.840	18.256	824.935	628.681
368.854	18.401	824.204	628.601
369.869	18.129	824.250	627.583
370.883	18.259	823.529	627.454
371.898	18.491	822.971	627.825
372.913	18.526	822.487	627.526
373.927	18.198	822.352	626.167
374.942	18.416	821.469	626.239
375.956	18.456	821.204	626.126
376.971	18.520	821.068	626.201
377.986	18.456	820.795	625.704
379.000	18.537	820.030	625.362
380.015	18.634	819.563	625.302
381.029	18.618	818.866	624.657
382.044	18.595	818.287	624.075
383.059	18.569	817.387	623.240
384.073	18.505	817.044	622.692
385.088	18.434	816.418	621.900
386.102	18.405	815.870	621.323
387.117	18.509	815.195	621.131
388.132	18.508	814.700	620.695
389.146	18.656	814.048	620.679
390.161	18.474	813.920	619.870
391.175	18.558	813.263	619.617
392.190	18.514	812.594	618.894
393.205	18.566	812.174	618.706
394.219	18.490	811.928	618.192
395.234	18.487	811.474	617.782
396.248	18.359	811.179	617.041
397.263	18.381	810.393	616.465
398.278	18.354	810.311	616.252
399.292	18.439	810.042	616.298
400.307	18.434	809.518	615.828
401.321	18.483	809.015	615.566
402.336	18.523	807.934	614.834
403.350	18.551	808.114	615.016
404.365	18.662	807.692	615.036
405.380	18.892	807.026	615.301
406.394	18.936	806.646	615.112
407.409	18.872	806.224	614.510
408.423	18.786	806.202	614.129
409.438	18.867	805.645	613.939
410.453	18.869	805.471	613.761
411.467	19.032	804.348	613.432
412.482	19.040	804.453	613.486
413.496	19.089	803.794	613.104
414.511	19.081	803.485	612.786
415.526	19.126	802.804	612.371
416.540	18.997	802.384	611.540
417.555	19.063	801.613	611.130
418.569	19.120	801.534	611.220
419.584	19.191	801.120	611.103
420.599	19.105	800.761	610.467
421.613	154.727	1370.070	1788.918
422.628	134.132	1453.037	1789.030
