DTS Sentinel unit serial number:	SN413079Multiplexer serial number:	ORYXHardware model number:	OX4-SRSoftware version number:	ORYX F/W v4.00 Oryx Data Collector v3.7.2.0data status	okinstallation	princeton_trtdifferential loss correction	single-endedforward channel	channel 1reverse channel	N/Adate	2019/09/12time	13:08:11forward acquisition time	60.00reverse acquisition time	0.00gamma	496.2192k internal	0.2291k external	0.2291temperature offset calibration	1.0041default loss term (dB/km)	0.3790temperature slope calibration	1.0000multiplexer offset coefficient	1.0000multiplexer slope coefficient	1.0000fibre end	0.00T internal ref (°C)	41.02T ext. ref 1 (°C)	2.02T ext. ref 2 (°C)	36.46length (m)	temperature (°C)	Stokes	anti-Stokes-747.200	800.000	-0.143	0.429
-746.185	87.569	0.211	0.240
-745.171	-200.000	-0.022	0.456
-744.156	228.003	-0.116	0.193
-743.142	-200.000	0.005	-0.396
-742.127	13.241	-0.294	0.233
-741.112	-89.666	-0.068	-0.020
-740.098	222.398	-0.234	0.385
-739.083	-37.409	0.184	0.101
-738.069	-200.000	0.013	0.153
-737.054	60.719	-0.232	0.235
-736.039	-25.983	-0.075	-0.045
-735.025	-200.000	-0.145	0.670
-734.010	-200.000	-0.019	-0.424
-732.996	-106.671	-0.445	-0.101
-731.981	-62.872	-0.095	-0.040
-730.966	-60.318	0.143	0.062
-729.952	37.650	-0.193	-0.175
-728.937	-200.000	-0.003	-0.156
-727.923	222.731	0.082	-0.135
-726.908	-30.831	-0.391	0.226
-725.894	-24.915	-0.101	0.061
-724.879	-3.797	0.047	-0.034
-723.864	-99.104	-0.206	0.053
-722.850	-27.132	-0.195	0.117
-721.835	-200.000	0.002	0.055
-720.821	-161.557	-0.435	0.023
-719.806	35.982	0.277	-0.250
-718.791	245.713	-0.090	0.155
-717.777	-35.609	0.277	-0.154
-716.762	-30.426	-0.266	0.155
-715.748	311.753	0.163	-0.312
-714.733	-200.000	0.008	-0.120
-713.718	-46.648	-0.221	0.111
-712.704	212.949	-0.079	0.127
-711.689	800.000	0.042	-0.160
-710.675	-103.296	-0.635	0.153
-709.660	-200.000	-0.029	-0.345
-708.645	-77.877	0.062	0.022
-707.631	11.454	0.124	0.097
-706.616	800.000	-0.119	-0.495
-705.602	200.063	-0.152	0.238
-704.587	-200.000	0.020	0.215
-703.572	-200.000	-0.033	0.202
-702.558	32.581	0.110	0.097
-701.543	126.204	0.202	0.262
-700.529	-53.981	-0.422	-0.196
-699.514	-125.419	0.127	-0.020
-698.499	459.663	0.008	0.018
-697.485	800.000	-0.075	0.279
-696.470	-158.380	-0.187	0.011
-695.456	800.000	-0.069	0.240
-694.441	61.791	0.115	-0.117
-693.426	29.990	0.108	0.094
-692.412	-89.605	0.261	0.078
-691.397	800.000	0.029	-0.111
-690.383	-200.000	0.014	-0.173
-689.368	25.473	0.259	-0.220
-688.354	44.890	0.188	-0.177
-687.339	-39.318	0.152	0.081
-686.324	-200.000	0.005	0.226
-685.310	-200.000	0.024	0.417
-684.295	-200.000	0.009	0.114
-683.281	-200.000	-0.020	0.198
-682.266	9.131	-0.073	-0.056
-681.251	497.580	0.273	-0.641
-680.237	13.491	-0.157	-0.125
-679.222	-200.000	0.013	0.181
-678.208	-1.912	0.212	-0.153
-677.193	354.849	-0.081	0.165
-676.178	60.208	-0.106	-0.107
-675.164	10.126	-0.060	-0.047
-674.149	-36.976	-0.226	0.124
-673.135	800.000	0.092	0.276
-672.120	286.043	-0.080	-0.147
-671.105	-61.349	0.256	0.110
-670.091	340.940	0.035	0.069
-669.076	-12.482	0.214	-0.143
-668.062	98.009	-0.401	0.472
-667.047	800.000	-0.018	0.058
-666.032	-54.864	0.396	-0.183
-665.018	-178.413	0.391	-0.009
-664.003	150.302	-0.132	0.182
-662.989	800.000	0.026	0.092
-661.974	29.463	0.144	-0.125
-660.959	43.543	0.440	-0.410
-659.945	-136.343	0.296	-0.035
-658.930	-20.027	0.282	0.177
-657.916	-33.131	-0.104	0.059
-656.901	-200.000	0.023	0.117
-655.886	-137.722	-0.083	-0.010
-654.872	-154.216	-0.217	-0.015
-653.857	-66.426	-0.171	-0.069
-652.843	24.897	0.031	-0.026
-651.828	-85.711	-0.110	0.035
-650.814	-200.000	0.003	0.194
-649.799	-27.391	0.089	-0.053
-648.784	93.312	0.176	-0.203
-647.770	-200.000	-0.044	-0.237
-646.755	-62.517	0.018	-0.008
-645.741	-119.171	0.131	0.023
-644.726	-200.000	0.073	0.351
-643.711	-30.807	0.122	-0.070
-642.697	-125.023	0.280	0.044
-641.682	-139.199	-0.242	0.027
-640.668	-112.328	-0.117	0.024
-639.653	-200.000	-0.051	0.262
-638.638	-58.492	-0.055	0.024
-637.624	86.788	0.160	0.181
-636.609	25.964	-0.088	0.075
-635.595	-200.000	0.005	-0.328
-634.580	76.244	0.070	-0.076
-633.565	315.629	-0.315	-0.606
-632.551	-61.468	0.116	-0.050
-631.536	-200.000	-0.011	0.189
-630.522	287.166	-0.093	-0.172
-629.507	-79.598	-0.246	-0.085
-628.492	-55.716	0.214	0.097
-627.478	800.000	0.032	-0.120
-626.463	-200.000	0.009	0.299
-625.449	381.696	-0.117	-0.244
-624.434	-57.736	-0.137	-0.061
-623.419	106.886	-0.134	-0.163
-622.405	800.000	0.095	-0.403
-621.390	-81.232	0.574	0.193
-620.376	6.730	-0.061	-0.046
-619.361	-89.914	-0.179	0.053
-618.346	-192.838	-0.167	0.002
-617.332	-33.592	-0.045	0.025
-616.317	-127.557	0.325	-0.048
-615.303	800.000	-0.062	-0.216
-614.288	-21.292	0.157	0.098
-613.273	161.133	0.215	-0.307
-612.259	-98.890	0.247	0.064
-611.244	-44.420	0.275	-0.140
-610.230	-101.075	0.342	-0.085
-609.215	-66.348	-0.064	0.026
-608.201	118.361	-0.174	-0.218
-607.186	-51.077	0.100	-0.048
-606.171	800.000	0.065	-0.196
-605.157	98.162	-0.219	-0.257
-604.142	-46.484	-0.211	0.106
-603.128	-81.194	-0.068	-0.023
-602.113	-80.818	-0.030	0.010
-601.098	-43.895	0.150	0.077
-600.084	610.697	-0.054	0.136
-599.069	-200.000	-0.024	-0.221
-598.055	105.808	0.148	-0.178
-597.040	-15.066	-0.350	-0.228
-596.025	800.000	-0.033	-0.100
-595.011	-86.580	0.089	0.028
-593.996	-27.722	0.278	0.164
-592.982	-12.279	0.169	-0.112
-591.967	-200.000	-0.001	-0.101
-590.952	26.988	-0.186	0.159
-589.938	-178.048	0.273	0.007
-588.923	-200.000	0.076	0.485
-587.909	-67.586	-0.277	-0.111
-586.894	386.860	0.176	-0.370
-585.879	800.000	0.090	-0.384
-584.865	800.000	0.029	0.095
-583.850	189.008	0.039	0.059
-582.836	164.646	-0.341	0.489
-581.821	338.937	0.026	0.051
-580.806	59.270	0.135	-0.135
-579.792	-147.734	0.121	0.010
-578.777	800.000	0.017	0.062
-577.763	-109.170	-0.162	0.035
-576.748	145.827	0.330	-0.450
-575.733	77.117	0.161	-0.174
-574.719	-76.104	-0.417	-0.150
-573.704	800.000	-0.063	0.236
-572.690	11.297	0.169	0.132
-571.675	-71.778	0.159	0.060
-570.661	281.159	-0.045	-0.082
-569.646	-53.268	-0.267	-0.124
-568.631	60.231	-0.103	0.103
-567.617	127.411	-0.124	0.160
-566.602	-137.168	0.094	-0.011
-565.588	2.984	-0.139	0.103
-564.573	127.715	-0.058	-0.075
-563.558	800.000	0.019	-0.071
-562.544	-102.063	-0.203	0.050
-561.529	169.149	-0.168	0.243
-560.515	-200.000	-0.072	-0.345
-559.500	14.100	0.130	-0.103
-558.485	-57.726	0.408	-0.182
-557.471	274.158	0.119	0.214
-556.456	2.425	0.356	-0.262
-555.442	646.675	0.088	-0.227
-554.427	-109.299	0.231	0.050
-553.412	297.876	-0.131	-0.245
-552.398	-17.379	-0.296	0.189
-551.383	-176.442	0.111	-0.003
-550.369	-59.303	-0.113	0.049
-549.354	209.813	-0.145	0.231
-548.339	800.000	0.131	0.379
-547.325	81.348	-0.153	0.168
-546.310	96.997	-0.112	-0.130
-545.296	787.227	-0.050	-0.139
-544.281	-27.485	-0.085	0.050
-543.266	-65.136	0.266	0.109
-542.252	-61.221	0.106	0.045
-541.237	-90.084	-0.085	0.025
-540.223	376.029	-0.154	0.318
-539.208	-132.328	-0.189	0.025
-538.193	168.036	0.154	-0.223
-537.179	-141.815	-0.504	-0.051
-536.164	-29.909	-0.151	-0.087
-535.150	-200.000	-0.015	-0.090
-534.135	566.369	-0.132	-0.324
-533.121	-200.000	-0.013	0.378
-532.106	96.658	0.124	-0.144
-531.091	-188.873	-0.128	-0.002
-530.077	800.000	0.063	0.275
-529.062	7.819	0.046	0.035
-528.048	-200.000	0.005	0.102
-527.033	335.689	0.175	0.344
-526.018	-94.627	-0.075	0.021
-525.004	514.802	0.028	-0.066
-523.989	-200.000	-0.023	0.246
-522.975	726.715	-0.030	-0.080
-521.960	-200.000	-0.071	0.446
-520.945	-113.610	-0.075	-0.015
-519.931	1.028	-0.187	0.136
-518.916	-54.324	-0.344	0.158
-517.902	53.219	0.302	0.293
-516.887	-168.042	-0.080	0.003
-515.872	-71.836	0.235	0.089
-514.858	-200.000	0.042	0.365
-513.843	-60.410	-0.086	0.037
-512.829	26.955	-0.129	-0.110
-511.814	-172.262	-0.210	0.007
-510.799	800.000	0.009	0.030
-509.785	-144.815	-0.054	-0.005
-508.770	-42.279	0.279	-0.144
-507.756	53.678	0.213	0.207
-506.741	-200.000	-0.007	-0.039
-505.726	-74.995	0.110	-0.040
-504.712	22.716	-0.226	0.188
-503.697	-128.187	0.378	0.055
-502.683	25.618	0.160	-0.135
-501.668	-200.000	-0.005	-0.226
-500.653	-143.462	-0.114	-0.011
-499.639	690.693	0.116	-0.309
-498.624	90.663	0.133	-0.151
-497.610	-118.675	0.051	-0.009
-496.595	-63.447	-0.125	-0.052
-495.581	-200.000	0.011	0.114
-494.566	-118.459	0.232	0.042
-493.551	800.000	-0.008	-0.033
-492.537	198.314	-0.237	-0.367
-491.522	-104.651	-0.193	-0.045
-490.508	-19.947	0.098	-0.061
-489.493	-100.911	0.187	0.047
-488.478	-200.000	0.072	-0.493
-487.464	47.612	0.060	-0.057
-486.449	-20.646	-0.118	0.073
-485.435	306.135	0.129	-0.244
-484.420	16.708	-0.147	0.118
-483.405	95.576	-0.114	-0.132
-482.391	-104.840	0.293	0.068
-481.376	-69.335	0.050	-0.019
-480.362	-78.047	-0.182	0.064
-479.347	86.448	0.056	-0.062
-478.332	-198.802	-0.116	0.001
-477.318	-200.000	-0.008	0.305
-476.303	800.000	-0.100	-0.292
-475.289	-42.244	0.284	-0.147
-474.274	-20.406	-0.128	-0.080
-473.259	-200.000	-0.029	-0.196
-472.245	766.808	-0.042	-0.115
-471.230	35.998	-0.200	-0.178
-470.216	223.419	0.084	-0.137
-469.201	-57.483	-0.138	-0.061
-468.186	-200.000	0.082	-0.378
-467.172	401.356	0.085	0.181
-466.157	377.977	-0.158	0.327
-465.143	554.551	0.127	-0.309
-464.128	-85.779	0.097	0.030
-463.113	479.661	-0.172	-0.396
-462.099	-91.314	-0.223	0.064
-461.084	-137.908	-0.311	-0.035
-460.070	30.070	0.093	0.080
-459.055	177.158	0.260	0.384
-458.040	35.448	0.172	-0.153
-457.026	-200.000	0.013	-0.258
-456.011	82.610	0.022	0.024
-454.997	-106.695	-0.290	-0.065
-453.982	254.834	-0.145	-0.252
-452.968	-200.000	-0.006	0.159
-451.953	260.848	0.100	0.175
-450.938	-31.762	-0.304	0.173
-449.924	-92.190	0.162	-0.046
-448.909	-200.000	-0.008	-0.071
-447.895	800.000	0.010	0.029
-446.880	800.000	0.039	-0.162
-445.865	529.225	0.128	-0.306
-444.851	-157.830	-0.356	-0.021
-443.836	135.095	-0.149	0.196
-442.822	60.060	-0.070	0.070
-441.807	-90.033	-0.250	-0.074
-440.792	-48.972	0.351	0.170
-439.778	356.226	-0.106	-0.214
-438.763	22.197	-0.110	0.091
-437.749	158.745	0.037	0.052
-436.734	89.208	-0.190	0.215
-435.719	800.000	-0.065	0.227
-434.705	30.930	-0.221	-0.191
-433.690	53.470	0.210	-0.204
-432.676	90.560	-0.040	0.046
-431.661	-81.091	-0.172	-0.058
-430.646	800.000	0.025	0.092
-429.632	7.883	0.077	-0.059
-428.617	-62.317	0.140	0.059
-427.603	-69.959	-0.160	0.062
-426.588	740.730	0.069	-0.188
-425.573	256.643	-0.098	-0.169
-424.559	245.369	-0.128	-0.218
-423.544	-109.189	0.206	-0.044
-422.530	146.089	-0.182	-0.247
-421.515	-155.048	0.082	-0.005
-420.500	62.694	0.132	-0.134
-419.486	-61.209	-0.397	0.169
-418.471	-101.605	-0.140	-0.034
-417.457	173.922	-0.139	0.204
-416.442	800.000	0.015	0.042
-415.428	-69.270	0.303	0.118
-414.413	-117.246	-0.324	0.060
-413.398	65.216	0.276	-0.282
-412.384	-200.000	0.000	-0.391
-411.369	-74.118	0.165	-0.060
-410.355	52.644	-0.259	0.250
-409.340	-142.969	0.190	-0.019
-408.325	415.979	-0.060	0.130
-407.311	-200.000	0.071	0.347
-406.296	-20.018	0.056	-0.035
-405.282	800.000	0.015	-0.060
-404.267	-106.179	-0.141	-0.032
-403.252	101.903	-0.158	0.186
-402.238	496.310	-0.171	0.398
-401.223	-88.833	-0.083	-0.025
-400.209	16.000	-0.137	-0.109
-399.194	-200.000	0.030	0.159
-398.179	-200.000	0.018	-0.162
-397.165	-200.000	0.014	0.184
-396.150	-105.236	0.034	-0.008
-395.136	382.426	-0.020	-0.041
-394.121	-74.329	-0.113	0.041
-393.106	-200.000	0.080	-0.360
-392.092	123.510	-0.066	-0.084
-391.077	-150.707	0.275	0.021
-390.063	-200.000	-0.001	-0.034
-389.048	-200.000	0.002	0.016
-388.033	-200.000	-0.005	-0.028
-387.019	-200.000	0.001	0.034
-386.004	-200.000	-0.051	-0.323
-384.990	-40.819	0.232	0.121
-383.975	-200.000	0.008	-0.242
-382.960	-159.574	-0.169	-0.009
-381.946	288.009	-0.079	0.144
-380.931	194.886	0.092	-0.141
-379.917	-200.000	-0.032	-0.405
-378.902	-99.506	-0.276	-0.070
-377.888	15.155	-0.262	-0.207
-376.873	-55.080	-0.276	0.126
-375.858	320.266	0.040	-0.076
-374.844	227.693	-0.271	-0.445
-373.829	45.118	-0.149	0.138
-372.815	-84.318	0.120	0.038
-371.800	55.827	-0.213	0.209
-370.785	124.424	0.084	0.107
-369.771	178.648	-0.088	-0.130
-368.756	373.603	-0.112	-0.231
-367.742	-169.195	-0.254	-0.010
-366.727	2.633	-0.038	-0.028
-365.712	-200.000	-0.002	0.345
-364.698	-47.549	-0.068	-0.033
-363.683	-60.723	0.123	0.053
-362.669	-135.348	-0.126	-0.015
-361.654	-55.293	-0.263	0.119
-360.639	216.554	-0.019	0.031
-359.625	-200.000	-0.014	0.243
-358.610	-200.000	-0.007	0.153
-357.596	-123.978	-0.030	-0.005
-356.581	80.571	0.096	-0.104
-355.566	-200.000	-0.038	0.287
-354.552	322.823	-0.114	0.220
-353.537	-44.915	0.203	0.102
-352.523	-200.000	0.019	-0.484
-351.508	-170.496	0.169	-0.006
-350.493	150.291	0.238	-0.326
-349.479	800.000	-0.030	-0.120
-348.464	52.198	0.312	0.300
-347.450	-200.000	0.246	0.000
-346.435	-42.147	0.148	0.076
-345.420	-200.000	-0.005	0.380
-344.406	-46.909	0.118	-0.058
-343.391	161.326	0.063	0.089
-342.377	-200.000	-0.039	0.626
-341.362	-109.583	0.432	0.092
-340.348	-166.474	-0.241	0.010
-339.333	-176.658	-0.195	0.005
-338.318	-94.829	-0.336	-0.092
-337.304	800.000	0.036	0.102
-336.289	-98.674	-0.203	-0.052
-335.275	128.150	0.170	-0.218
-334.260	339.633	-0.114	0.225
-333.245	800.000	-0.083	-0.276
-332.231	-48.548	0.488	-0.236
-331.216	800.000	0.131	0.385
-330.202	288.462	-0.070	0.128
-329.187	138.221	0.061	0.081
-328.172	800.000	-0.017	-0.059
-327.158	-121.656	-0.239	0.040
-326.143	86.041	-0.089	0.098
-325.129	73.023	0.157	-0.166
-324.114	102.169	-0.044	0.052
-323.099	-83.566	0.046	0.015
-322.085	-124.114	-0.290	0.046
-321.070	-200.000	0.034	0.166
-320.056	45.515	0.219	0.204
-319.041	800.000	0.053	0.150
-318.026	-57.159	-0.030	-0.013
-317.012	-160.012	-0.224	0.012
-315.997	-70.722	0.326	-0.124
-314.983	-142.112	0.248	-0.025
-313.968	-200.000	0.044	0.281
-312.953	-200.000	0.010	0.129
-311.939	-124.255	0.133	-0.021
-310.924	-200.000	-0.026	0.131
-309.910	72.232	0.191	0.200
-308.895	-200.000	0.040	0.218
-307.880	-200.000	0.021	-0.135
-306.866	800.000	0.062	-0.231
-305.851	147.162	-0.168	0.228
-304.837	-5.933	0.293	0.202
-303.822	-26.633	-0.248	0.146
-302.807	-77.610	0.424	-0.148
-301.793	216.956	-0.168	0.270
-300.778	-168.731	-0.039	-0.001
-299.764	-84.414	0.148	0.047
-298.749	132.311	-0.116	0.151
-297.735	-48.520	-0.072	0.035
-296.720	207.996	0.090	-0.142
-295.705	-200.000	0.008	-0.150
-294.691	424.471	-0.124	0.268
-293.676	-16.624	-0.242	0.154
-292.662	-96.843	-0.190	0.050
-291.647	-98.046	-0.512	0.133
-290.632	800.000	0.022	-0.088
-289.618	-69.586	-0.174	-0.067
-288.603	621.065	-0.055	0.139
-287.589	-200.000	-0.049	0.227
-286.574	116.619	0.207	-0.255
-285.559	-200.000	-0.005	0.186
-284.545	-103.015	0.214	0.051
-283.530	-86.374	0.431	0.133
-282.516	-6.293	-0.079	-0.054
-281.501	75.643	-0.075	-0.079
-280.486	258.099	-0.071	0.122
-279.472	-75.743	-0.282	-0.101
-278.457	800.000	0.073	-0.312
-277.443	26.071	0.025	-0.021
-276.428	228.530	-0.113	0.186
-275.413	92.784	-0.129	0.146
-274.399	-71.785	-0.236	0.089
-273.384	-115.562	-0.041	0.008
-272.370	2.971	-0.184	0.134
-271.355	-96.410	0.259	-0.069
-270.340	-200.000	-0.025	0.153
-269.326	-53.190	0.138	-0.064
-268.311	77.614	0.137	0.147
-267.297	5.174	-0.075	0.056
-266.282	-30.487	-0.298	-0.170
-265.267	18.829	0.206	-0.165
-264.253	-200.000	0.064	0.379
-263.238	-200.000	-0.009	-0.260
-262.224	-200.000	-0.024	-0.342
-261.209	-157.336	0.114	0.007
-260.195	74.267	0.246	-0.260
-259.180	-56.010	-0.151	-0.068
-258.165	22.239	0.111	0.091
-257.151	-200.000	0.012	0.278
-256.136	126.791	-0.028	0.036
-255.122	-200.000	0.060	-0.389
-254.107	681.213	0.054	-0.141
-253.092	2.242	0.295	-0.214
-252.078	-97.165	0.094	0.025
-251.063	-200.000	0.038	0.260
-250.049	-200.000	-0.017	0.159
-249.034	132.721	0.142	-0.184
-248.019	-147.317	-0.162	0.014
-247.005	128.859	-0.176	0.225
-245.990	800.000	0.028	-0.107
-244.976	116.443	-0.213	0.262
-243.961	-12.694	-0.280	-0.183
-242.946	63.746	-0.122	0.123
-241.932	-132.891	-0.284	0.036
-240.917	289.978	0.034	-0.062
-239.903	295.263	0.115	0.211
-238.888	-78.908	-0.292	-0.100
-237.873	-93.928	0.214	-0.059
-236.859	181.641	-0.253	0.373
-235.844	50.144	-0.111	0.105
-234.830	800.000	0.103	0.322
-233.815	15.895	0.066	0.052
-232.800	800.000	-0.093	0.318
-231.786	528.232	-0.218	0.516
-230.771	-45.226	0.206	0.103
-229.757	13.015	0.318	0.247
-228.742	800.000	0.111	0.342
-227.727	174.020	-0.138	0.200
-226.713	-124.055	0.199	0.031
-225.698	125.687	0.246	-0.311
-224.684	4.895	0.384	-0.283
-223.669	-108.286	0.319	-0.069
-222.655	-80.520	0.439	-0.147
-221.640	3.782	0.226	0.166
-220.625	-22.710	0.192	0.117
-219.611	64.581	-0.132	-0.133
-218.596	-75.640	0.075	-0.027
-217.582	124.868	0.163	-0.206
-216.567	-193.191	0.161	-0.001
-215.552	12.771	0.084	0.065
-214.538	-200.000	-0.019	-0.171
-213.523	89.084	0.103	0.115
-212.509	90.524	-0.238	-0.268
-211.494	515.847	0.116	0.272
-210.479	-67.398	-0.403	-0.159
-209.465	-200.000	-0.005	-0.165
-208.450	-184.994	-0.307	-0.005
-207.436	-118.336	0.169	0.030
-206.421	-94.624	0.446	-0.122
-205.406	117.453	-0.206	0.254
-204.392	-200.000	-0.010	0.151
-203.377	-111.208	0.166	0.034
-202.363	-143.744	0.166	0.016
-201.348	33.198	0.151	-0.132
-200.333	174.553	0.112	0.162
-199.319	-200.000	-0.014	-0.140
-198.304	-109.105	-0.196	0.042
-197.290	-200.000	-0.072	-0.324
-196.275	-200.000	0.061	-0.389
-195.260	-91.059	0.384	0.111
-194.246	594.611	0.094	-0.233
-193.231	14.368	-0.359	0.281
-192.217	-131.125	0.291	-0.039
-191.202	-125.982	-0.265	-0.040
-190.187	-66.442	-0.055	-0.022
-189.173	800.000	0.064	0.263
-188.158	-200.000	0.001	0.018
-187.144	-29.593	-0.208	0.119
-186.129	-200.000	0.020	-0.236
-185.114	72.368	0.262	-0.274
-184.100	81.359	-0.264	-0.286
-183.085	-149.447	0.095	-0.008
-182.071	-124.904	-0.172	0.026
-181.056	-102.850	0.143	0.034
-180.042	-85.487	0.255	0.080
-179.027	-200.000	-0.013	0.097
-178.012	66.538	-0.204	-0.208
-176.998	-47.454	-0.409	0.199
-175.983	1.954	0.164	0.119
-174.969	641.097	0.105	-0.269
-173.954	-200.000	0.040	0.336
-172.939	221.686	0.133	0.214
-171.925	-39.774	-0.117	-0.061
-170.910	-59.410	0.120	-0.052
-169.896	-170.832	0.413	-0.014
-168.881	-200.000	-0.023	-0.157
-167.866	800.000	-0.136	0.499
-166.852	65.690	-0.136	0.138
-165.837	800.000	-0.073	0.277
-164.823	86.156	0.091	-0.101
-163.808	-23.684	-0.295	-0.177
-162.793	300.894	-0.100	-0.185
-161.779	-131.889	-0.145	0.019
-160.764	800.000	-0.034	0.110
-159.750	367.912	0.080	-0.162
-158.735	-3.607	-0.016	-0.011
-157.720	-200.000	-0.002	0.238
-156.706	-52.965	0.126	-0.058
-155.691	346.759	0.025	0.049
-154.677	-200.000	0.133	0.000
-153.662	800.000	0.084	-0.237
-152.647	91.830	0.146	0.164
-151.633	800.000	-0.183	-0.661
-150.618	86.301	0.245	-0.270
-149.604	27.113	-0.349	-0.293
-148.589	72.889	0.317	0.331
-147.574	-42.922	0.132	0.067
-146.560	-46.490	0.214	-0.105
-145.545	482.306	-0.100	-0.228
-144.531	-200.000	0.093	-0.573
-143.516	17.384	0.121	0.096
-142.502	8.425	0.157	-0.118
-141.487	-179.639	-0.488	0.011
-140.472	-110.602	0.181	0.038
-139.458	-200.000	0.018	-0.203
-138.443	-200.000	-0.024	-0.128
-137.429	54.291	-0.067	0.065
-136.414	106.391	-0.317	-0.376
-135.399	122.402	0.141	0.176
-134.385	-7.327	0.173	-0.117
-133.370	37.424	-0.017	0.015
-132.356	20.243	0.092	-0.074
-131.341	-5.992	-0.266	0.182
-130.326	-200.000	0.038	0.227
-129.312	-200.000	-0.019	-0.091
-128.297	-200.000	-0.025	0.366
-127.283	-42.040	0.197	0.101
-126.268	-200.000	0.017	0.344
-125.253	244.242	-0.115	-0.193
-124.239	-200.000	-0.016	0.173
-123.224	160.692	0.238	-0.332
-122.210	222.013	0.063	-0.101
-121.195	149.925	0.141	0.191
-120.180	-122.385	-0.142	-0.023
-119.166	-50.867	-0.325	0.153
-118.151	-43.682	0.239	-0.120
-117.137	-125.633	0.368	0.056
-116.122	14.872	-0.047	-0.037
-115.107	297.947	-0.059	-0.108
-114.093	243.995	-0.094	0.157
-113.078	25.226	0.122	0.102
-112.064	800.000	0.046	0.128
-111.049	-97.611	0.092	-0.024
-110.034	116.112	0.025	-0.030
-109.020	800.000	-0.069	0.225
-108.005	-88.584	0.366	-0.109
-106.991	161.813	0.089	0.124
-105.976	800.000	-0.058	0.171
-104.962	-200.000	0.019	-0.125
-103.947	607.066	-0.079	0.198
-102.932	63.991	0.299	0.300
-101.918	-145.286	0.275	0.025
-100.903	12.893	-0.141	0.109
-99.889	137.314	0.142	0.185
-98.874	-65.749	0.372	-0.149
-97.859	451.657	0.003	-0.006
-96.845	188.272	-0.284	-0.424
-95.830	-60.066	0.196	-0.084
-94.816	-33.709	-0.047	-0.026
-93.801	223.945	-0.153	-0.247
-92.786	44.557	-0.298	0.274
-91.772	800.000	-0.056	-0.182
-90.757	44.859	0.372	0.341
-89.743	-80.656	0.206	-0.068
-88.728	139.175	0.108	0.141
-87.713	3.385	-0.141	0.103
-86.699	-5.280	0.094	0.065
-85.684	421.688	0.089	0.191
-84.670	157.148	-0.233	-0.322
-83.655	108.575	0.172	-0.205
-82.640	-200.000	-0.000	-0.042
-81.626	800.000	0.059	0.166
-80.611	173.410	0.091	0.131
-79.597	-132.524	-0.065	-0.008
-78.582	-81.694	0.066	-0.022
-77.567	-200.000	-0.012	0.230
-76.553	155.878	-0.044	-0.060
-75.538	121.539	-0.168	-0.209
-74.524	-39.749	-0.136	0.071
-73.509	20.416	0.233	0.188
-72.494	-43.785	-0.063	-0.031
-71.480	117.276	0.140	-0.171
-70.465	-102.229	0.210	-0.050
-69.451	-114.760	0.120	0.023
-68.436	-71.488	0.217	0.081
-67.422	-200.000	0.010	0.095
-66.407	237.746	0.183	0.304
-65.392	-200.000	-0.032	-0.211
-64.378	-200.000	0.016	-0.127
-63.363	-200.000	-0.021	-0.173
-62.349	-101.742	0.204	0.049
-61.334	113.410	-0.644	-0.780
-60.319	-200.000	0.103	0.656
-59.305	-200.000	0.093	-0.856
-58.290	41.496	0.539	0.486
-57.276	800.000	0.574	1.615
-56.261	-200.000	76.101	509.557
-55.246	520.258	1327.197	3101.545
-54.232	145.280	2561.119	3416.980
-53.217	118.053	2227.939	2736.864
-52.203	52.937	1669.551	1591.942
-51.188	44.794	1392.113	1276.609
-50.173	41.197	1345.921	1212.358
-49.159	59.861	1381.041	1359.011
-48.144	66.610	1400.097	1419.102
-47.130	45.321	1362.920	1252.876
-46.115	41.221	1346.140	1212.511
-45.100	40.950	1341.697	1206.814
-44.086	40.861	1339.183	1203.967
-43.071	40.755	1336.843	1201.173
-42.057	40.751	1334.534	1199.024
-41.042	40.864	1332.698	1198.014
-40.027	40.898	1331.260	1196.876
-39.013	40.887	1329.354	1195.048
-37.998	41.048	1326.792	1193.665
-36.984	40.961	1325.873	1192.267
-35.969	40.853	1324.460	1190.303
-34.954	41.037	1322.218	1189.343
-33.940	41.033	1320.817	1188.013
-32.925	41.153	1319.871	1187.831
-31.911	41.075	1318.397	1185.990
-30.896	41.124	1316.682	1184.690
-29.881	41.203	1315.065	1183.660
-28.867	41.147	1314.046	1182.360
-27.852	41.153	1312.349	1180.823
-26.838	41.141	1310.840	1179.345
-25.823	41.126	1309.464	1177.975
-24.809	41.076	1308.314	1176.599
-23.794	41.156	1307.038	1175.874
-22.779	41.159	1305.150	1174.146
-21.765	41.191	1304.038	1173.290
-20.750	41.097	1302.918	1171.683
-19.736	41.007	1301.130	1169.498
-18.721	41.012	1300.006	1168.470
-17.706	41.012	1299.177	1167.679
-16.692	41.069	1297.607	1166.557
-15.677	40.892	1296.968	1164.899
-14.663	40.908	1295.578	1163.696
-13.648	40.856	1294.854	1162.698
-12.633	40.999	1293.276	1162.067
-11.619	40.968	1292.629	1161.259
-10.604	40.971	1291.483	1160.201
-9.590	40.779	1291.107	1158.698
-8.575	40.853	1290.006	1158.095
-7.560	40.889	1289.347	1157.666
-6.546	40.981	1287.907	1156.864
-5.531	40.967	1287.137	1156.046
-4.517	40.953	1285.984	1154.880
-3.502	40.980	1284.970	1154.082
-2.487	41.063	1284.181	1153.811
-1.473	41.077	1280.235	1150.301
-0.458	39.942	1265.548	1130.568
0.556	36.079	1245.642	1088.195
1.571	31.834	1249.363	1067.247
2.586	30.686	1263.922	1072.971
3.600	29.109	1253.542	1055.037
4.615	21.181	1175.820	946.731
5.629	8.469	1091.385	814.284
6.644	2.503	1066.961	766.204
7.659	2.065	1063.700	761.611
8.673	1.803	1062.702	759.522
9.688	1.712	1061.231	757.950
10.702	2.082	1060.347	759.090
11.717	9.133	1070.587	801.654
12.731	20.357	1086.812	870.313
13.746	25.186	1092.366	898.953
14.761	25.364	1092.365	899.764
15.775	25.317	1091.633	898.845
16.790	25.138	1090.625	897.042
17.804	25.039	1090.256	896.162
18.819	25.051	1090.142	896.051
19.834	25.166	1089.850	896.306
20.848	25.261	1089.483	896.399
21.863	25.331	1088.035	895.479
22.877	25.235	1087.547	894.519
23.892	25.279	1086.850	894.085
24.907	25.270	1086.521	893.693
25.921	25.273	1084.724	892.146
26.936	25.199	1083.598	890.775
27.950	25.205	1082.092	889.490
28.965	24.945	1080.757	887.027
29.980	25.000	1078.988	885.767
30.994	25.202	1078.279	886.103
32.009	25.298	1077.397	885.775
33.023	25.030	1075.923	883.166
34.038	25.124	1075.474	883.180
35.053	25.263	1074.517	882.999
36.067	25.271	1073.695	882.284
37.082	25.343	1072.814	881.839
38.096	25.448	1072.191	881.761
39.111	25.520	1071.572	881.527
40.126	25.350	1070.293	879.566
41.140	24.945	1068.367	875.925
42.155	24.701	1067.369	873.839
43.169	24.799	1066.238	873.311
44.184	24.802	1065.391	872.556
45.199	24.724	1064.376	871.267
46.213	24.776	1063.240	870.516
47.228	24.948	1062.937	871.024
48.242	25.148	1061.654	870.868
49.257	25.122	1061.395	870.454
50.271	25.241	1060.887	870.534
51.286	25.273	1059.368	869.368
52.301	25.333	1058.681	869.018
53.315	25.264	1057.628	867.743
54.330	25.139	1056.713	866.313
55.344	25.171	1056.571	866.271
56.359	25.026	1055.489	864.608
57.374	24.907	1054.376	863.049
58.388	24.867	1054.050	862.513
59.403	24.854	1052.957	861.478
60.417	24.658	1052.200	859.842
61.432	24.787	1051.888	860.128
62.447	24.872	1050.834	859.600
63.461	24.916	1050.022	859.068
64.476	24.956	1048.637	858.055
65.490	24.841	1047.879	856.806
66.505	24.892	1047.159	856.385
67.520	25.011	1046.398	856.257
68.534	24.601	1045.720	853.667
69.549	24.415	1044.546	851.744
70.563	24.366	1043.983	850.978
71.578	24.414	1043.434	850.683
72.593	24.261	1041.884	848.614
73.607	24.301	1041.540	848.450
74.622	24.635	1041.055	849.568
75.636	24.812	1040.412	849.810
76.651	24.735	1039.352	848.501
77.666	24.479	1039.018	846.943
78.680	24.683	1037.872	846.901
79.695	24.678	1037.638	846.609
80.709	24.833	1036.902	846.667
81.724	24.676	1036.120	845.211
82.739	24.728	1035.247	844.671
83.753	25.259	1034.511	846.501
84.768	25.549	1033.980	847.359
85.782	25.614	1032.929	846.728
86.797	25.509	1031.931	845.340
87.812	25.294	1031.156	843.619
88.826	25.502	1029.945	843.534
89.841	25.488	1029.314	842.873
90.855	25.500	1028.423	842.128
91.870	25.390	1027.639	840.897
92.884	25.373	1026.105	839.485
93.899	25.176	1025.667	838.135
94.914	25.545	1024.661	838.960
95.928	25.366	1023.712	837.275
96.943	25.038	1022.133	834.382
97.957	24.845	1021.118	832.580
98.972	24.635	1020.325	830.883
99.987	24.915	1019.555	831.483
101.001	25.107	1018.884	831.756
102.016	25.137	1018.102	831.182
103.030	25.054	1016.775	829.641
104.045	24.805	1016.628	828.293
105.060	24.726	1015.341	826.807
106.074	25.015	1014.302	827.224
107.089	25.180	1014.457	828.039
108.103	25.256	1012.860	827.013
109.118	24.849	1011.774	824.177
110.133	24.902	1011.133	823.827
111.147	24.726	1009.577	821.677
112.162	24.512	1008.916	820.081
113.176	24.848	1008.546	821.251
114.191	24.794	1007.792	820.316
115.206	24.380	1006.567	817.352
116.220	24.429	1005.630	816.744
117.235	24.614	1004.430	816.540
118.249	24.527	1004.243	815.918
119.264	24.424	1003.265	814.581
120.279	24.510	1002.484	814.269
121.293	24.666	1001.466	814.080
122.308	24.698	1000.839	813.642
123.322	24.554	999.424	811.770
124.337	24.373	998.332	809.989
125.352	23.980	996.888	806.960
126.366	23.878	995.925	805.651
127.381	24.666	995.982	809.193
128.395	25.008	995.827	810.541
129.410	25.133	994.922	810.298
130.424	25.094	994.083	809.370
131.439	25.194	992.605	808.546
132.454	25.185	991.841	807.810
133.468	24.998	991.105	806.298
134.483	25.208	990.457	806.644
135.497	25.427	989.947	807.139
136.512	25.414	988.653	805.957
137.527	25.429	987.887	805.326
138.541	25.483	987.313	805.030
139.556	25.499	986.445	804.323
140.570	25.474	986.019	803.793
141.585	25.546	985.120	803.311
142.600	25.473	983.804	801.839
143.614	25.496	983.494	801.621
144.629	25.698	982.697	801.801
145.643	25.623	981.116	800.102
146.658	25.423	979.939	798.185
147.673	25.272	979.022	796.699
148.687	25.061	978.366	795.159
149.702	25.118	976.808	794.074
150.716	25.180	975.540	793.247
151.731	25.183	975.447	793.116
152.746	25.423	975.119	793.838
153.760	25.449	974.483	793.366
154.775	25.684	973.450	793.488
155.789	25.557	972.910	792.419
156.804	25.474	971.927	791.181
157.819	25.613	971.178	791.114
158.833	25.583	970.600	790.442
159.848	25.557	969.639	789.474
160.862	25.516	967.876	787.792
161.877	25.503	967.010	786.958
162.892	25.456	966.205	786.027
163.906	25.428	964.903	784.777
164.921	25.402	964.379	784.171
165.935	25.465	963.251	783.458
166.950	25.405	962.358	782.401
167.964	25.411	961.860	781.950
168.979	25.246	960.180	779.799
169.994	25.404	959.241	779.653
171.008	25.514	959.340	780.145
172.023	25.505	958.313	779.198
173.037	25.339	956.925	777.284
174.052	25.197	955.962	775.820
175.067	25.209	955.936	775.780
176.081	25.359	955.284	775.831
177.096	25.137	955.128	774.678
178.110	25.005	953.415	772.649
179.125	24.766	953.191	771.367
180.140	24.860	952.622	771.244
181.154	25.122	952.206	771.971
182.169	25.483	952.066	773.341
183.183	25.496	951.656	772.994
184.198	25.368	950.803	771.684
185.213	25.429	950.153	771.350
186.227	25.503	949.219	770.839
187.242	25.501	948.341	770.050
188.256	25.550	948.162	770.047
189.271	25.638	947.372	769.716
190.286	25.265	945.975	766.919
191.300	24.666	944.392	763.011
192.315	23.883	942.895	758.395
193.329	23.638	942.834	757.235
194.344	24.759	943.229	762.266
195.359	25.202	943.255	764.105
196.373	25.570	942.084	764.654
197.388	25.421	941.482	763.466
198.402	25.344	941.123	762.777
199.417	25.568	940.262	762.963
200.432	25.255	939.257	760.756
201.446	24.980	938.990	759.306
202.461	25.022	938.443	758.976
203.475	24.388	936.274	754.474
204.490	23.423	934.864	749.192
205.504	24.358	935.596	753.667
206.519	24.933	935.135	755.657
207.534	25.050	934.361	755.458
208.548	25.312	934.707	756.776
209.563	25.077	933.921	755.082
210.577	25.248	933.046	755.024
211.592	25.533	932.815	755.970
212.607	25.576	931.985	755.411
213.621	25.509	931.513	754.681
214.636	25.628	930.613	754.383
215.650	25.415	929.649	752.643
216.665	25.584	929.450	753.126
217.680	25.582	928.818	752.535
218.694	25.248	927.148	749.723
219.709	25.092	926.724	748.660
220.723	25.277	926.675	749.330
221.738	25.503	925.910	749.584
222.753	25.308	925.286	748.200
223.767	25.586	924.569	748.713
224.782	25.807	924.239	749.300
225.796	25.646	924.454	748.739
226.811	25.079	922.543	744.767
227.826	24.284	921.147	740.275
228.840	24.426	920.918	740.617
229.855	24.546	920.256	740.515
230.869	24.238	918.938	738.113
231.884	24.545	919.410	739.701
232.899	25.283	919.634	742.870
233.913	25.233	918.555	741.726
234.928	25.271	917.640	741.076
235.942	25.060	917.210	739.795
236.957	24.930	916.102	738.299
237.972	24.886	915.744	737.765
238.986	24.984	915.372	737.805
240.001	25.066	914.481	737.358
241.015	25.215	914.090	737.589
242.030	25.353	913.645	737.730
243.045	25.334	913.370	737.366
244.059	25.477	912.681	737.330
245.074	25.439	911.839	736.430
246.088	24.996	910.919	733.806
247.103	25.434	910.351	735.076
248.117	25.792	910.855	736.885
249.132	26.040	910.235	737.332
250.147	26.191	909.937	737.640
251.161	26.229	909.060	737.020
252.176	26.173	908.569	736.329
253.190	26.345	908.069	736.559
254.205	26.408	907.759	736.501
255.220	26.328	907.355	735.782
256.234	26.167	906.646	734.487
257.249	26.149	905.701	733.584
258.263	26.351	904.679	733.509
259.278	26.420	903.773	732.991
260.293	26.320	903.640	732.412
261.307	26.235	903.102	731.568
262.322	26.012	902.023	729.727
263.336	25.354	900.366	725.661
264.351	24.301	898.576	719.908
265.366	24.315	898.276	719.659
266.380	25.422	899.080	724.709
267.395	25.914	898.596	726.239
268.409	25.864	897.879	725.394
269.424	25.967	897.551	725.477
270.439	26.085	896.687	725.189
271.453	26.044	896.064	724.456
272.468	26.235	896.046	725.145
273.482	26.427	895.370	725.302
274.497	25.912	893.942	722.021
275.512	25.586	892.946	719.845
276.526	25.973	893.133	721.484
277.541	26.124	893.055	721.961
278.555	26.044	891.673	720.461
279.570	25.866	891.005	719.145
280.585	25.986	890.701	719.315
281.599	25.973	889.574	718.288
282.614	25.337	888.730	715.014
283.628	25.258	888.480	714.432
284.643	25.636	888.221	715.665
285.657	25.315	886.662	713.073
286.672	25.049	885.702	711.180
287.687	25.679	885.504	713.458
288.701	25.677	885.241	713.176
289.716	25.290	884.645	711.099
290.730	25.372	883.634	710.548
291.745	25.040	882.714	708.433
292.760	25.306	883.085	709.720
293.774	26.354	883.120	713.824
294.789	26.711	882.949	715.033
295.803	26.830	882.059	714.720
296.818	26.810	881.410	714.050
297.833	26.203	880.398	710.779
298.847	25.995	879.914	709.509
299.862	26.405	879.725	710.906
300.876	26.655	879.614	711.734
301.891	26.535	878.843	710.577
302.906	26.265	877.860	708.659
303.920	26.305	877.298	708.301
304.935	26.772	876.850	709.703
305.949	26.531	876.400	708.333
306.964	26.399	875.440	706.981
307.979	26.413	875.469	706.994
308.993	26.786	874.632	707.714
310.008	26.650	874.709	707.182
311.022	26.462	873.908	705.739
312.037	26.290	872.900	704.192
313.052	26.143	871.653	702.554
314.066	25.307	869.624	697.609
315.081	24.823	870.210	696.133
316.095	25.684	869.946	699.206
317.110	26.211	869.708	700.999
318.125	25.496	868.310	697.041
319.139	24.312	867.343	691.612
320.154	24.260	866.150	690.398
321.168	25.261	866.537	694.521
322.183	25.983	867.004	697.629
323.197	26.187	866.619	698.048
324.212	26.470	866.280	698.804
325.227	26.478	865.815	698.399
326.241	26.263	865.167	696.986
327.256	26.161	864.533	696.019
328.270	26.193	863.607	695.337
329.285	25.895	862.650	693.359
330.300	25.694	862.020	692.018
331.314	25.880	862.057	692.699
332.329	26.331	862.037	694.355
333.343	26.480	861.694	694.590
334.358	26.564	861.009	694.298
335.373	26.530	860.807	693.942
336.387	26.831	860.965	695.166
337.402	27.003	860.571	695.443
338.416	26.978	859.681	694.565
339.431	27.043	859.763	694.819
340.446	27.038	859.566	694.578
341.460	26.940	859.022	693.704
342.475	26.780	858.509	692.620
343.489	26.837	858.180	692.509
344.504	27.266	858.189	694.092
345.519	27.403	857.557	694.042
346.533	27.335	857.283	693.501
347.548	27.367	856.374	692.825
348.562	27.356	855.476	691.995
349.577	27.175	855.755	691.472
350.592	27.264	854.420	690.671
351.606	27.223	853.829	689.974
352.621	27.033	853.051	688.564
353.635	26.957	852.396	687.689
354.650	26.596	850.392	684.647
355.665	25.396	849.106	679.017
356.679	25.872	848.615	680.363
357.694	26.283	848.428	681.701
358.708	26.095	847.892	680.501
359.723	26.730	847.608	682.607
360.738	26.840	847.635	682.982
361.752	27.010	846.840	682.921
362.767	27.323	846.347	683.640
363.781	27.508	846.192	684.146
364.796	27.750	845.751	684.638
365.810	27.695	845.452	684.128
366.825	27.696	845.081	683.772
367.840	27.384	844.296	681.909
368.854	26.942	843.340	679.424
369.869	27.054	842.748	679.304
370.883	27.048	842.543	679.054
371.898	26.912	841.863	677.938
372.913	27.183	841.715	678.774
373.927	27.038	841.586	678.068
374.942	27.219	841.104	678.293
375.956	27.422	840.493	678.498
376.971	27.514	839.899	678.300
377.986	27.704	839.965	679.001
379.000	27.660	839.136	678.108
380.015	27.452	838.612	676.850
381.029	27.574	838.128	676.856
382.044	27.452	837.736	676.024
383.059	27.639	836.716	675.834
384.073	27.661	836.199	675.438
385.088	27.602	835.459	674.563
386.102	27.406	834.849	673.288
387.117	27.296	834.050	672.174
388.132	26.959	833.399	670.348
389.146	26.558	832.319	667.941
390.161	26.797	832.655	669.032
391.175	27.301	832.390	670.621
392.190	27.111	831.366	669.033
393.205	25.719	829.044	661.991
394.219	24.256	826.979	654.915
395.234	24.168	826.702	654.312
396.248	25.613	828.307	660.838
397.263	27.052	829.341	666.893
398.278	27.106	828.967	666.734
399.292	26.746	828.377	664.878
400.307	26.799	827.778	664.534
401.321	26.941	827.225	664.550
402.336	27.442	826.883	666.051
403.350	27.825	826.995	667.481
404.365	28.090	827.320	668.655
405.380	28.368	826.774	669.169
406.394	28.540	826.006	669.116
407.409	28.354	825.774	668.189
408.423	28.191	825.468	667.290
409.438	28.320	825.110	667.412
410.453	28.508	824.513	667.552
411.467	28.347	823.896	666.408
412.482	28.161	823.760	665.565
413.496	28.468	823.064	666.057
414.511	28.448	822.716	665.646
415.526	28.343	822.453	664.990
416.540	28.060	821.964	663.512
417.555	27.925	820.868	662.079
418.569	28.150	820.515	662.550
419.584	27.937	820.001	661.306
420.599	27.838	819.178	660.225
421.613	93.842	1262.803	1368.934
422.628	80.808	1327.506	1369.059
