DTS Sentinel unit serial number:	SN413079Multiplexer serial number:	ORYXHardware model number:	OX4-SRSoftware version number:	ORYX F/W v4.00 Oryx Data Collector v3.7.2.0data status	okinstallation	princeton_trtdifferential loss correction	single-endedforward channel	channel 1reverse channel	N/Adate	2019/09/16time	04:30:35forward acquisition time	60.00reverse acquisition time	0.00gamma	496.2192k internal	0.2332k external	0.2332temperature offset calibration	0.9985default loss term (dB/km)	0.3790temperature slope calibration	1.0000multiplexer offset coefficient	1.0000multiplexer slope coefficient	1.0000fibre end	0.00T internal ref (°C)	27.25T ext. ref 1 (°C)	10.85T ext. ref 2 (°C)	21.34length (m)	temperature (°C)	Stokes	anti-Stokes-747.200	209.869	0.187	-0.294
-746.185	73.564	-0.133	0.140
-745.171	1.101	0.275	0.198
-744.156	-23.323	-0.193	-0.117
-743.142	-200.000	0.002	-0.033
-742.127	348.392	-0.182	0.362
-741.112	464.372	0.060	0.136
-740.098	-69.567	-0.178	-0.068
-739.083	-130.144	-0.206	-0.028
-738.069	-200.000	-0.003	0.306
-737.054	-62.083	-0.108	-0.045
-736.039	-155.074	-0.518	0.034
-735.025	-200.000	0.042	-0.245
-734.010	471.874	-0.146	-0.329
-732.996	6.719	-0.144	-0.108
-731.981	182.436	-0.100	-0.148
-730.966	62.163	-0.150	-0.150
-729.952	-3.243	-0.084	-0.059
-728.937	12.890	-0.311	0.241
-727.923	800.000	-0.070	0.208
-726.908	-61.893	-0.107	-0.045
-725.894	427.954	-0.185	0.401
-724.879	-200.000	-0.297	0.001
-723.864	-200.000	-0.057	-0.287
-722.850	20.799	-0.229	-0.186
-721.835	156.614	-0.094	0.130
-720.821	-200.000	-0.093	0.420
-719.806	62.553	0.240	0.241
-718.791	-75.849	-0.363	0.129
-717.777	-57.962	0.129	-0.057
-716.762	-82.264	-0.298	-0.098
-715.748	29.593	-0.177	0.151
-714.733	453.517	0.141	0.314
-713.718	-76.109	0.260	0.092
-712.704	124.316	-0.203	-0.256
-711.689	-174.364	-0.107	0.003
-710.675	5.855	-0.097	-0.072
-709.660	73.612	0.181	0.191
-708.645	53.357	-0.404	-0.389
-707.631	178.940	-0.181	-0.266
-706.616	-62.985	0.245	-0.102
-705.602	239.318	0.118	-0.197
-704.587	-200.000	-0.011	0.055
-703.572	-111.072	-0.164	0.034
-702.558	-91.231	0.301	0.087
-701.543	311.777	0.115	0.217
-700.529	-200.000	-0.016	0.205
-699.514	269.655	0.051	-0.091
-698.499	645.468	0.107	0.273
-697.485	-200.000	0.015	0.085
-696.470	-133.682	0.230	0.029
-695.456	701.252	-0.090	0.237
-694.441	63.277	0.090	-0.090
-693.426	800.000	0.048	-0.187
-692.412	800.000	0.123	0.407
-691.397	-19.067	0.127	-0.079
-690.383	-107.577	0.331	-0.073
-689.368	-81.436	0.079	0.026
-688.354	232.446	0.126	0.207
-687.339	-141.652	-0.264	0.027
-686.324	800.000	-0.070	0.195
-685.310	-99.562	-0.047	-0.012
-684.295	173.226	0.049	-0.071
-683.281	-52.953	-0.141	0.065
-682.266	-103.680	-0.082	0.019
-681.251	-45.480	-0.225	0.112
-680.237	106.710	-0.182	-0.216
-679.222	538.304	0.135	0.323
-678.208	-119.150	-0.048	0.008
-677.193	79.604	-0.076	-0.082
-676.178	786.729	-0.089	0.244
-675.164	344.125	0.136	-0.267
-674.149	226.382	0.093	-0.152
-673.135	-47.624	-0.036	0.018
-672.120	-109.607	-0.105	-0.022
-671.105	-66.378	-0.144	0.057
-670.091	50.045	0.153	-0.145
-669.076	359.519	0.098	0.197
-668.062	-151.831	-0.226	0.017
-667.047	290.934	0.090	-0.164
-666.032	-3.565	-0.102	0.071
-665.018	-200.000	-0.015	-0.239
-664.003	160.073	-0.064	-0.089
-662.989	800.000	0.113	-0.333
-661.974	381.399	-0.178	-0.366
-660.959	-113.971	0.086	0.017
-659.945	-102.004	-0.252	-0.061
-658.930	-200.000	0.002	0.103
-657.916	800.000	0.089	-0.337
-656.901	-102.555	0.129	-0.031
-655.886	-109.963	0.247	-0.052
-654.872	-11.310	-0.254	-0.168
-653.857	-20.286	0.158	-0.098
-652.843	24.970	0.095	-0.079
-651.828	-200.000	0.007	-0.218
-650.814	459.172	-0.111	-0.248
-649.799	19.363	0.437	0.352
-648.784	310.012	-0.036	-0.067
-647.770	101.737	0.077	-0.089
-646.755	-200.000	-0.020	-0.104
-645.741	-119.381	0.130	0.023
-644.726	-24.855	0.258	0.154
-643.711	356.257	0.103	0.206
-642.697	-17.238	-0.075	0.048
-641.682	49.994	-0.040	0.038
-640.668	-87.507	0.240	-0.073
-639.653	800.000	-0.074	0.216
-638.638	136.327	-0.123	-0.160
-637.624	-58.831	-0.313	0.136
-636.609	-16.316	-0.224	0.142
-635.595	-108.589	0.058	-0.012
-634.580	71.329	-0.107	-0.111
-633.565	277.285	0.084	0.149
-632.551	-200.000	0.021	-0.184
-631.536	-200.000	0.004	0.219
-630.522	14.955	0.064	-0.051
-629.507	800.000	-0.044	-0.128
-628.492	7.244	-0.249	-0.186
-627.478	-19.552	-0.364	0.226
-626.463	800.000	0.081	-0.228
-625.449	347.392	-0.094	0.186
-624.434	135.212	0.096	0.124
-623.419	776.132	0.031	-0.086
-622.405	701.436	0.170	-0.449
-621.390	-200.000	0.006	0.096
-620.376	-99.948	-0.186	-0.046
-619.361	800.000	0.086	0.357
-618.346	102.054	0.136	0.159
-617.332	171.745	0.225	-0.324
-616.317	29.695	-0.170	0.145
-615.303	-135.554	-0.196	-0.023
-614.288	-34.631	0.263	0.144
-613.273	-200.000	0.011	-0.102
-612.259	-157.518	-0.336	0.020
-611.244	471.668	-0.070	-0.157
-610.230	-200.000	0.031	0.243
-609.215	-155.818	-0.191	-0.012
-608.201	-34.789	0.212	0.116
-607.186	63.145	-0.367	-0.368
-606.171	-72.123	-0.064	-0.024
-605.157	635.775	-0.062	-0.158
-604.142	-1.315	-0.168	0.118
-603.128	-163.663	0.353	0.017
-602.113	-200.000	-0.042	0.255
-601.098	221.914	-0.141	-0.227
-600.084	21.505	-0.070	0.057
-599.069	269.443	-0.167	0.294
-598.055	190.784	0.247	0.371
-597.040	-139.492	-0.161	0.017
-596.025	585.194	0.077	0.189
-595.011	-134.327	0.166	0.020
-593.996	-59.253	-0.248	-0.107
-592.982	-200.000	-0.004	-0.029
-591.967	-200.000	0.011	0.202
-590.952	-115.676	-0.242	-0.045
-589.938	-100.806	-0.046	0.011
-588.923	-143.512	0.196	-0.019
-587.909	-200.000	-0.026	0.546
-586.894	93.706	-0.216	-0.245
-585.879	132.411	-0.059	-0.076
-584.865	-49.178	0.081	-0.039
-583.850	136.030	-0.202	-0.263
-582.836	441.423	0.126	-0.276
-581.821	-97.243	-0.279	0.073
-580.806	-8.197	0.234	0.157
-579.792	-200.000	-0.032	0.162
-578.777	359.145	-0.126	0.251
-577.763	-60.108	-0.257	0.109
-576.748	-135.678	-0.127	0.015
-575.733	23.897	0.270	-0.223
-574.719	72.646	-0.139	-0.145
-573.704	800.000	-0.015	0.061
-572.690	476.054	0.084	0.189
-571.675	113.174	0.081	-0.098
-570.661	17.572	-0.241	0.191
-569.646	-25.378	0.233	0.138
-568.631	-186.466	0.437	0.006
-567.617	10.457	-0.232	0.177
-566.602	-200.000	-0.004	-0.146
-565.588	-187.790	0.395	0.005
-564.573	187.641	0.092	-0.138
-563.558	-105.717	-0.231	0.052
-562.544	-53.814	0.271	-0.124
-561.529	800.000	0.029	-0.090
-560.515	24.176	0.235	0.194
-559.500	-127.196	0.137	0.020
-558.485	517.064	0.053	0.123
-557.471	2.011	-0.057	0.041
-556.456	-26.544	-0.376	0.220
-555.442	260.516	0.135	0.234
-554.427	-53.246	0.288	-0.132
-553.412	-200.000	0.020	0.116
-552.398	-83.282	0.123	0.040
-551.383	634.295	-0.116	0.293
-550.369	-200.000	-0.025	0.222
-549.354	800.000	0.009	-0.026
-548.339	-123.794	0.196	-0.031
-547.325	-200.000	-0.031	-0.220
-546.310	-200.000	0.023	-0.270
-545.296	109.563	0.161	0.192
-544.281	-200.000	-0.052	-0.354
-543.266	465.104	0.129	0.289
-542.252	-95.744	0.463	0.124
-541.237	-84.177	-0.128	0.041
-540.223	-191.592	0.210	0.002
-539.208	-200.000	0.012	0.166
-538.193	-35.418	-0.210	0.114
-537.179	-200.000	-0.045	-0.222
-536.164	-78.185	-0.257	0.088
-535.150	157.275	0.056	-0.077
-534.135	-79.657	0.164	0.055
-533.121	493.758	0.095	-0.217
-532.106	440.936	-0.038	0.082
-531.091	10.948	-0.060	-0.046
-530.077	-200.000	0.028	0.226
-529.062	-63.155	-0.156	-0.064
-528.048	-155.570	0.171	-0.011
-527.033	800.000	-0.080	0.227
-526.018	238.831	-0.057	-0.094
-525.004	-103.722	0.066	-0.015
-523.989	30.021	-0.271	-0.231
-522.975	-200.000	0.044	0.194
-521.960	229.911	0.118	-0.191
-520.945	800.000	-0.065	0.197
-519.931	-72.652	0.270	-0.099
-518.916	-143.143	0.099	0.009
-517.902	-200.000	0.033	0.157
-516.887	-43.467	-0.278	-0.140
-515.872	407.580	-0.079	-0.166
-514.858	64.987	-0.242	-0.244
-513.843	-200.000	-0.024	0.430
-512.829	274.032	-0.117	0.206
-511.814	-28.875	-0.192	-0.110
-510.799	-103.270	0.293	0.069
-509.785	-200.000	0.008	0.076
-508.770	64.658	-0.137	0.138
-507.756	-46.326	0.212	0.104
-506.741	800.000	0.032	0.095
-505.726	-200.000	-0.020	0.173
-504.712	-8.492	0.041	0.027
-503.697	162.251	0.176	-0.246
-502.683	800.000	0.071	-0.286
-501.668	100.747	-0.134	-0.156
-500.653	-87.038	-0.072	-0.022
-499.639	-200.000	-0.021	0.222
-498.624	-12.752	-0.277	-0.180
-497.610	-16.864	-0.228	-0.143
-496.595	-200.000	-0.002	-0.117
-495.581	13.856	0.225	-0.175
-494.566	149.466	0.163	0.219
-493.551	27.984	0.053	0.044
-492.537	-92.960	-0.244	-0.068
-491.522	21.130	-0.034	0.027
-490.508	-61.764	0.177	-0.074
-489.493	-119.659	-0.134	0.023
-488.478	23.662	0.300	0.246
-487.464	22.189	-0.135	0.110
-486.449	461.808	0.072	0.159
-485.435	22.981	-0.259	-0.212
-484.420	-53.441	-0.181	0.083
-483.405	113.328	0.073	0.088
-482.391	-200.000	-0.003	-0.369
-481.376	724.803	0.015	0.040
-480.362	-87.952	0.062	-0.018
-479.347	800.000	-0.039	0.125
-478.332	-54.592	0.204	0.092
-477.318	-200.000	-0.032	0.230
-476.303	191.313	-0.219	0.328
-475.289	297.382	0.135	0.247
-474.274	-177.481	-0.348	-0.008
-473.259	-84.856	-0.111	-0.035
-472.245	56.760	0.068	0.066
-471.230	-56.843	-0.239	0.105
-470.216	-50.310	0.112	-0.053
-469.201	54.565	-0.201	-0.192
-468.186	8.268	0.164	-0.122
-467.172	-147.068	0.190	-0.016
-466.157	123.830	0.134	-0.168
-465.143	-9.332	-0.382	0.254
-464.128	202.940	0.200	0.308
-463.113	800.000	-0.008	0.032
-462.099	11.176	0.105	0.080
-461.084	-90.261	0.316	-0.091
-460.070	-49.476	0.190	0.090
-459.055	0.984	-0.047	-0.033
-458.040	800.000	0.055	0.182
-457.026	-152.351	-0.139	0.010
-456.011	262.455	0.125	-0.216
-454.997	-200.000	0.043	-0.245
-453.982	-7.460	-0.049	-0.033
-452.968	800.000	0.042	-0.139
-451.953	-53.812	-0.236	-0.107
-450.938	-200.000	0.014	-0.174
-449.924	-200.000	-0.008	-0.223
-448.909	-63.659	0.127	-0.052
-447.895	224.058	-0.195	0.313
-446.880	-200.000	0.007	0.149
-445.865	-55.841	-0.238	0.106
-444.851	-26.187	-0.118	-0.069
-443.836	-144.674	-0.288	0.026
-442.822	211.661	-0.105	0.165
-441.807	247.178	-0.163	-0.273
-440.792	-200.000	-0.112	-0.489
-439.778	132.487	-0.141	0.181
-438.763	-143.331	0.114	0.011
-437.749	-200.000	0.007	-0.174
-436.734	-100.774	0.190	0.047
-435.719	800.000	-0.089	0.290
-434.705	33.568	-0.291	-0.251
-433.690	-20.276	0.037	-0.023
-432.676	-77.190	0.219	0.076
-431.661	-121.038	0.038	-0.006
-430.646	800.000	-0.084	0.230
-429.632	800.000	-0.059	0.213
-428.617	268.934	0.056	-0.097
-427.603	-43.962	-0.374	-0.187
-426.588	223.770	0.116	-0.186
-425.573	-46.480	0.253	0.123
-424.559	800.000	-0.099	0.345
-423.544	-112.794	0.126	-0.025
-422.530	229.894	0.180	-0.292
-421.515	-37.062	-0.220	0.117
-420.500	-200.000	0.004	-0.179
-419.486	1.675	-0.084	-0.060
-418.471	10.503	0.192	-0.146
-417.457	-149.934	0.153	0.012
-416.442	-86.592	-0.048	-0.015
-415.428	-200.000	0.003	-0.144
-414.413	276.533	-0.009	0.016
-413.398	800.000	0.149	-0.464
-412.384	423.524	0.095	-0.203
-411.369	-87.349	0.235	-0.071
-410.355	197.302	-0.216	-0.328
-409.340	269.844	-0.038	0.067
-408.325	71.953	0.108	-0.112
-407.311	800.000	0.003	0.012
-406.296	-19.170	0.058	0.036
-405.282	-200.000	0.013	-0.117
-404.267	-84.619	0.159	0.050
-403.252	80.737	-0.057	0.061
-402.238	-200.000	-0.024	-0.448
-401.223	-116.416	-0.326	-0.060
-400.209	-25.226	-0.363	-0.214
-399.194	800.000	-0.029	-0.126
-398.179	800.000	-0.049	-0.139
-397.165	223.867	-0.275	-0.441
-396.150	102.032	-0.046	0.053
-395.136	32.616	0.092	-0.079
-394.121	-200.000	0.042	-0.186
-393.106	731.255	0.030	0.078
-392.092	291.689	0.088	-0.159
-391.077	800.000	-0.016	-0.054
-390.063	-33.133	0.083	0.046
-389.048	29.308	0.245	-0.207
-388.033	186.776	-0.109	0.161
-387.019	-31.285	-0.392	-0.219
-386.004	-19.866	-0.235	0.144
-384.990	420.765	0.134	-0.284
-383.975	103.121	0.119	0.138
-382.960	-182.283	-0.232	0.004
-381.946	347.543	-0.070	0.137
-380.931	-200.000	-0.020	0.164
-379.917	46.305	-0.154	0.142
-378.902	110.417	-0.175	-0.208
-377.888	-164.129	-0.276	0.013
-376.873	72.801	-0.109	0.113
-375.858	24.191	0.112	-0.091
-374.844	30.407	0.227	-0.193
-373.829	416.966	0.044	-0.094
-372.815	-200.000	-0.027	-0.200
-371.800	-71.123	0.423	0.158
-370.785	-200.000	-0.011	-0.105
-369.771	9.974	-0.113	0.085
-368.756	227.753	0.049	-0.079
-367.742	230.562	0.157	-0.254
-366.727	266.668	-0.098	-0.170
-365.712	368.209	0.179	0.359
-364.698	-92.635	0.217	-0.060
-363.683	271.611	-0.082	-0.143
-362.669	32.734	-0.218	0.187
-361.654	550.202	0.114	-0.271
-360.639	-137.436	-0.334	-0.037
-359.625	-113.833	0.182	-0.035
-358.610	151.816	-0.190	0.257
-357.596	-55.267	0.228	-0.101
-356.581	-103.797	0.433	-0.100
-355.566	622.093	-0.048	-0.119
-354.552	-147.718	-0.159	0.013
-353.537	-73.546	-0.280	0.101
-352.523	-144.203	0.193	-0.018
-351.508	-26.189	0.200	-0.116
-350.493	-79.277	-0.283	0.095
-349.479	52.633	-0.053	-0.050
-348.464	-63.229	0.373	-0.152
-347.450	194.723	-0.064	0.097
-346.435	-159.131	-0.209	0.012
-345.420	-48.511	-0.303	0.144
-344.406	-126.342	-0.094	0.014
-343.391	-96.896	-0.195	-0.051
-342.377	800.000	-0.129	0.460
-341.362	-200.000	0.051	-0.322
-340.348	-108.300	-0.146	-0.031
-339.333	-89.965	-0.231	0.067
-338.318	99.441	-0.102	0.117
-337.304	236.982	-0.062	0.102
-336.289	-200.000	0.022	-0.257
-335.275	-200.000	0.025	0.210
-334.260	339.314	0.111	0.215
-333.245	18.130	0.240	0.189
-332.231	-94.128	-0.148	-0.040
-331.216	-77.451	-0.045	0.015
-330.202	464.705	0.182	-0.404
-329.187	-138.315	-0.106	0.012
-328.172	-123.982	0.190	-0.030
-327.158	-91.592	-0.254	-0.072
-326.143	-133.758	0.238	0.029
-325.129	-14.217	0.243	0.155
-324.114	-9.318	0.223	-0.148
-323.099	-57.779	-0.047	-0.020
-322.085	-111.647	-0.320	0.064
-321.070	317.819	0.026	0.048
-320.056	71.680	0.163	0.168
-319.041	800.000	0.059	-0.208
-318.026	67.572	-0.227	0.230
-317.012	-163.329	0.069	0.003
-315.997	-200.000	0.033	0.332
-314.983	171.766	-0.071	-0.101
-313.968	-146.335	0.263	-0.023
-312.953	139.832	-0.074	0.096
-311.939	-93.982	0.113	-0.031
-310.924	-76.587	0.190	-0.066
-309.910	58.160	0.268	-0.260
-308.895	-72.387	-0.246	-0.090
-307.880	327.762	0.100	-0.189
-306.866	-200.000	-0.004	0.268
-305.851	460.138	0.098	0.217
-304.837	543.823	-0.116	-0.274
-303.822	48.693	0.074	0.068
-302.807	-200.000	-0.012	0.369
-301.793	48.115	-0.163	-0.151
-300.778	-158.838	-0.300	0.017
-299.764	142.872	0.299	-0.394
-298.749	800.000	0.003	0.010
-297.735	238.441	-0.197	-0.324
-296.720	11.402	0.172	-0.130
-295.705	-79.201	-0.313	0.105
-294.691	-200.000	-0.007	0.226
-293.676	477.931	-0.046	-0.103
-292.662	-200.000	0.006	-0.218
-291.647	-108.813	-0.198	-0.042
-290.632	42.249	0.205	0.184
-289.618	-34.323	0.098	0.053
-288.603	24.707	-0.128	-0.104
-287.589	-200.000	-0.032	0.381
-286.574	-154.889	-0.041	-0.003
-285.559	309.377	0.146	-0.270
-284.545	800.000	-0.049	-0.202
-283.530	12.906	-0.050	-0.038
-282.516	18.640	-0.164	0.129
-281.501	-118.490	0.165	-0.029
-280.486	-53.289	-0.071	0.032
-279.472	779.439	-0.054	-0.145
-278.457	652.402	-0.057	0.144
-277.443	-200.000	-0.068	0.332
-276.428	740.730	-0.073	0.193
-275.413	43.949	0.106	-0.096
-274.399	187.601	-0.130	0.192
-273.384	-19.188	-0.115	0.070
-272.370	-85.714	-0.352	0.108
-271.355	-31.216	-0.147	-0.082
-270.340	51.368	0.079	0.074
-269.326	545.542	-0.081	-0.191
-268.311	54.332	0.084	0.080
-267.297	-200.000	0.000	-0.049
-266.282	269.116	0.166	-0.288
-265.267	-172.211	-0.249	-0.008
-264.253	160.436	-0.050	0.069
-263.238	800.000	0.042	-0.162
-262.224	-128.872	-0.060	-0.008
-261.209	353.893	0.124	0.243
-260.195	-41.311	0.147	0.075
-259.180	-120.775	-0.372	0.062
-258.165	-48.896	-0.201	0.095
-257.151	8.084	-0.151	0.112
-256.136	51.100	0.144	0.135
-255.122	-96.815	0.175	-0.045
-254.107	190.673	-0.129	-0.192
-253.092	479.510	-0.108	0.242
-252.078	-200.000	0.054	0.296
-251.063	220.670	-0.231	-0.366
-250.049	-200.000	0.055	-0.272
-249.034	197.966	-0.034	0.051
-248.019	-19.975	0.284	0.173
-247.005	301.246	0.127	0.231
-245.990	-95.862	0.168	0.044
-244.976	-200.000	0.006	0.357
-243.961	162.961	0.124	-0.172
-242.946	108.237	0.056	-0.066
-241.932	-62.828	-0.116	0.047
-240.917	349.415	0.067	-0.131
-239.903	-4.312	0.189	-0.129
-238.888	148.128	-0.137	-0.182
-237.873	231.677	0.074	-0.120
-236.859	68.502	-0.091	0.092
-235.844	800.000	-0.036	-0.151
-234.830	730.361	-0.056	-0.147
-233.815	-200.000	-0.027	0.153
-232.800	255.926	0.157	-0.266
-231.786	800.000	0.092	-0.281
-230.771	48.550	-0.148	-0.137
-229.757	476.207	0.143	0.320
-228.742	-68.449	0.046	-0.018
-227.727	-200.000	-0.002	-0.153
-226.713	65.724	0.093	-0.093
-225.698	-81.677	-0.135	0.044
-224.684	494.050	-0.080	-0.181
-223.669	800.000	0.056	-0.185
-222.655	-200.000	-0.005	0.283
-221.640	276.538	-0.039	-0.068
-220.625	-150.398	0.138	-0.010
-219.611	-111.367	0.305	0.061
-218.596	-84.600	-0.163	-0.051
-217.582	291.869	0.144	0.259
-216.567	85.096	-0.186	-0.201
-215.552	22.320	0.283	-0.228
-214.538	-72.952	0.224	-0.081
-213.523	-200.000	-0.014	-0.151
-212.509	-200.000	0.117	0.561
-211.494	-99.970	0.178	0.044
-210.479	-200.000	-0.005	0.449
-209.465	800.000	-0.087	0.257
-208.450	-200.000	0.032	-0.178
-207.436	336.465	-0.100	-0.191
-206.421	-200.000	0.060	-0.324
-205.406	-134.545	0.348	0.042
-204.392	-200.000	-0.052	-0.287
-203.377	593.752	-0.086	-0.210
-202.363	248.367	-0.238	0.397
-201.348	-22.679	0.077	0.046
-200.333	234.845	0.161	-0.262
-199.319	-200.000	-0.063	-0.311
-198.304	-48.397	0.044	0.021
-197.290	-200.000	0.013	-0.084
-196.275	415.645	-0.168	-0.353
-195.260	475.368	-0.116	-0.258
-194.246	-200.000	-0.019	0.279
-193.231	-36.195	-0.076	0.041
-192.217	111.405	0.115	-0.137
-191.202	81.950	-0.143	0.153
-190.187	-200.000	-0.003	0.104
-189.173	-115.988	0.363	-0.067
-188.158	-2.109	0.025	0.017
-187.144	-200.000	0.006	-0.032
-186.129	51.583	0.099	-0.092
-185.114	-25.049	-0.304	0.178
-184.100	-85.025	0.311	-0.096
-183.085	-200.000	0.044	0.248
-182.071	10.674	0.062	-0.046
-181.056	-126.822	-0.446	0.065
-180.042	-86.297	0.103	-0.031
-179.027	174.118	-0.055	-0.078
-178.012	48.570	-0.122	-0.112
-176.998	-86.427	-0.139	-0.042
-175.983	-11.359	0.103	0.067
-174.969	800.000	0.078	0.272
-173.954	330.557	-0.232	-0.440
-172.939	-200.000	-0.032	0.182
-171.925	-43.859	0.479	0.237
-170.910	45.328	0.165	-0.150
-169.896	-181.003	0.347	-0.007
-168.881	439.561	0.102	0.220
-167.866	468.412	0.116	-0.257
-166.852	-200.000	0.018	0.107
-165.837	-31.159	0.319	0.177
-164.823	-153.065	0.311	-0.022
-163.808	288.755	0.172	0.307
-162.793	-98.061	-0.340	0.086
-161.779	-138.106	0.212	0.023
-160.764	800.000	0.102	-0.299
-159.750	-200.000	-0.003	0.161
-158.735	-131.063	0.212	-0.028
-157.720	-30.902	0.549	0.305
-156.706	-81.607	-0.065	0.021
-155.691	-200.000	-0.017	0.355
-154.677	279.512	-0.343	0.602
-153.662	37.732	0.195	-0.170
-152.647	156.571	-0.149	-0.203
-151.633	-200.000	-0.031	-0.189
-150.618	-54.218	-0.219	-0.098
-149.604	-12.649	-0.126	0.081
-148.589	94.566	0.080	-0.089
-147.574	-200.000	-0.073	-0.323
-146.560	-32.787	0.184	-0.101
-145.545	-63.655	0.020	-0.008
-144.531	-60.533	0.159	0.066
-143.516	-79.171	-0.261	-0.087
-142.502	-79.856	-0.216	0.071
-141.487	299.338	0.144	-0.260
-140.472	271.880	0.119	0.206
-139.458	380.736	-0.085	0.172
-138.443	76.229	-0.171	0.178
-137.429	-82.454	-0.250	-0.080
-136.414	-142.740	-0.222	-0.021
-135.399	-111.564	0.299	-0.060
-134.385	87.253	0.333	-0.361
-133.370	41.683	-0.326	-0.290
-132.356	-49.083	0.153	0.072
-131.341	-116.937	-0.324	0.058
-130.326	-107.032	0.172	0.037
-129.312	-200.000	0.056	-0.261
-128.297	-36.568	0.103	0.054
-127.283	-34.153	-0.330	0.178
-126.268	-119.466	-0.183	0.031
-125.253	232.817	-0.075	0.121
-124.239	-200.000	-0.016	0.162
-123.224	-122.200	-0.240	-0.039
-122.210	-91.555	-0.092	-0.026
-121.195	14.310	-0.129	-0.099
-120.180	45.198	-0.108	0.097
-119.166	-82.499	0.086	0.027
-118.151	-45.535	0.192	0.093
-117.137	261.781	-0.027	-0.045
-116.122	-100.048	-0.276	0.067
-115.107	-63.479	0.089	-0.036
-114.093	-200.000	-0.037	-0.202
-113.078	272.643	0.173	0.300
-112.064	-155.675	0.264	-0.017
-111.049	-200.000	0.046	0.309
-110.034	41.075	0.061	0.054
-109.020	232.055	-0.136	-0.219
-108.005	58.978	0.242	-0.234
-106.991	-94.229	-0.158	-0.043
-105.976	630.408	0.131	-0.325
-104.962	6.735	-0.232	0.170
-103.947	249.391	0.263	-0.437
-102.932	-125.273	0.134	0.020
-101.918	-200.000	0.009	-0.375
-100.903	-125.628	0.046	0.007
-99.889	18.615	-0.158	0.124
-98.874	305.310	0.098	-0.178
-97.859	199.196	-0.105	0.158
-96.845	167.681	0.189	0.264
-95.830	9.939	0.092	-0.068
-94.816	226.170	-0.171	0.272
-93.801	-64.066	0.289	0.116
-92.786	-51.249	0.173	0.080
-91.772	800.000	-0.076	-0.224
-90.757	30.155	-0.177	-0.148
-89.743	-77.785	-0.336	0.114
-88.728	-200.000	-0.019	-0.238
-87.713	735.427	-0.175	0.460
-86.699	229.795	-0.074	-0.119
-85.684	-200.000	0.033	-0.230
-84.670	800.000	-0.086	0.323
-83.655	245.867	-0.182	0.301
-82.640	201.106	0.153	-0.230
-81.626	82.415	0.060	-0.064
-80.611	-20.764	0.195	0.117
-79.597	-84.293	0.292	0.091
-78.582	45.833	-0.108	-0.097
-77.567	-200.000	0.036	0.295
-76.553	-71.330	-0.168	0.062
-75.538	-124.533	-0.194	-0.030
-74.524	228.177	-0.063	0.100
-73.509	307.122	-0.023	0.042
-72.494	-63.265	0.138	-0.056
-71.480	14.400	0.074	-0.056
-70.465	-60.711	0.308	0.128
-69.451	800.000	0.018	0.066
-68.436	-84.575	-0.428	-0.132
-67.422	-143.319	-0.068	-0.006
-66.407	-200.000	0.019	0.117
-65.392	430.255	-0.049	0.103
-64.378	-147.752	0.113	-0.009
-63.363	-2.676	-0.254	0.174
-62.349	-200.000	0.006	0.232
-61.334	53.923	-1.087	-1.023
-60.319	60.069	0.399	0.386
-59.305	780.560	-0.289	-0.773
-58.290	298.701	0.724	1.304
-57.276	291.624	0.901	1.606
-56.261	-200.000	115.109	647.513
-55.246	466.102	1511.798	3314.821
-54.232	146.900	2676.535	3523.657
-53.217	102.853	2151.667	2466.478
-52.203	38.564	1597.678	1394.977
-51.188	30.459	1343.000	1123.774
-50.173	27.618	1305.092	1075.285
-49.159	54.897	1360.903	1286.095
-48.144	53.334	1375.456	1290.423
-47.130	30.833	1330.378	1115.279
-46.115	27.480	1312.800	1080.642
-45.100	27.239	1307.733	1075.005
-44.086	27.112	1305.794	1072.620
-43.071	27.115	1302.800	1070.136
-42.057	27.155	1300.958	1068.815
-41.042	27.138	1299.473	1067.452
-40.027	27.074	1297.951	1065.781
-39.013	27.074	1296.001	1064.143
-37.998	27.180	1294.205	1063.243
-36.984	27.293	1292.132	1062.158
-35.969	27.163	1290.775	1060.245
-34.954	27.365	1288.420	1059.443
-33.940	27.231	1287.729	1058.054
-32.925	27.281	1286.280	1057.112
-31.911	27.367	1284.130	1055.800
-30.896	27.299	1283.252	1054.644
-29.881	27.292	1281.920	1053.463
-28.867	27.393	1280.201	1052.594
-27.852	27.335	1279.405	1051.561
-26.838	27.301	1277.685	1049.912
-25.823	27.340	1276.267	1048.928
-24.809	27.332	1274.713	1047.566
-23.794	27.356	1273.580	1046.731
-22.779	27.247	1272.393	1045.088
-21.765	27.320	1271.288	1044.558
-20.750	27.355	1270.052	1043.703
-19.736	27.299	1268.653	1042.189
-18.721	27.234	1267.853	1041.118
-17.706	27.280	1266.044	1039.853
-16.692	27.280	1265.276	1039.182
-15.677	27.297	1264.166	1038.325
-14.663	27.291	1262.812	1037.136
-13.648	27.243	1261.824	1036.010
-12.633	27.132	1260.656	1034.383
-11.619	27.157	1260.330	1034.215
-10.604	27.233	1259.234	1033.704
-9.590	27.106	1258.779	1032.567
-8.575	27.156	1257.451	1031.722
-7.560	27.227	1256.325	1031.164
-6.546	27.116	1256.053	1030.270
-5.531	27.158	1254.820	1029.454
-4.517	27.107	1254.111	1028.544
-3.502	27.150	1253.323	1028.101
-2.487	27.225	1251.755	1027.197
-1.473	27.143	1247.876	1023.508
-0.458	25.643	1232.816	1002.764
0.556	20.684	1216.494	965.031
1.571	17.214	1222.696	950.488
2.586	16.444	1237.628	957.649
3.600	16.614	1226.472	949.883
4.615	15.349	1160.684	892.131
5.629	12.470	1094.578	826.783
6.644	10.850	1078.463	806.510
7.659	10.825	1076.136	804.571
8.673	10.891	1074.516	803.615
9.688	10.844	1073.159	802.300
10.702	11.012	1071.046	801.474
11.717	12.711	1072.485	810.855
12.731	15.673	1076.260	828.251
13.746	17.577	1078.455	839.255
14.761	17.668	1077.876	839.177
15.775	16.648	1076.230	832.809
16.790	15.710	1073.790	826.237
17.804	14.895	1072.615	821.261
18.819	14.451	1070.722	817.559
19.834	14.220	1070.124	815.897
20.848	13.962	1069.336	813.962
21.863	13.711	1068.526	812.046
22.877	13.640	1067.715	811.010
23.892	13.702	1067.134	810.797
24.907	13.642	1066.182	809.712
25.921	13.590	1065.338	808.747
26.936	13.668	1063.855	807.928
27.950	13.634	1062.639	806.765
28.965	13.663	1061.066	805.644
29.980	13.773	1059.520	804.931
30.994	13.818	1058.401	804.228
32.009	13.962	1056.975	803.768
33.023	13.922	1056.352	803.034
34.038	13.758	1055.228	801.315
35.053	13.793	1054.195	800.626
36.067	13.590	1053.673	799.181
37.082	13.819	1052.604	799.402
38.096	13.907	1051.438	798.868
39.111	13.774	1051.155	797.944
40.126	13.619	1049.970	796.231
41.140	13.519	1048.918	794.884
42.155	13.454	1047.932	793.752
43.169	13.590	1046.187	793.011
44.184	13.615	1045.404	792.467
45.199	13.578	1044.375	791.440
46.213	13.592	1043.229	790.571
47.228	13.770	1042.163	790.541
48.242	13.623	1041.401	789.193
49.257	13.661	1040.313	788.477
50.271	13.661	1039.472	787.769
51.286	13.676	1038.888	787.329
52.301	13.690	1037.474	786.256
53.315	13.648	1036.538	785.277
54.330	13.646	1035.848	784.674
55.344	13.495	1034.953	783.213
56.359	13.613	1033.584	782.664
57.374	13.542	1032.797	781.663
58.388	13.504	1031.599	780.511
59.403	13.445	1031.282	779.923
60.417	13.522	1030.057	779.290
61.432	13.479	1029.028	778.240
62.447	13.537	1028.143	777.776
63.461	13.452	1027.541	776.854
64.476	13.221	1026.956	775.256
65.490	13.360	1025.955	775.083
66.505	13.649	1024.987	775.637
67.520	13.617	1024.305	774.903
68.534	13.496	1023.640	773.765
69.549	13.583	1022.657	773.360
70.563	13.443	1022.266	772.342
71.578	13.448	1021.346	771.602
72.593	13.409	1020.633	770.817
73.607	13.468	1019.738	770.346
74.622	13.330	1019.348	769.339
75.636	13.369	1018.742	768.996
76.651	13.425	1018.056	768.670
77.666	13.401	1017.393	767.990
78.680	13.462	1016.548	767.566
79.695	13.442	1015.983	766.979
80.709	13.442	1015.526	766.566
81.724	13.607	1015.042	766.897
82.739	13.561	1014.278	766.039
83.753	13.624	1013.368	765.574
84.768	13.725	1012.164	765.065
85.782	13.802	1011.708	765.008
86.797	13.773	1010.932	764.221
87.812	13.654	1009.923	762.841
88.826	13.798	1008.160	762.104
89.841	13.722	1007.924	761.509
90.855	13.693	1007.309	760.843
91.870	13.925	1005.881	760.761
92.884	13.811	1004.926	759.449
93.899	13.844	1004.117	758.920
94.914	13.901	1003.731	758.825
95.928	13.925	1002.920	758.251
96.943	13.830	1001.687	756.821
97.957	13.856	1000.721	756.140
98.972	13.686	1000.467	755.107
99.987	13.799	999.177	754.583
101.001	13.790	998.198	753.734
102.016	13.801	997.443	753.148
103.030	13.889	996.474	752.751
104.045	13.875	995.891	752.181
105.060	13.801	995.036	751.132
106.074	13.645	994.115	749.663
107.089	13.741	992.621	748.904
108.103	13.572	992.174	747.741
109.118	13.649	991.398	747.434
110.133	13.572	990.305	746.200
111.147	13.636	989.275	745.646
112.162	13.676	988.262	744.993
113.176	13.777	987.699	744.957
114.191	13.759	986.696	744.055
115.206	13.629	986.217	743.045
116.220	13.631	985.655	742.565
117.235	13.688	984.161	741.629
118.249	13.681	983.584	741.097
119.264	13.714	982.511	740.370
120.279	13.498	982.362	739.226
121.293	13.636	980.902	738.680
122.308	13.485	980.651	737.753
123.322	13.513	979.289	736.785
124.337	13.622	978.055	736.277
125.352	13.556	977.109	735.205
126.366	13.601	976.439	734.835
127.381	13.463	975.537	733.480
128.395	13.450	974.570	732.633
129.410	13.623	973.559	732.573
130.424	13.750	972.441	732.225
131.439	13.660	971.989	731.426
132.454	13.718	971.405	731.177
133.468	13.624	970.662	730.136
134.483	13.665	969.673	729.512
135.497	13.735	969.127	729.341
136.512	13.802	967.436	728.301
137.527	13.782	966.648	727.554
138.541	13.737	966.406	727.110
139.556	13.542	966.227	726.058
140.570	13.859	965.003	726.458
141.585	13.999	964.104	726.332
142.600	13.980	963.063	725.398
143.614	13.847	962.478	724.313
144.629	13.872	961.995	723.997
145.643	13.985	960.684	723.436
146.658	13.900	959.706	722.267
147.673	13.896	958.535	721.304
148.687	13.797	957.428	719.978
149.702	13.770	957.076	719.533
150.716	13.893	956.297	719.416
151.731	13.771	955.747	718.412
152.746	13.802	955.144	718.026
153.760	13.909	954.247	717.752
154.775	13.906	953.944	717.449
155.789	13.954	952.924	716.825
156.804	14.133	952.163	716.958
157.819	14.036	951.820	716.219
158.833	14.065	950.815	715.525
159.848	14.186	949.861	715.263
160.862	14.023	948.901	713.779
161.877	13.953	947.784	712.576
162.892	13.966	947.066	712.029
163.906	13.990	946.089	711.333
164.921	13.846	945.752	710.402
165.935	14.079	944.321	710.260
166.950	13.959	943.577	709.126
167.964	13.924	942.994	708.474
168.979	13.949	942.213	707.931
169.994	13.907	941.282	706.990
171.008	14.091	940.615	707.209
172.023	14.095	939.635	706.427
173.037	14.127	939.288	706.241
174.052	14.065	938.300	705.171
175.067	14.034	938.150	704.863
176.081	13.940	937.764	704.112
177.096	14.033	936.751	703.684
178.110	14.142	935.835	703.395
179.125	14.075	935.356	702.691
180.140	14.090	934.997	702.419
181.154	14.254	934.443	702.634
182.169	14.205	933.754	701.847
183.183	14.331	933.063	701.799
184.198	14.256	932.335	700.873
185.213	14.097	932.202	700.041
186.227	14.364	931.144	700.308
187.242	14.382	930.592	699.905
188.256	14.444	930.094	699.730
189.271	14.317	929.144	698.422
190.286	14.207	928.245	697.221
191.300	14.059	927.571	696.034
192.315	13.934	927.416	695.335
193.329	14.102	926.475	695.268
194.344	14.192	925.978	695.209
195.359	14.314	925.183	695.060
196.373	14.254	924.867	694.512
197.388	14.433	924.139	694.648
198.402	14.371	923.963	694.200
199.417	14.398	923.487	693.890
200.432	14.503	922.703	693.676
201.446	14.598	922.425	693.801
202.461	14.617	921.540	693.153
203.475	14.646	920.971	692.785
204.490	14.559	919.899	691.556
205.504	14.428	919.521	690.668
206.519	14.398	918.908	690.022
207.534	14.392	918.003	689.257
208.548	14.554	917.252	689.301
209.563	14.399	917.027	688.430
210.577	14.449	916.232	687.981
211.592	14.547	915.798	687.995
212.607	14.614	914.613	687.321
213.621	14.717	913.703	687.000
214.636	14.738	913.177	686.631
215.650	14.598	912.696	685.634
216.665	14.713	912.264	685.721
217.680	14.703	911.600	685.121
218.694	14.819	910.459	684.676
219.709	14.822	909.701	684.059
220.723	14.789	909.247	683.523
221.738	14.760	908.701	682.934
222.753	14.642	907.885	681.775
223.767	14.824	907.396	682.091
224.782	15.021	906.803	682.387
225.796	14.901	906.372	681.518
226.811	14.966	905.465	681.038
227.826	14.952	904.856	680.461
228.840	14.911	904.039	679.620
229.855	14.960	903.513	679.363
230.869	14.803	902.799	678.132
231.884	14.750	902.010	677.261
232.899	14.937	900.816	677.066
233.913	14.744	900.491	675.977
234.928	14.810	899.842	675.700
235.942	14.973	899.130	675.763
236.957	14.748	898.681	674.458
237.972	14.740	898.231	674.027
238.986	14.799	897.525	673.675
240.001	14.808	896.940	673.214
241.015	14.892	896.362	673.057
242.030	14.910	895.674	672.554
243.045	14.864	895.281	672.015
244.059	14.852	894.988	671.688
245.074	14.930	894.023	671.215
246.088	14.892	893.424	670.553
247.103	15.178	892.302	670.800
248.117	15.162	892.178	670.581
249.132	15.272	891.372	670.356
250.147	15.093	891.116	669.389
251.161	15.299	889.929	669.263
252.176	15.357	889.414	669.045
253.190	15.456	888.773	668.900
254.205	15.409	888.186	668.210
255.220	15.325	887.331	667.176
256.234	15.355	886.841	666.864
257.249	15.437	886.195	666.647
258.263	15.394	885.614	665.980
259.278	15.264	885.105	665.023
260.293	15.453	884.497	665.258
261.307	15.560	883.261	664.690
262.322	15.538	882.903	664.276
263.336	15.636	882.035	663.950
264.351	15.619	881.351	663.310
265.366	15.753	880.463	663.112
266.380	15.639	880.445	662.589
267.395	15.663	879.983	662.278
268.409	15.553	879.026	661.066
269.424	15.582	878.073	660.407
270.439	15.637	877.579	660.191
271.453	15.533	876.981	659.275
272.468	15.573	876.523	659.029
273.482	15.485	876.050	658.270
274.497	15.598	875.590	658.308
275.512	15.689	874.672	657.918
276.526	15.548	874.055	656.845
277.541	15.550	873.679	656.510
278.555	15.701	873.077	656.590
279.570	15.819	872.409	656.490
280.585	15.907	871.345	655.974
281.599	15.755	870.825	654.934
282.614	15.779	870.164	654.472
283.628	15.776	869.800	654.129
284.643	15.715	869.286	653.447
285.657	15.750	868.702	653.084
286.672	15.923	867.936	653.121
287.687	15.682	867.253	651.615
288.701	15.904	866.653	651.967
289.716	15.877	866.035	651.342
290.730	15.864	865.589	650.898
291.745	15.919	865.006	650.614
292.760	15.873	864.443	649.957
293.774	16.046	863.911	650.166
294.789	16.052	862.845	649.331
295.803	15.846	862.572	648.273
296.818	15.883	861.711	647.712
297.833	15.913	861.158	647.354
298.847	15.814	860.732	646.593
299.862	16.016	859.932	646.710
300.876	15.891	859.631	645.947
301.891	16.146	858.468	645.994
302.906	16.120	858.727	646.032
303.920	16.023	857.974	645.037
304.935	16.184	857.433	645.189
305.949	16.255	856.573	644.756
306.964	16.122	856.019	643.775
307.979	16.315	855.106	643.766
308.993	16.349	854.701	643.537
310.008	16.437	853.958	643.254
311.022	16.287	853.749	642.469
312.037	16.090	853.455	641.442
313.052	16.300	852.331	641.336
314.066	16.192	852.049	640.659
315.081	16.281	851.441	640.484
316.095	16.132	850.751	639.340
317.110	16.037	850.209	638.516
318.125	16.218	849.681	638.749
319.139	16.171	849.127	638.098
320.154	16.218	848.547	637.784
321.168	16.356	847.951	637.801
322.183	16.278	847.397	637.033
323.197	16.324	846.691	636.621
324.212	16.216	846.754	636.204
325.227	16.259	846.047	635.780
326.241	16.354	845.047	635.330
327.256	16.095	844.898	634.187
328.270	16.164	844.819	634.329
329.285	16.157	843.877	633.540
330.300	16.168	843.156	632.986
331.314	16.316	842.207	632.772
332.329	16.452	841.929	633.016
333.343	16.348	842.205	632.777
334.358	16.554	841.287	632.801
335.373	16.461	840.898	632.104
336.387	16.462	840.701	631.906
337.402	16.474	840.677	631.876
338.416	16.644	840.386	632.237
339.431	16.709	839.872	632.036
340.446	16.612	839.485	631.327
341.460	16.726	838.559	631.002
342.475	16.650	838.028	630.260
343.489	16.744	837.943	630.491
344.504	16.725	837.434	629.981
345.519	17.012	836.527	630.310
346.533	16.833	836.373	629.474
347.548	16.850	835.473	628.805
348.562	16.670	835.192	627.871
349.577	16.655	834.529	627.260
350.592	16.649	834.029	626.805
351.606	16.580	833.533	626.123
352.621	16.709	832.787	625.982
353.635	16.706	832.157	625.442
354.650	16.834	831.410	625.298
355.665	16.673	830.721	624.133
356.679	16.824	830.204	624.245
357.694	16.979	829.298	624.080
358.708	16.877	828.763	623.247
359.723	16.877	828.287	622.831
360.738	16.687	828.152	621.977
361.752	16.948	827.056	622.057
362.767	16.999	826.880	622.056
363.781	17.042	826.282	621.711
364.796	17.123	825.572	621.416
365.810	17.061	825.646	621.189
366.825	17.066	825.264	620.866
367.840	17.102	824.278	620.200
368.854	17.176	823.832	620.083
369.869	17.153	823.517	619.705
370.883	17.194	823.371	619.690
371.898	17.137	822.917	619.087
372.913	17.186	822.541	618.926
373.927	17.217	821.896	618.500
374.942	17.195	821.541	618.099
375.956	17.313	820.954	618.029
376.971	17.305	820.491	617.599
377.986	17.316	820.156	617.331
379.000	17.251	819.871	616.827
380.015	17.306	819.281	616.528
381.029	17.343	818.574	616.073
382.044	17.376	818.069	615.758
383.059	17.501	817.348	615.612
384.073	17.490	816.543	614.912
385.088	17.281	816.192	613.840
386.102	17.336	815.715	613.625
387.117	17.375	815.040	613.205
388.132	17.338	814.325	612.477
389.146	17.265	814.083	611.978
390.161	17.330	813.977	612.078
391.175	17.510	812.993	611.934
392.190	17.464	812.401	611.269
393.205	17.466	812.033	610.944
394.219	17.404	811.922	610.583
395.234	17.441	811.448	610.306
396.248	17.245	811.327	609.459
397.263	17.361	810.432	609.147
398.278	17.360	809.926	608.710
399.292	17.260	809.777	608.185
400.307	17.358	809.376	608.181
401.321	17.268	809.235	607.700
402.336	17.446	808.345	607.613
403.350	17.403	807.634	606.873
404.365	17.516	807.496	607.117
405.380	17.620	806.924	607.005
406.394	17.690	806.361	606.775
407.409	17.754	805.860	606.573
408.423	17.706	805.673	606.209
409.438	17.814	805.139	606.137
410.453	17.689	804.986	605.524
411.467	17.912	804.097	605.592
412.482	17.723	804.120	604.885
413.496	17.868	803.735	605.057
414.511	17.855	803.213	604.563
415.526	17.814	803.049	604.241
416.540	17.944	802.199	604.009
417.555	17.997	801.687	603.756
418.569	17.943	801.250	603.182
419.584	18.076	800.953	603.376
420.599	18.036	800.676	602.972
421.613	111.716	1294.628	1476.024
422.628	96.261	1366.576	1476.105
