DTS Sentinel unit serial number:	SN413079Multiplexer serial number:	ORYXHardware model number:	OX4-SRSoftware version number:	ORYX F/W v4.00 Oryx Data Collector v3.7.2.0data status	okinstallation	princeton_trtdifferential loss correction	single-endedforward channel	channel 1reverse channel	N/Adate	2019/09/17time	02:14:35forward acquisition time	60.00reverse acquisition time	0.00gamma	496.2192k internal	0.2324k external	0.2324temperature offset calibration	0.9955default loss term (dB/km)	0.3790temperature slope calibration	1.0000multiplexer offset coefficient	1.0000multiplexer slope coefficient	1.0000fibre end	0.00T internal ref (°C)	29.73T ext. ref 1 (°C)	0.12T ext. ref 2 (°C)	24.68length (m)	temperature (°C)	Stokes	anti-Stokes-747.200	-101.023	-0.145	0.036
-746.185	-200.000	-0.038	0.303
-745.171	142.755	-0.120	-0.160
-744.156	-200.000	0.067	0.503
-743.142	156.401	-0.143	-0.199
-742.127	249.228	-0.169	0.289
-741.112	210.917	0.126	-0.200
-740.098	-200.000	-0.032	0.200
-739.083	800.000	0.047	0.150
-738.069	-200.000	0.013	0.308
-737.054	-163.835	-0.027	0.001
-736.039	-21.360	-0.277	-0.170
-735.025	-46.140	0.468	0.233
-734.010	-94.906	-0.289	0.079
-732.996	124.738	0.113	0.144
-731.981	3.409	-0.197	0.145
-730.966	-129.393	0.240	-0.034
-729.952	800.000	0.027	0.089
-728.937	800.000	-0.109	-0.439
-727.923	-200.000	0.034	-0.175
-726.908	-14.383	-0.120	-0.078
-725.894	338.002	0.052	0.101
-724.879	-153.241	-0.138	0.010
-723.864	723.471	0.152	-0.409
-722.850	800.000	-0.078	-0.231
-721.835	63.323	-0.393	0.397
-720.821	800.000	0.030	0.124
-719.806	-4.741	-0.284	-0.198
-718.791	-136.456	-0.368	-0.043
-717.777	-200.000	0.006	0.205
-716.762	409.437	-0.053	-0.114
-715.748	-200.000	0.023	0.107
-714.733	-42.560	0.057	0.029
-713.718	-165.034	-0.174	0.008
-712.704	-140.468	0.102	-0.011
-711.689	148.213	-0.285	-0.388
-710.675	-200.000	-0.031	-0.215
-709.660	-72.293	0.130	-0.049
-708.645	-143.245	0.116	0.011
-707.631	-200.000	-0.005	-0.271
-706.616	-137.612	-0.227	0.026
-705.602	69.329	-0.059	-0.061
-704.587	-87.291	-0.176	0.054
-703.572	-35.452	-0.037	0.020
-702.558	76.114	-0.319	-0.340
-701.543	-104.909	0.332	0.077
-700.529	-141.156	-0.208	-0.021
-699.514	149.505	0.207	-0.282
-698.499	117.701	-0.066	0.082
-697.485	-59.402	0.543	-0.235
-696.470	-149.258	0.132	-0.011
-695.456	-10.522	-0.329	0.220
-694.441	179.289	-0.024	-0.035
-693.426	-47.724	-0.045	-0.022
-692.412	-98.636	-0.214	-0.055
-691.397	84.068	-0.183	-0.201
-690.383	175.967	-0.096	0.141
-689.368	4.334	-0.058	0.043
-688.354	-200.000	-0.024	-0.173
-687.339	-11.499	0.184	0.122
-686.324	800.000	0.110	-0.424
-685.310	-92.755	-0.207	0.058
-684.295	-112.615	-0.010	0.002
-683.281	209.275	-0.124	-0.196
-682.266	800.000	-0.036	-0.159
-681.251	-72.944	-0.225	0.083
-680.237	-87.901	-0.008	-0.002
-679.222	-4.984	0.132	0.091
-678.208	440.063	-0.164	0.362
-677.193	-108.924	-0.245	0.053
-676.178	-200.000	-0.013	0.120
-675.164	60.408	0.116	0.115
-674.149	-200.000	-0.024	0.238
-673.135	300.445	0.142	-0.265
-672.120	340.215	-0.101	-0.198
-671.105	800.000	0.107	0.307
-670.091	-112.875	-0.057	-0.011
-669.076	800.000	-0.097	-0.310
-668.062	800.000	-0.027	-0.118
-667.047	4.072	-0.308	0.227
-666.032	800.000	-0.049	-0.166
-665.018	800.000	0.070	-0.265
-664.003	19.675	-0.098	-0.080
-662.989	-200.000	0.052	-0.423
-661.974	-200.000	-0.003	0.205
-660.959	490.038	0.108	0.249
-659.945	800.000	0.040	0.119
-658.930	46.156	-0.280	-0.261
-657.916	-170.572	0.180	-0.006
-656.901	752.608	0.081	0.220
-655.886	-200.000	-0.012	0.186
-654.872	113.998	0.178	0.217
-653.857	70.445	-0.130	-0.136
-652.843	-113.898	-0.269	0.053
-651.828	-68.681	0.321	0.125
-650.814	-9.793	-0.079	-0.053
-649.799	409.146	0.024	0.052
-648.784	70.383	-0.273	-0.284
-647.770	219.914	-0.081	0.130
-646.755	-200.000	0.059	0.294
-645.741	-82.370	0.117	-0.038
-644.726	800.000	0.092	-0.402
-643.711	-76.162	-0.297	-0.105
-642.697	87.721	-0.140	-0.156
-641.682	-76.641	0.110	0.039
-640.668	23.637	-0.097	-0.080
-639.653	800.000	-0.025	-0.089
-638.638	246.284	-0.079	-0.134
-637.624	-15.963	-0.056	0.036
-636.609	800.000	-0.111	0.317
-635.595	-187.122	0.189	0.003
-634.580	-61.553	-0.323	0.136
-633.565	-37.255	-0.039	-0.021
-632.551	39.852	-0.614	0.554
-631.536	92.875	-0.217	-0.247
-630.522	129.977	0.068	-0.087
-629.507	206.368	0.050	-0.078
-628.492	-200.000	-0.023	0.256
-627.478	-200.000	0.020	-0.344
-626.463	408.083	0.143	0.305
-625.449	-19.454	0.121	-0.075
-624.434	-111.895	-0.381	-0.077
-623.419	-200.000	-0.006	-0.319
-622.405	-200.000	-0.038	-0.194
-621.390	242.573	-0.106	-0.178
-620.376	-73.862	0.337	0.123
-619.361	-9.087	-0.184	-0.124
-618.346	-34.871	-0.278	-0.153
-617.332	255.847	0.233	-0.401
-616.317	-12.634	-0.384	-0.251
-615.303	-62.875	-0.330	-0.137
-614.288	320.006	-0.084	0.159
-613.273	800.000	-0.073	0.290
-612.259	669.255	-0.033	-0.086
-611.244	-157.926	0.164	0.010
-610.230	-37.423	-0.261	-0.140
-609.215	-200.000	0.017	0.114
-608.201	-91.959	0.171	-0.049
-607.186	-142.888	0.068	0.007
-606.171	-103.232	0.249	-0.059
-605.157	-109.673	-0.073	0.016
-604.142	-200.000	0.016	-0.143
-603.128	-7.457	0.189	-0.128
-602.113	15.660	0.227	0.179
-601.098	133.920	0.081	0.105
-600.084	-103.462	0.223	-0.053
-599.069	-14.790	0.264	-0.170
-598.055	-200.000	-0.027	-0.406
-597.040	-112.742	0.153	0.030
-596.025	-29.559	-0.267	-0.153
-595.011	800.000	-0.054	-0.161
-593.996	17.746	0.137	0.109
-592.982	-186.496	-0.099	0.001
-591.967	800.000	-0.025	0.096
-590.952	-160.841	-0.057	-0.003
-589.938	773.393	-0.088	-0.241
-588.923	-48.887	0.221	0.106
-587.909	60.072	0.137	0.136
-586.894	800.000	0.056	0.186
-585.879	283.161	0.144	-0.259
-584.865	800.000	-0.034	0.125
-583.850	-106.740	0.131	0.029
-582.836	472.054	-0.067	-0.151
-581.821	-200.000	-0.003	-0.032
-580.806	-200.000	-0.009	0.053
-579.792	90.243	0.127	0.143
-578.777	800.000	-0.057	0.188
-577.763	204.186	-0.187	0.291
-576.748	43.542	0.224	0.205
-575.733	-200.000	-0.095	-0.421
-574.719	-165.934	-0.472	0.020
-573.704	192.506	0.134	-0.203
-572.690	-200.000	-0.014	-0.105
-571.675	-82.315	0.303	0.099
-570.661	-105.480	-0.236	-0.054
-569.646	-180.403	-0.147	0.003
-568.631	-200.000	-0.004	0.182
-567.617	-10.650	-0.189	0.125
-566.602	458.384	0.070	-0.156
-565.588	-53.201	-0.075	0.035
-564.573	770.360	-0.083	-0.226
-563.558	5.262	-0.150	-0.111
-562.544	-0.954	-0.107	0.076
-561.529	347.300	-0.164	-0.324
-560.515	-173.977	-0.113	-0.003
-559.500	-200.000	-0.011	0.211
-558.485	262.609	0.110	0.192
-557.471	149.814	0.298	-0.405
-556.456	-200.000	-0.038	-0.267
-555.442	-164.862	-0.305	-0.014
-554.427	-200.000	0.009	0.080
-553.412	800.000	-0.047	0.155
-552.398	-122.662	0.232	0.038
-551.383	17.290	-0.079	-0.063
-550.369	-5.215	0.135	0.093
-549.354	161.365	0.073	-0.102
-548.339	-154.508	0.174	-0.012
-547.325	526.446	-0.032	0.075
-546.310	-191.674	-0.082	0.001
-545.296	243.411	0.271	0.456
-544.281	155.473	-0.082	0.113
-543.266	26.379	0.121	0.101
-542.252	-11.724	0.113	0.074
-541.237	-53.486	0.202	-0.093
-540.223	446.953	0.118	-0.260
-539.208	-21.475	0.348	0.213
-538.193	79.175	0.158	-0.170
-537.179	-33.394	0.087	-0.048
-536.164	-124.470	0.526	-0.082
-535.150	705.206	0.073	-0.192
-534.135	47.788	-0.107	0.100
-533.121	507.378	0.117	0.272
-532.106	1.808	-0.255	-0.184
-531.091	-138.672	-0.159	0.017
-530.077	175.041	0.206	-0.299
-529.062	-113.942	-0.265	-0.051
-528.048	186.602	-0.096	-0.143
-527.033	-164.738	0.287	-0.013
-526.018	-119.481	0.125	-0.022
-525.004	-200.000	0.030	-0.259
-523.989	-57.866	-0.328	-0.144
-522.975	19.435	0.389	-0.313
-521.960	-0.758	0.062	-0.044
-520.945	252.851	0.062	-0.106
-519.931	-200.000	-0.001	0.195
-518.916	-200.000	0.001	0.140
-517.902	76.712	0.403	-0.427
-516.887	-41.933	0.374	0.192
-515.872	237.590	0.023	0.038
-514.858	-147.411	-0.141	0.012
-513.843	-148.019	-0.297	-0.025
-512.829	17.804	-0.327	0.260
-511.814	-177.115	-0.211	0.005
-510.799	-82.715	-0.013	-0.004
-509.785	-200.000	0.013	-0.212
-508.770	-200.000	-0.014	-0.072
-507.756	-29.598	-0.202	0.116
-506.741	470.045	0.038	-0.084
-505.726	-9.651	0.322	-0.215
-504.712	800.000	0.007	-0.027
-503.697	-200.000	-0.003	0.113
-502.683	2.933	-0.338	0.245
-501.668	-200.000	0.032	0.269
-500.653	-4.788	-0.129	-0.089
-499.639	-70.478	0.345	0.131
-498.624	-162.353	-0.062	0.003
-497.610	-131.932	-0.341	-0.044
-496.595	-109.672	-0.446	-0.094
-495.581	800.000	-0.036	-0.113
-494.566	-115.361	-0.172	0.032
-493.551	88.656	-0.260	0.289
-492.537	782.456	-0.172	0.471
-491.522	-57.000	-0.129	0.057
-490.508	-200.000	0.030	0.139
-489.493	-32.638	0.123	-0.068
-488.478	800.000	-0.019	-0.077
-487.464	49.063	-0.196	-0.184
-486.449	27.514	0.189	-0.159
-485.435	256.660	0.108	-0.186
-484.420	57.860	0.226	0.221
-483.405	-94.261	-0.084	0.023
-482.391	28.399	0.292	-0.247
-481.376	-98.544	-0.319	-0.081
-480.362	119.373	0.078	0.096
-479.347	261.623	0.043	0.074
-478.332	-200.000	-0.008	-0.044
-477.318	-159.728	0.182	-0.010
-476.303	493.935	-0.169	-0.388
-475.289	145.257	-0.150	0.200
-474.274	49.421	-0.131	0.123
-473.259	29.328	-0.216	0.184
-472.245	107.656	0.155	-0.184
-471.230	59.894	0.273	-0.269
-470.216	-21.939	-0.281	-0.171
-469.201	189.195	-0.174	0.260
-468.186	-134.526	0.195	-0.024
-467.172	8.335	0.179	-0.134
-466.157	-200.000	0.053	0.265
-465.143	186.888	-0.123	0.183
-464.128	-65.506	-0.197	-0.079
-463.113	299.248	0.055	0.101
-462.099	385.732	0.104	0.214
-461.084	765.591	-0.108	0.293
-460.070	-200.000	0.002	0.131
-459.055	156.909	-0.096	-0.132
-458.040	-99.204	-0.460	-0.116
-457.026	91.293	-0.113	0.127
-456.011	149.982	0.218	-0.295
-454.997	-4.021	0.118	0.082
-453.982	141.771	-0.078	0.103
-452.968	-37.573	0.142	-0.075
-451.953	-200.000	-0.022	-0.120
-450.938	-92.715	-0.397	0.111
-449.924	-200.000	0.002	-0.012
-448.909	-200.000	0.029	0.315
-447.895	41.785	-0.062	0.056
-446.880	-73.144	0.012	-0.004
-445.865	-200.000	-0.017	-0.118
-444.851	-200.000	0.057	-0.281
-443.836	-19.402	-0.304	-0.188
-442.822	91.707	0.160	-0.180
-441.807	-81.978	0.419	0.137
-440.792	398.432	-0.136	-0.285
-439.778	-195.321	0.107	-0.001
-438.763	800.000	-0.122	-0.474
-437.749	-200.000	0.085	-0.392
-436.734	-117.439	-0.135	0.024
-435.719	-116.107	0.186	0.035
-434.705	229.894	0.097	-0.158
-433.690	800.000	0.045	-0.137
-432.676	-145.418	0.498	0.045
-431.661	-200.000	0.032	0.271
-430.646	-68.864	0.170	-0.066
-429.632	170.195	-0.122	-0.174
-428.617	-200.000	0.022	-0.236
-427.603	800.000	0.044	-0.136
-426.588	-45.470	-0.093	0.046
-425.573	800.000	0.064	0.241
-424.559	-200.000	0.060	0.273
-423.544	-57.774	0.190	0.083
-422.530	-200.000	0.010	0.435
-421.515	-95.252	0.111	0.030
-420.500	18.886	-0.164	0.131
-419.486	-200.000	-0.019	-0.218
-418.471	-110.528	0.154	0.032
-417.457	-57.526	-0.341	-0.149
-416.442	800.000	0.016	0.056
-415.428	65.271	0.159	0.160
-414.413	-51.942	0.342	-0.158
-413.398	-120.623	-0.334	0.056
-412.384	800.000	0.145	-0.473
-411.369	-200.000	-0.054	0.320
-410.355	-118.749	0.055	0.010
-409.340	-75.370	0.155	0.055
-408.325	-53.916	-0.104	0.047
-407.311	-126.036	-0.233	-0.035
-406.296	-200.000	-0.002	0.018
-405.282	108.458	0.049	-0.059
-404.267	87.162	0.190	-0.210
-403.252	85.477	0.256	-0.280
-402.238	-8.454	0.213	0.143
-401.223	-59.484	-0.052	0.022
-400.209	238.493	0.154	-0.255
-399.194	-103.169	0.151	-0.036
-398.179	-80.066	-0.086	0.029
-397.165	398.206	0.129	0.269
-396.150	555.707	0.106	0.254
-395.136	1.707	-0.262	-0.188
-394.121	-163.270	-0.145	-0.007
-393.106	800.000	-0.110	0.310
-392.092	124.796	-0.060	0.075
-391.077	39.172	-0.046	0.041
-390.063	467.143	0.033	0.073
-389.048	-200.000	0.042	-0.219
-388.033	-73.603	-0.322	0.117
-387.019	-200.000	-0.018	-0.199
-386.004	800.000	-0.126	-0.397
-384.990	504.485	0.121	0.279
-383.975	517.664	0.135	0.314
-382.960	800.000	0.119	0.333
-381.946	-43.871	0.312	-0.156
-380.931	-200.000	-0.041	-0.246
-379.917	180.827	0.162	-0.237
-378.902	800.000	-0.026	0.090
-377.888	-100.713	-0.067	-0.017
-376.873	-44.483	0.188	-0.094
-375.858	-200.000	0.002	-0.119
-374.844	-169.300	-0.120	0.004
-373.829	-200.000	-0.010	-0.073
-372.815	-200.000	-0.023	0.242
-371.800	-93.135	-0.168	0.047
-370.785	-73.085	-0.129	-0.047
-369.771	139.922	-0.136	0.179
-368.756	441.461	0.114	-0.248
-367.742	15.442	-0.047	0.036
-366.727	19.762	0.185	0.148
-365.712	177.348	0.166	-0.240
-364.698	-0.627	-0.193	-0.136
-363.683	97.597	-0.080	-0.091
-362.669	-101.422	-0.405	0.098
-361.654	-24.442	-0.195	-0.116
-360.639	-100.119	-0.049	-0.012
-359.625	-200.000	-0.019	0.166
-358.610	-139.443	-0.227	0.024
-357.596	131.005	0.213	0.272
-356.581	-112.353	-0.239	-0.048
-355.566	-107.303	0.073	-0.016
-354.552	561.807	-0.011	-0.027
-353.537	143.329	-0.075	-0.099
-352.523	-200.000	0.023	-0.116
-351.508	-2.948	-0.337	-0.234
-350.493	-96.466	0.136	-0.036
-349.479	-124.968	0.108	-0.017
-348.464	-17.738	0.116	-0.072
-347.450	-1.550	-0.104	-0.073
-346.435	-78.518	0.270	0.092
-345.420	-169.273	0.039	0.001
-344.406	-200.000	-0.006	0.083
-343.391	-176.027	0.302	0.008
-342.377	251.128	0.167	-0.282
-341.362	-200.000	0.068	0.341
-340.348	325.169	-0.109	0.207
-339.333	-115.013	0.096	-0.018
-338.318	-195.548	0.436	-0.003
-337.304	80.484	-0.280	0.299
-336.289	30.596	-0.076	-0.065
-335.275	132.787	-0.035	0.045
-334.260	126.153	-0.084	-0.105
-333.245	95.306	0.144	0.163
-332.231	499.807	0.036	0.083
-331.216	87.924	-0.296	0.326
-330.202	-79.962	0.112	0.037
-329.187	800.000	0.022	0.085
-328.172	-92.492	0.193	-0.054
-327.158	-120.545	-0.370	0.062
-326.143	-200.000	-0.024	-0.125
-325.129	-200.000	0.014	-0.278
-324.114	-22.350	0.199	-0.120
-323.099	81.791	-0.103	0.111
-322.085	-69.983	0.292	-0.111
-321.070	-2.455	-0.142	-0.099
-320.056	311.527	0.052	-0.097
-319.041	-125.964	-0.344	0.051
-318.026	-166.099	-0.131	-0.006
-317.012	800.000	-0.060	-0.246
-315.997	800.000	-0.100	-0.428
-314.983	753.947	0.077	-0.208
-313.968	-200.000	0.046	-0.215
-312.953	-200.000	0.015	-0.331
-311.939	256.367	-0.130	-0.222
-310.924	-200.000	0.003	0.081
-309.910	-200.000	0.093	0.488
-308.895	-8.338	0.222	0.148
-307.880	1.733	-0.162	0.116
-306.866	800.000	0.103	-0.300
-305.851	-154.303	0.321	-0.021
-304.837	-34.062	-0.199	-0.109
-303.822	-182.393	0.246	-0.005
-302.807	-138.986	-0.122	0.013
-301.793	-24.157	0.299	-0.177
-300.778	-33.283	0.409	0.225
-299.764	-80.732	-0.091	-0.030
-298.749	145.355	-0.219	-0.291
-297.735	93.309	-0.102	0.114
-296.720	-200.000	-0.033	0.354
-295.705	-200.000	0.030	0.301
-294.691	712.106	-0.059	0.154
-293.676	171.009	-0.228	-0.325
-292.662	-119.991	-0.179	0.030
-291.647	-200.000	-0.001	0.009
-290.632	-200.000	0.003	-0.217
-289.618	-80.708	0.388	-0.128
-288.603	18.848	0.077	0.061
-287.589	-167.610	-0.175	0.007
-286.574	77.221	0.027	-0.029
-285.559	49.298	0.169	-0.157
-284.545	-200.000	-0.001	0.034
-283.530	170.012	-0.198	0.281
-282.516	800.000	-0.087	0.283
-281.501	-66.071	0.057	0.022
-280.486	-200.000	-0.003	0.077
-279.472	209.151	0.228	0.354
-278.457	-96.558	-0.128	0.033
-277.443	-33.601	-0.016	-0.009
-276.428	-19.676	0.148	-0.091
-275.413	596.024	0.049	0.120
-274.399	800.000	-0.059	-0.231
-273.384	-70.293	-0.252	-0.095
-272.370	129.117	0.141	0.179
-271.355	444.078	0.031	-0.068
-270.340	-173.043	-0.231	-0.007
-269.326	194.876	0.101	0.151
-268.311	287.987	0.016	0.029
-267.297	-200.000	0.013	0.244
-266.282	800.000	0.020	-0.066
-265.267	360.214	0.044	0.087
-264.253	-108.279	-0.038	0.008
-263.238	77.174	-0.229	-0.241
-262.224	-200.000	0.033	0.184
-261.209	155.082	0.042	0.057
-260.195	224.608	0.065	-0.104
-259.180	436.608	-0.042	0.090
-258.165	-200.000	-0.045	0.503
-257.151	-79.270	-0.404	0.136
-256.136	-14.652	0.376	0.239
-255.122	188.103	0.122	-0.181
-254.107	-102.775	0.236	0.056
-253.092	-32.599	0.238	0.131
-252.078	-110.946	-0.173	-0.035
-251.063	84.637	-0.121	-0.132
-250.049	62.323	0.065	0.064
-249.034	180.186	-0.113	-0.164
-248.019	-12.758	0.115	-0.074
-247.005	385.366	0.110	0.224
-245.990	197.667	0.125	0.189
-244.976	-148.384	0.185	-0.015
-243.961	-200.000	-0.476	0.001
-242.946	263.466	-0.139	0.240
-241.932	-200.000	-0.136	0.000
-240.917	-82.878	0.349	-0.112
-239.903	-200.000	-0.017	-0.076
-238.888	-61.289	-0.013	-0.006
-237.873	-137.960	0.269	-0.030
-236.859	42.940	0.205	0.185
-235.844	-70.640	0.443	0.166
-234.830	-200.000	0.053	-0.277
-233.815	194.924	-0.257	0.386
-232.800	-44.271	0.132	0.065
-231.786	800.000	-0.080	-0.339
-230.771	437.537	0.098	0.210
-229.757	7.128	-0.140	0.104
-228.742	-93.187	0.158	0.044
-227.727	233.867	-0.120	0.196
-226.713	-200.000	0.015	-0.310
-225.698	75.419	-0.227	0.237
-224.684	-200.000	0.021	-0.211
-223.669	108.918	-0.191	0.226
-222.655	102.109	0.040	-0.047
-221.640	42.093	0.146	0.131
-220.625	-62.998	-0.283	0.116
-219.611	-34.724	0.188	-0.102
-218.596	-151.252	-0.198	0.015
-217.582	-200.000	0.001	0.160
-216.567	-200.000	0.001	0.110
-215.552	42.495	0.288	0.259
-214.538	-6.431	-0.208	0.140
-213.523	5.461	-0.160	0.117
-212.509	15.799	-0.247	0.192
-211.494	65.888	0.117	0.118
-210.479	175.349	-0.246	0.352
-209.465	-94.385	-0.333	-0.090
-208.450	-35.632	0.067	-0.036
-207.436	-79.820	-0.199	-0.066
-206.421	419.823	-0.130	0.276
-205.406	-13.782	0.318	-0.203
-204.392	267.603	-0.158	0.274
-203.377	-107.478	-0.226	-0.049
-202.363	127.561	-0.015	-0.019
-201.348	31.829	-0.211	0.179
-200.333	273.519	0.033	-0.058
-199.319	-200.000	0.009	0.151
-198.304	327.366	-0.214	0.406
-197.290	-43.877	-0.143	-0.071
-196.275	800.000	0.029	-0.095
-195.260	597.991	0.088	0.215
-194.246	357.896	-0.069	-0.135
-193.231	-136.940	0.242	0.027
-192.217	-200.000	0.020	0.248
-191.202	-70.420	-0.104	-0.039
-190.187	584.557	-0.054	-0.130
-189.173	-67.923	0.292	-0.113
-188.158	-122.940	0.088	-0.014
-187.144	-200.000	-0.085	0.379
-186.129	-200.000	-0.028	-0.218
-185.114	256.944	-0.097	-0.164
-184.100	-123.515	-0.049	0.008
-183.085	-53.914	0.019	0.008
-182.071	71.536	0.164	0.168
-181.056	106.643	-0.145	0.169
-180.042	-109.831	0.323	-0.067
-179.027	-4.000	0.059	0.040
-178.012	196.167	0.148	-0.223
-176.998	-34.205	0.060	-0.033
-175.983	-54.617	0.214	0.096
-174.969	532.006	0.153	-0.356
-173.954	-200.000	0.025	0.143
-172.939	-77.619	-0.278	0.095
-171.925	-200.000	0.007	-0.045
-170.910	-23.824	0.104	0.061
-169.896	-1.613	-0.189	0.132
-168.881	-200.000	0.367	-0.000
-167.866	78.035	-0.230	-0.242
-166.852	292.298	-0.189	-0.340
-165.837	150.488	0.103	0.138
-164.823	-2.095	0.318	-0.220
-163.808	-113.683	0.335	-0.064
-162.793	-37.818	0.257	0.135
-161.779	-13.051	-0.092	0.059
-160.764	14.813	0.294	0.227
-159.750	-14.936	0.085	-0.054
-158.735	-47.814	-0.130	-0.062
-157.720	221.842	0.193	0.306
-156.706	17.018	0.044	0.034
-155.691	-200.000	-0.014	-0.184
-154.677	-74.574	-0.192	-0.068
-153.662	800.000	-0.061	0.206
-152.647	342.695	-0.016	0.030
-151.633	57.971	-0.235	-0.227
-150.618	-120.199	-0.219	-0.037
-149.604	12.886	-0.165	-0.126
-148.589	-149.496	0.181	0.014
-147.574	-200.000	-0.019	0.249
-146.560	-200.000	0.006	-0.041
-145.545	681.310	-0.042	-0.109
-144.531	-56.938	-0.223	-0.097
-143.516	-88.025	-0.301	-0.089
-142.502	-122.892	-0.203	0.032
-141.487	-92.120	0.118	0.033
-140.472	-100.592	-0.337	-0.082
-139.458	-141.034	0.163	0.016
-138.443	34.144	-0.126	-0.109
-137.429	-18.353	-0.286	-0.176
-136.414	-200.000	0.024	-0.161
-135.399	-200.000	-0.030	0.284
-134.385	72.726	-0.088	0.091
-133.370	-59.016	-0.153	0.065
-132.356	-105.430	0.154	0.035
-131.341	244.678	-0.078	-0.129
-130.326	-43.706	0.301	0.150
-129.312	-129.189	0.375	-0.052
-128.297	65.726	0.008	0.007
-127.283	-45.046	-0.487	0.239
-126.268	285.149	0.084	-0.148
-125.253	-124.170	-0.416	0.064
-124.239	221.079	-0.137	0.216
-123.224	-200.000	-0.003	-0.398
-122.210	65.892	0.158	-0.158
-121.195	-156.965	0.220	-0.013
-120.180	-200.000	0.016	-0.170
-119.166	133.335	0.240	0.305
-118.151	12.623	-0.236	-0.180
-117.137	-200.000	-0.002	-0.246
-116.122	-35.062	-0.202	0.109
-115.107	151.611	-0.117	0.157
-114.093	-200.000	-0.088	-0.442
-113.078	38.020	0.283	0.248
-112.064	170.380	0.023	0.032
-111.049	235.094	-0.181	0.293
-110.034	-20.215	0.096	-0.058
-109.020	-8.082	-0.118	-0.078
-108.005	-200.000	-0.285	-0.001
-106.991	-62.172	-0.072	0.029
-105.976	508.820	0.030	0.068
-104.962	-30.285	-0.326	0.182
-103.947	72.551	0.072	0.074
-102.932	-200.000	-0.001	-0.029
-101.918	-11.923	0.020	0.013
-100.903	276.577	-0.083	-0.146
-99.889	-165.600	-0.057	-0.002
-98.874	133.468	-0.023	0.029
-97.859	-179.091	-0.198	-0.004
-96.845	-200.000	0.015	-0.177
-95.830	800.000	-0.017	0.060
-94.816	-85.780	0.187	0.057
-93.801	-21.737	-0.027	-0.016
-92.786	62.704	-0.161	-0.158
-91.772	-149.032	0.125	0.010
-90.757	800.000	-0.080	0.285
-89.743	15.321	-0.101	0.078
-88.728	-200.000	-0.311	0.001
-87.713	-162.885	0.336	-0.016
-86.699	800.000	0.059	-0.186
-85.684	800.000	0.005	-0.016
-84.670	6.611	0.085	-0.062
-83.655	181.481	-0.125	-0.181
-82.640	4.157	-0.125	0.090
-81.626	100.167	0.128	-0.147
-80.611	-26.836	-0.056	-0.032
-79.597	-200.000	0.022	0.188
-78.582	-14.896	-0.219	-0.138
-77.567	-74.165	0.199	-0.071
-76.553	-175.006	-0.171	0.005
-75.538	136.993	-0.175	0.225
-74.524	-34.439	0.148	0.080
-73.509	334.232	0.327	-0.622
-72.494	-200.000	-0.045	0.355
-71.480	366.830	-0.106	-0.210
-70.465	390.553	-0.145	-0.297
-69.451	368.301	-0.146	0.290
-68.436	800.000	-0.076	-0.303
-67.422	-56.158	-0.535	-0.234
-66.407	-72.611	-0.059	0.021
-65.392	-49.463	-0.074	-0.035
-64.378	80.487	0.147	-0.155
-63.363	165.003	0.072	0.100
-62.349	-161.208	-0.082	-0.004
-61.334	102.092	-0.876	-1.006
-60.319	271.667	0.345	0.598
-59.305	-200.000	-0.216	-1.152
-58.290	289.941	0.619	1.104
-57.276	597.513	0.626	1.524
-56.261	-200.000	107.305	585.040
-55.246	450.993	1468.295	3186.019
-54.232	148.390	2650.914	3517.066
-53.217	106.425	2158.124	2513.758
-52.203	41.226	1605.655	1426.047
-51.188	33.215	1344.636	1145.895
-50.173	30.224	1303.496	1093.196
-49.159	53.643	1356.912	1279.464
-48.144	54.324	1372.289	1298.006
-47.130	33.316	1328.239	1132.344
-46.115	30.005	1309.926	1097.113
-45.100	29.709	1305.523	1091.638
-44.086	29.686	1302.738	1089.127
-43.071	29.668	1300.553	1087.152
-42.057	29.523	1298.445	1084.495
-41.042	29.583	1296.909	1083.522
-40.027	29.737	1294.846	1082.657
-39.013	29.604	1293.401	1080.627
-37.998	29.612	1291.517	1079.061
-36.984	29.774	1289.692	1078.433
-35.969	29.786	1287.702	1076.801
-34.954	29.733	1286.681	1075.596
-33.940	29.825	1285.082	1074.751
-32.925	29.829	1283.667	1073.547
-31.911	29.735	1282.878	1072.299
-30.896	29.938	1280.944	1071.815
-29.881	29.870	1279.724	1070.360
-28.867	29.869	1278.415	1069.216
-27.852	29.880	1276.877	1067.947
-26.838	29.915	1275.139	1066.656
-25.823	29.810	1274.324	1065.326
-24.809	29.863	1273.081	1064.550
-23.794	29.744	1271.864	1062.808
-22.779	29.756	1270.293	1061.522
-21.765	29.745	1269.159	1060.468
-20.750	29.869	1267.427	1059.688
-19.736	29.761	1266.551	1058.292
-18.721	29.685	1265.173	1056.668
-17.706	29.819	1263.882	1056.310
-16.692	29.613	1262.771	1054.167
-15.677	29.663	1262.068	1053.822
-14.663	29.621	1260.845	1052.520
-13.648	29.721	1259.164	1051.642
-12.633	29.654	1258.883	1050.985
-11.619	29.650	1258.022	1050.202
-10.604	29.753	1256.856	1049.775
-9.590	29.681	1255.857	1048.491
-8.575	29.601	1255.380	1047.597
-7.560	29.581	1254.566	1046.759
-6.546	29.656	1253.492	1046.251
-5.531	29.580	1252.446	1044.903
-4.517	29.663	1251.547	1044.579
-3.502	29.769	1250.415	1044.193
-2.487	29.706	1249.752	1043.243
-1.473	29.659	1245.916	1039.736
-0.458	28.229	1231.037	1019.320
0.556	23.216	1214.797	984.176
1.571	19.853	1220.865	970.180
2.586	18.995	1236.556	977.689
3.600	18.851	1225.485	968.038
4.615	13.881	1152.064	883.576
5.629	4.744	1076.085	779.631
6.644	0.488	1055.393	743.630
7.659	0.088	1053.509	740.267
8.673	-0.055	1052.174	738.563
9.688	-0.050	1051.199	737.835
10.702	0.169	1049.493	737.646
11.717	5.567	1055.949	768.676
12.731	14.143	1067.515	819.442
13.746	17.540	1071.073	838.862
14.761	17.063	1069.384	835.119
15.775	15.960	1067.733	828.335
16.790	14.858	1065.499	821.119
17.804	14.238	1063.881	816.755
18.819	13.884	1062.980	814.254
19.834	13.626	1062.072	812.224
20.848	13.423	1061.076	810.396
21.863	13.211	1060.451	808.809
22.877	12.968	1059.374	806.727
23.892	12.999	1058.429	806.092
24.907	12.955	1057.935	805.427
25.921	12.968	1057.567	805.138
26.936	13.001	1056.604	804.497
27.950	13.088	1055.832	804.263
28.965	13.279	1053.950	803.686
29.980	13.324	1052.722	802.897
30.994	13.323	1051.897	802.189
32.009	13.155	1051.680	801.139
33.023	13.357	1049.747	800.574
34.038	13.321	1048.920	799.699
35.053	13.167	1048.076	798.238
36.067	13.173	1047.290	797.598
37.082	13.167	1047.048	797.314
38.096	13.272	1045.746	796.761
39.111	13.236	1045.098	796.021
40.126	13.064	1044.389	794.582
41.140	13.126	1042.215	793.159
42.155	13.120	1041.426	792.456
43.169	12.991	1040.670	791.194
44.184	13.044	1039.858	790.760
45.199	13.056	1038.558	789.760
46.213	12.966	1037.574	788.511
47.228	13.172	1036.143	788.335
48.242	13.266	1035.204	788.002
49.257	13.102	1034.369	786.514
50.271	13.255	1033.286	786.348
51.286	13.266	1032.588	785.800
52.301	13.125	1031.607	784.316
53.315	13.099	1030.414	783.214
54.330	13.038	1029.460	782.131
55.344	13.148	1028.561	781.901
56.359	13.189	1027.563	781.265
57.374	13.053	1027.172	780.255
58.388	12.891	1026.464	778.884
59.403	12.937	1025.604	778.381
60.417	12.981	1024.733	777.860
61.432	12.972	1023.773	777.020
62.447	12.948	1022.667	775.996
63.461	12.898	1022.238	775.367
64.476	13.023	1021.214	775.110
65.490	12.992	1020.365	774.251
66.505	12.956	1020.092	773.806
67.520	13.123	1019.019	773.708
68.534	13.028	1018.682	772.938
69.549	13.149	1017.580	772.600
70.563	12.955	1016.948	771.144
71.578	12.927	1015.913	770.160
72.593	12.768	1015.523	769.054
73.607	12.890	1015.023	769.178
74.622	12.843	1014.046	768.149
75.636	12.908	1013.444	767.930
76.651	12.861	1013.037	767.332
77.666	12.921	1012.350	767.022
78.680	12.834	1011.996	766.282
79.695	12.896	1011.012	765.759
80.709	13.136	1010.182	766.176
81.724	13.064	1009.428	765.199
82.739	13.056	1008.885	764.688
83.753	13.108	1007.963	764.161
84.768	13.234	1007.057	763.986
85.782	13.181	1006.524	763.271
86.797	13.097	1005.993	762.414
87.812	13.052	1004.597	761.081
88.826	13.208	1003.751	761.092
89.841	13.116	1002.657	759.771
90.855	13.196	1001.615	759.281
91.870	13.131	1001.223	758.618
92.884	13.141	1000.101	757.746
93.899	13.258	999.339	757.638
94.914	13.300	998.454	757.092
95.928	13.374	997.641	756.750
96.943	13.244	996.554	755.261
97.957	13.133	995.878	754.178
98.972	13.309	994.972	754.226
99.987	13.266	994.172	753.359
101.001	13.292	993.558	752.944
102.016	13.363	992.378	752.305
103.030	13.294	992.170	751.770
104.045	13.306	991.266	751.069
105.060	13.169	990.234	749.601
106.074	13.191	989.358	748.973
107.089	13.110	988.304	747.740
108.103	13.005	987.755	746.784
109.118	13.135	986.354	746.247
110.133	13.052	985.604	745.240
111.147	13.103	984.618	744.655
112.162	12.996	984.016	743.656
113.176	13.116	983.494	743.735
114.191	13.172	982.948	743.505
115.206	13.282	981.665	742.963
116.220	13.180	980.978	741.920
117.235	13.134	979.962	740.880
118.249	13.222	978.816	740.344
119.264	12.965	978.762	739.084
120.279	12.942	977.940	738.298
121.293	13.062	976.887	737.973
122.308	12.947	976.132	736.825
123.322	13.044	975.252	736.527
124.337	13.038	974.163	735.612
125.352	13.030	972.588	734.324
126.366	13.130	971.693	734.025
127.381	13.115	970.845	733.256
128.395	13.086	969.776	732.251
129.410	13.049	969.000	731.439
130.424	13.185	968.218	731.387
131.439	13.134	967.534	730.579
132.454	13.299	966.670	730.591
133.468	13.331	965.487	729.772
134.483	13.256	964.739	728.814
135.497	13.280	963.985	728.282
136.512	13.181	963.124	727.134
137.527	13.217	961.955	726.344
138.541	13.266	961.478	726.134
139.556	13.085	961.404	725.219
140.570	13.150	960.443	724.718
141.585	13.376	959.264	724.754
142.600	13.436	958.063	724.044
143.614	13.434	957.824	723.790
144.629	13.484	956.729	723.117
145.643	13.456	956.043	722.415
146.658	13.309	954.748	720.732
147.673	13.369	953.903	720.288
148.687	13.245	953.433	719.332
149.702	13.261	952.392	718.550
150.716	13.240	951.890	718.017
151.731	13.195	951.163	717.210
152.746	13.403	950.046	717.207
153.760	13.376	950.028	717.011
154.775	13.417	949.260	716.546
155.789	13.393	948.724	715.976
156.804	13.315	947.802	714.881
157.819	13.410	947.156	714.739
158.833	13.403	946.430	714.100
159.848	13.487	945.541	713.727
160.862	13.380	944.910	712.726
161.877	13.459	943.490	711.933
162.892	13.377	942.455	710.734
163.906	13.427	941.450	710.128
164.921	13.275	941.251	709.264
165.935	13.356	940.403	708.910
166.950	13.373	939.063	707.907
167.964	13.534	938.145	707.841
168.979	13.486	937.470	707.065
169.994	13.413	936.881	706.249
171.008	13.536	936.129	706.143
172.023	13.517	935.482	705.509
173.037	13.683	934.177	705.169
174.052	13.539	933.648	704.098
175.067	13.506	933.466	703.757
176.081	13.348	933.256	702.865
177.096	13.531	932.426	702.955
178.110	13.438	931.868	702.077
179.125	13.539	931.232	701.962
180.140	13.636	930.544	701.793
181.154	13.549	930.443	701.285
182.169	13.627	929.845	701.103
183.183	13.675	929.480	700.971
184.198	13.687	928.100	699.918
185.213	13.747	927.233	699.455
186.227	13.741	926.762	699.012
187.242	13.742	925.891	698.299
188.256	13.910	925.208	698.428
189.271	13.693	924.873	697.199
190.286	13.748	923.754	696.525
191.300	13.492	923.366	695.098
192.315	13.507	922.698	694.595
193.329	13.629	922.162	694.644
194.344	13.700	921.625	694.473
195.359	13.763	920.520	693.845
196.373	13.818	920.246	693.804
197.388	13.911	919.811	693.804
198.402	13.985	919.053	693.479
199.417	13.858	918.364	692.370
200.432	13.900	918.318	692.450
201.446	14.044	917.556	692.412
202.461	14.078	917.197	692.220
203.475	14.117	916.419	691.735
204.490	13.994	915.620	690.561
205.504	13.837	915.238	689.558
206.519	13.969	914.183	689.251
207.534	13.930	913.586	688.580
208.548	13.922	913.389	688.338
209.563	13.943	912.485	687.683
210.577	13.874	911.592	686.662
211.592	13.988	911.198	686.776
212.607	14.138	910.055	686.473
213.621	14.109	909.536	685.902
214.636	14.067	908.890	685.178
215.650	14.219	907.763	684.893
216.665	14.182	907.138	684.210
217.680	14.171	906.894	683.921
218.694	14.241	906.015	683.483
219.709	14.262	905.695	683.270
220.723	14.281	904.627	682.480
221.738	14.156	903.679	681.195
222.753	14.157	903.673	681.130
223.767	14.176	903.021	680.658
224.782	14.248	902.269	680.326
225.796	14.374	901.555	680.241
226.811	14.275	901.318	679.597
227.826	14.295	900.507	679.009
228.840	14.304	899.459	678.196
229.855	14.315	898.603	677.534
230.869	14.245	898.138	676.838
231.884	14.346	897.352	676.597
232.899	14.280	896.542	675.659
233.913	14.255	895.713	674.872
234.928	14.206	895.586	674.518
235.942	14.154	894.743	673.612
236.957	14.277	894.291	673.711
237.972	14.349	893.605	673.427
238.986	14.256	893.036	672.562
240.001	14.422	892.371	672.671
241.015	14.377	891.827	672.023
242.030	14.344	891.326	671.450
243.045	14.424	890.760	671.286
244.059	14.445	890.354	671.008
245.074	14.347	889.662	670.033
246.088	14.432	888.895	669.735
247.103	14.589	887.999	669.633
248.117	14.534	887.551	669.013
249.132	14.667	886.953	669.036
250.147	14.807	886.341	669.076
251.161	14.807	885.457	668.350
252.176	14.774	884.779	667.649
253.190	14.676	884.161	666.732
254.205	14.825	883.490	666.762
255.220	14.748	882.748	665.834
256.234	14.746	882.623	665.674
257.249	14.876	881.396	665.207
258.263	14.885	880.874	664.790
259.278	14.840	880.332	664.142
260.293	14.850	879.972	663.853
261.307	14.935	879.440	663.729
262.322	14.894	878.934	663.127
263.336	15.023	877.787	662.712
264.351	15.129	876.969	662.456
265.366	15.047	876.547	661.756
266.380	15.123	875.785	661.420
267.395	14.995	875.239	660.444
268.409	14.976	874.420	659.693
269.424	15.089	873.753	659.577
270.439	14.988	873.035	658.577
271.453	14.923	872.832	658.112
272.468	14.909	872.456	657.713
273.482	15.042	871.659	657.577
274.497	15.051	870.781	656.893
275.512	14.977	870.435	656.282
276.526	14.983	870.139	656.028
277.541	15.052	869.636	655.858
278.555	15.169	868.498	655.402
279.570	15.107	867.999	654.725
280.585	15.279	867.542	654.991
281.599	15.178	866.561	653.800
282.614	15.143	866.149	653.293
283.628	15.237	865.568	653.168
284.643	15.225	865.214	652.792
285.657	15.250	864.170	652.044
286.672	15.283	863.808	651.844
287.687	15.325	862.904	651.266
288.701	15.209	862.646	650.565
289.716	15.330	862.024	650.507
290.730	15.376	861.439	650.184
291.745	15.416	860.611	649.660
292.760	15.300	860.411	649.000
293.774	15.309	859.698	648.441
294.789	15.394	859.016	648.197
295.803	15.353	858.540	647.623
296.818	15.406	857.676	647.116
297.833	15.210	857.426	646.115
298.847	15.317	856.375	645.680
299.862	15.397	856.014	645.658
300.876	15.593	855.082	645.649
301.891	15.490	854.739	644.937
302.906	15.354	854.625	644.272
303.920	15.541	853.915	644.399
304.935	15.617	853.607	644.399
305.949	15.634	852.690	643.717
306.964	15.559	851.887	642.767
307.979	15.718	851.237	642.827
308.993	15.598	850.941	642.090
310.008	15.644	850.294	641.719
311.022	15.635	849.466	641.005
312.037	15.680	848.514	640.399
313.052	15.659	848.104	639.954
314.066	15.726	847.458	639.665
315.081	15.665	847.076	639.086
316.095	15.737	846.584	638.934
317.110	15.595	846.502	638.273
318.125	15.666	845.926	638.052
319.139	15.595	845.625	637.502
320.154	15.765	844.828	637.486
321.168	15.684	844.308	636.731
322.183	15.805	843.601	636.599
323.197	15.723	843.241	635.962
324.212	15.803	842.744	635.833
325.227	15.814	841.990	635.249
326.241	15.675	841.243	634.105
327.256	15.812	840.982	634.370
328.270	15.837	840.287	633.882
329.285	15.809	839.804	633.358
330.300	15.767	839.084	632.599
331.314	15.825	838.412	632.257
332.329	15.907	837.893	632.117
333.343	15.790	837.626	631.420
334.358	15.760	837.629	631.254
335.373	15.984	836.432	631.135
336.387	15.951	836.427	630.950
337.402	15.831	836.467	630.477
338.416	16.047	835.925	630.821
339.431	16.085	835.187	630.351
340.446	16.079	835.145	630.240
341.460	16.024	834.788	629.708
342.475	16.200	834.160	629.837
343.489	16.125	833.681	629.142
344.504	16.238	833.258	629.188
345.519	16.204	832.914	628.746
346.533	16.272	832.263	628.451
347.548	16.108	831.744	627.394
348.562	16.196	831.204	627.256
349.577	16.215	830.585	626.804
350.592	16.197	830.265	626.443
351.606	16.132	829.307	625.423
352.621	16.176	828.574	624.976
353.635	16.118	828.079	624.333
354.650	16.242	827.486	624.289
355.665	16.262	827.050	623.980
356.679	16.315	826.101	623.406
357.694	16.368	825.376	622.998
358.708	16.237	825.118	622.263
359.723	16.352	824.518	622.179
360.738	16.363	823.718	621.562
361.752	16.272	823.412	620.943
362.767	16.341	822.697	620.602
363.781	16.395	822.494	620.592
364.796	16.462	822.014	620.419
365.810	16.464	821.652	620.101
366.825	16.584	821.271	620.197
367.840	16.452	820.593	619.146
368.854	16.523	820.351	619.169
369.869	16.602	819.860	619.032
370.883	16.522	819.090	618.104
371.898	16.675	818.471	618.140
372.913	16.501	818.965	617.823
373.927	16.753	817.886	617.874
374.942	16.748	817.126	617.226
375.956	16.778	817.211	617.346
376.971	16.659	816.765	616.521
377.986	16.759	816.022	616.271
379.000	16.887	815.704	616.441
380.015	16.800	814.938	615.491
381.029	16.843	814.681	615.398
382.044	16.921	813.845	614.998
383.059	16.798	813.343	614.117
384.073	16.796	812.983	613.785
385.088	16.724	812.389	613.020
386.102	16.897	811.533	612.943
387.117	16.882	810.900	612.358
388.132	16.745	810.506	611.513
389.146	16.866	810.131	611.613
390.161	16.900	809.402	611.130
391.175	16.811	808.993	610.445
392.190	16.884	808.568	610.335
393.205	16.753	808.314	609.616
394.219	16.814	808.089	609.612
395.234	17.037	807.566	609.965
396.248	16.878	807.217	609.076
397.263	16.886	806.418	608.450
398.278	16.738	806.151	607.664
399.292	16.820	805.778	607.623
400.307	16.964	805.397	607.796
401.321	16.887	804.659	606.909
402.336	16.939	804.665	607.046
403.350	16.934	804.086	606.539
404.365	17.146	803.183	606.562
405.380	17.172	803.042	606.495
406.394	16.944	802.428	605.163
407.409	17.072	801.927	605.187
408.423	17.305	801.428	605.587
409.438	16.995	801.597	604.557
410.453	17.178	800.758	604.522
411.467	17.204	800.414	604.302
412.482	17.368	799.691	604.287
413.496	17.369	799.891	604.386
414.511	17.380	799.414	604.013
415.526	17.344	798.986	603.506
416.540	17.232	798.619	602.778
417.555	17.371	798.213	602.912
418.569	17.434	797.450	602.507
419.584	17.428	797.207	602.248
420.599	17.389	796.647	601.634
421.613	108.938	1292.204	1469.201
422.628	93.630	1364.393	1469.304
