DTS Sentinel unit serial number:	SN413079Multiplexer serial number:	ORYXHardware model number:	OX4-SRSoftware version number:	ORYX F/W v4.00 Oryx Data Collector v3.7.2.0data status	okinstallation	princeton_trtdifferential loss correction	single-endedforward channel	channel 1reverse channel	N/Adate	2019/09/14time	09:10:35forward acquisition time	60.00reverse acquisition time	0.00gamma	496.2192k internal	0.2325k external	0.2325temperature offset calibration	1.0069default loss term (dB/km)	0.3790temperature slope calibration	1.0000multiplexer offset coefficient	1.0000multiplexer slope coefficient	1.0000fibre end	0.00T internal ref (°C)	30.47T ext. ref 1 (°C)	3.77T ext. ref 2 (°C)	28.50length (m)	temperature (°C)	Stokes	anti-Stokes-747.200	5.503	0.143	0.106
-746.185	20.933	-0.174	0.143
-745.171	16.342	0.165	-0.131
-744.156	-76.473	-0.243	0.086
-743.142	800.000	-0.110	-0.350
-742.127	800.000	0.029	0.100
-741.112	-200.000	-0.021	-0.104
-740.098	-34.240	0.227	-0.126
-739.083	516.700	-0.058	-0.138
-738.069	-200.000	-0.079	0.499
-737.054	-44.014	-0.138	0.070
-736.039	8.637	-0.074	0.056
-735.025	-100.654	0.082	-0.020
-734.010	-10.764	-0.314	-0.210
-732.996	658.313	0.072	-0.186
-731.981	-77.162	-0.163	-0.057
-730.966	800.000	0.097	0.302
-729.952	800.000	-0.096	-0.267
-728.937	392.345	0.085	-0.178
-727.923	-11.057	-0.277	-0.185
-726.908	-148.712	-0.135	-0.011
-725.894	-78.414	0.173	-0.060
-724.879	-200.000	-0.036	-0.232
-723.864	6.744	-0.044	0.033
-722.850	80.910	-0.206	-0.224
-721.835	-200.000	0.014	0.158
-720.821	-200.000	-0.050	-0.232
-719.806	457.044	0.105	-0.236
-718.791	-200.000	-0.003	-0.293
-717.777	255.170	0.102	-0.176
-716.762	1.127	-0.051	0.037
-715.748	8.009	0.117	-0.088
-714.733	-167.857	-0.238	0.009
-713.718	-200.000	0.068	0.303
-712.704	-200.000	-0.041	-0.202
-711.689	109.040	-0.151	-0.182
-710.675	249.775	-0.082	-0.140
-709.660	119.231	-0.034	0.042
-708.645	-64.885	-0.275	-0.112
-707.631	125.308	-0.221	0.281
-706.616	-59.829	0.117	0.050
-705.602	11.571	0.224	-0.173
-704.587	198.153	0.108	-0.167
-703.572	800.000	0.122	-0.505
-702.558	117.629	-0.170	0.211
-701.543	-118.190	0.460	0.083
-700.529	-46.797	-0.651	-0.321
-699.514	800.000	0.070	-0.277
-698.499	-200.000	-0.006	-0.118
-697.485	73.026	0.056	-0.059
-696.470	498.961	0.142	-0.329
-695.456	-200.000	0.005	-0.251
-694.441	82.850	0.218	0.238
-693.426	83.394	0.099	-0.109
-692.412	-200.000	0.009	0.072
-691.397	-180.681	0.137	-0.003
-690.383	-200.000	0.000	-0.181
-689.368	-78.532	-0.372	0.128
-688.354	111.048	0.267	-0.324
-687.339	800.000	0.038	-0.157
-686.324	-200.000	0.027	-0.145
-685.310	102.852	-0.223	0.262
-684.295	-200.000	0.006	-0.163
-683.281	359.742	0.110	0.221
-682.266	-61.383	0.145	0.061
-681.251	-200.000	0.057	-0.263
-680.237	-200.000	-0.009	-0.400
-679.222	213.657	-0.071	-0.112
-678.208	-110.134	0.121	0.025
-677.193	335.053	0.032	0.062
-676.178	-164.679	0.234	0.011
-675.164	800.000	0.073	0.234
-674.149	-16.998	0.346	-0.220
-673.135	-200.000	-0.027	0.124
-672.120	-89.627	-0.425	0.125
-671.105	-200.000	0.026	-0.297
-670.091	-99.959	0.137	0.034
-669.076	258.519	-0.190	0.330
-668.062	-101.366	-0.139	-0.034
-667.047	56.355	0.095	-0.093
-666.032	374.943	-0.116	-0.238
-665.018	-200.000	-0.019	-0.446
-664.003	-200.000	-0.038	-0.199
-662.989	71.266	0.094	0.098
-661.974	-120.486	0.225	0.038
-660.959	443.337	-0.069	-0.153
-659.945	-84.935	-0.130	0.041
-658.930	97.842	0.102	0.118
-657.916	7.949	0.244	0.184
-656.901	-75.009	-0.406	0.146
-655.886	800.000	-0.018	-0.064
-654.872	-200.000	-0.022	-0.122
-653.857	-78.855	-0.377	-0.129
-652.843	-200.000	-0.009	-0.525
-651.828	-151.817	-0.264	-0.019
-650.814	168.504	-0.145	0.208
-649.799	-200.000	-0.032	-0.224
-648.784	-120.385	0.201	0.034
-647.770	800.000	-0.031	-0.127
-646.755	211.305	-0.097	-0.154
-645.741	-67.160	0.348	-0.138
-644.726	84.936	0.074	-0.082
-643.711	353.399	0.212	0.422
-642.697	56.270	-0.149	-0.146
-641.682	-171.056	-0.288	-0.010
-640.668	43.253	-0.225	0.207
-639.653	-200.000	0.006	-0.480
-638.638	93.676	0.230	-0.262
-637.624	52.733	-0.056	0.054
-636.609	-200.000	-0.003	0.135
-635.595	-200.000	0.009	0.116
-634.580	540.173	-0.067	0.161
-633.565	800.000	-0.030	0.106
-632.551	124.482	-0.138	0.175
-631.536	212.704	0.116	-0.184
-630.522	800.000	-0.073	0.286
-629.507	-118.211	-0.142	0.025
-628.492	-127.484	-0.240	-0.035
-627.478	95.564	-0.123	0.141
-626.463	-200.000	0.025	-0.222
-625.449	-111.911	0.226	0.046
-624.434	-200.000	0.061	-0.305
-623.419	-140.845	0.348	0.036
-622.405	-200.000	-0.028	0.205
-621.390	-40.774	0.055	0.029
-620.376	-151.448	-0.179	-0.013
-619.361	-16.151	-0.285	0.182
-618.346	-2.654	-0.349	-0.245
-617.332	191.797	0.156	0.236
-616.317	-141.704	0.062	0.006
-615.303	151.784	0.190	0.260
-614.288	605.049	0.081	0.203
-613.273	21.489	-0.272	-0.222
-612.259	173.320	0.046	-0.067
-611.244	800.000	-0.025	-0.075
-610.230	-33.141	-0.216	0.120
-609.215	22.900	-0.150	-0.124
-608.201	157.479	-0.170	-0.237
-607.186	125.094	0.087	0.111
-606.171	-200.000	-0.001	0.122
-605.157	-200.000	-0.028	0.244
-604.142	-104.233	0.327	0.076
-603.128	138.941	-0.152	0.201
-602.113	67.424	-0.063	-0.065
-601.098	112.632	-0.241	0.293
-600.084	295.668	0.008	-0.014
-599.069	71.877	0.052	0.054
-598.055	-49.635	-0.236	-0.113
-597.040	-4.634	-0.215	-0.149
-596.025	-164.689	-0.164	-0.007
-595.011	29.907	-0.111	0.095
-593.996	800.000	0.103	-0.387
-592.982	711.816	0.157	-0.417
-591.967	800.000	-0.061	0.220
-590.952	-169.889	0.191	-0.007
-589.938	676.110	0.019	-0.049
-588.923	-81.176	-0.218	0.072
-587.909	-126.233	-0.284	0.043
-586.894	101.259	-0.182	-0.213
-585.879	603.704	0.059	0.146
-584.865	-98.012	-0.093	0.024
-583.850	21.636	0.185	0.151
-582.836	-41.254	0.078	0.040
-581.821	263.863	-0.114	-0.199
-580.806	155.443	-0.281	0.387
-579.792	800.000	-0.037	0.131
-578.777	-22.477	0.135	0.082
-577.763	-100.963	-0.148	-0.036
-576.748	-77.370	0.088	0.031
-575.733	189.597	-0.093	-0.139
-574.719	6.919	0.133	-0.099
-573.704	139.458	-0.184	-0.243
-572.690	-118.215	-0.400	-0.071
-571.675	-11.222	0.310	-0.205
-570.661	800.000	-0.118	0.357
-569.646	800.000	0.088	0.293
-568.631	-200.000	-0.006	0.028
-567.617	-99.598	0.051	0.013
-566.602	-36.236	-0.060	-0.033
-565.588	609.363	0.101	0.252
-564.573	-35.098	0.240	0.131
-563.558	-144.379	0.164	-0.015
-562.544	-124.546	0.113	0.018
-561.529	46.947	-0.260	-0.242
-560.515	-200.000	0.012	0.134
-559.500	-50.043	-0.296	-0.141
-558.485	495.535	0.008	0.018
-557.471	-30.161	0.258	0.147
-556.456	367.190	-0.057	0.115
-555.442	-74.857	0.154	-0.055
-554.427	155.455	0.150	-0.206
-553.412	35.762	-0.153	0.134
-552.398	253.605	0.083	-0.143
-551.383	-24.385	-0.229	0.137
-550.369	248.253	0.141	0.239
-549.354	547.886	0.040	-0.096
-548.339	-29.247	0.132	0.076
-547.325	-134.835	-0.334	-0.041
-546.310	534.192	-0.084	0.199
-545.296	418.070	0.235	0.504
-544.281	-200.000	0.008	0.387
-543.266	299.896	-0.129	0.238
-542.252	91.624	0.390	-0.439
-541.237	350.930	0.096	-0.191
-540.223	-47.115	0.223	0.109
-539.208	-101.080	-0.184	-0.045
-538.193	314.216	-0.109	-0.205
-537.179	383.002	-0.109	0.225
-536.164	59.360	0.152	-0.150
-535.150	-76.739	0.155	-0.054
-534.135	85.934	-0.117	-0.129
-533.121	-112.226	0.149	-0.030
-532.106	-198.710	0.087	-0.000
-531.091	-12.211	-0.063	-0.041
-530.077	-145.001	-0.167	0.015
-529.062	-45.005	-0.180	-0.090
-528.048	-66.927	-0.205	0.081
-527.033	-200.000	-0.027	-0.179
-526.018	-44.785	-0.347	0.173
-525.004	57.620	-0.200	-0.196
-523.989	-39.228	0.154	0.081
-522.975	800.000	-0.097	-0.381
-521.960	-118.416	0.040	-0.007
-520.945	1.859	0.212	-0.153
-519.931	800.000	0.060	-0.241
-518.916	32.445	-0.120	-0.103
-517.902	-1.890	-0.071	-0.050
-516.887	744.684	0.093	-0.251
-515.872	-126.276	0.457	0.068
-514.858	800.000	0.021	-0.071
-513.843	800.000	-0.046	-0.178
-512.829	184.982	-0.130	-0.192
-511.814	44.913	0.188	0.173
-510.799	154.602	-0.136	-0.187
-509.785	22.626	-0.270	0.221
-508.770	800.000	-0.008	0.035
-507.756	-24.896	-0.020	-0.012
-506.741	18.325	-0.062	-0.049
-505.726	-46.988	-0.247	-0.121
-504.712	154.428	0.082	0.112
-503.697	-36.957	-0.240	-0.128
-502.683	785.127	0.075	-0.205
-501.668	800.000	-0.049	-0.155
-500.653	-28.812	-0.125	0.072
-499.639	800.000	0.096	-0.278
-498.624	293.421	-0.090	0.164
-497.610	217.977	0.022	-0.035
-496.595	163.653	0.143	0.201
-495.581	283.973	0.044	0.079
-494.566	800.000	0.041	-0.130
-493.551	138.047	0.108	-0.141
-492.537	-59.459	-0.093	-0.040
-491.522	800.000	-0.067	0.239
-490.508	36.622	0.170	-0.150
-489.493	-83.174	0.191	-0.061
-488.478	-97.859	-0.300	-0.077
-487.464	-61.610	0.229	-0.096
-486.449	-200.000	-0.022	0.225
-485.435	-134.733	-0.056	0.007
-484.420	250.948	0.057	0.097
-483.405	509.243	0.095	-0.221
-482.391	52.324	0.139	-0.133
-481.376	-86.476	0.137	-0.042
-480.362	19.864	0.229	-0.184
-479.347	-134.614	-0.365	0.044
-478.332	370.920	-0.009	0.018
-477.318	-200.000	-0.011	-0.072
-476.303	1.590	0.246	-0.177
-475.289	49.302	-0.131	0.123
-474.274	13.864	0.082	-0.064
-473.259	3.140	-0.133	0.097
-472.245	-200.000	0.005	-0.332
-471.230	-200.000	0.032	-0.164
-470.216	-92.269	-0.191	-0.054
-469.201	260.738	0.092	-0.158
-468.186	130.129	-0.051	-0.066
-467.172	-18.922	0.085	0.052
-466.157	-73.876	-0.115	0.042
-465.143	53.161	0.211	0.202
-464.128	257.015	0.395	0.677
-463.113	-118.558	-0.186	-0.033
-462.099	72.774	0.183	0.191
-461.084	-51.205	-0.304	-0.142
-460.070	8.421	0.157	-0.118
-459.055	333.877	0.124	-0.239
-458.040	800.000	0.079	0.261
-457.026	-167.198	0.131	0.005
-456.011	-71.319	0.102	-0.038
-454.997	-17.920	-0.099	-0.062
-453.982	126.600	0.298	0.376
-452.968	-65.435	-0.133	0.053
-451.953	102.189	0.164	-0.191
-450.938	9.827	-0.190	-0.144
-449.924	13.673	-0.201	-0.156
-448.909	-175.862	-0.132	0.004
-447.895	-200.000	-0.033	-0.196
-446.880	-65.311	0.352	-0.141
-445.865	-123.957	0.290	-0.046
-444.851	-3.673	0.196	-0.136
-443.836	-98.311	-0.203	-0.052
-442.822	-200.000	0.050	-0.264
-441.807	177.003	0.215	-0.313
-440.792	771.252	0.073	0.199
-439.778	800.000	-0.020	0.062
-438.763	36.665	0.265	-0.233
-437.749	-140.798	-0.495	0.051
-436.734	-200.000	-0.033	-0.209
-435.719	-200.000	0.011	-0.091
-434.705	550.754	0.119	0.284
-433.690	-200.000	0.015	0.152
-432.676	-138.547	-0.080	-0.009
-431.661	-4.770	0.265	-0.182
-430.646	395.245	0.047	0.097
-429.632	28.950	-0.421	-0.356
-428.617	800.000	-0.010	0.039
-427.603	-128.666	0.538	-0.076
-426.588	-200.000	0.013	-0.205
-425.573	79.313	0.225	-0.240
-424.559	800.000	-0.117	0.323
-423.544	-88.382	0.304	-0.091
-422.530	-78.047	-0.233	0.080
-421.515	-114.094	0.319	0.061
-420.500	-62.657	0.146	0.061
-419.486	-2.886	0.257	0.179
-418.471	105.715	0.152	0.179
-417.457	7.726	0.324	0.242
-416.442	-200.000	0.021	0.312
-415.428	192.480	-0.111	0.167
-414.413	800.000	-0.152	-0.442
-413.398	800.000	-0.071	-0.201
-412.384	800.000	-0.097	-0.290
-411.369	-157.449	0.298	-0.018
-410.355	11.177	-0.216	0.165
-409.340	-25.697	-0.165	0.097
-408.325	-200.000	0.025	-0.115
-407.311	333.774	0.082	0.158
-406.296	208.047	0.088	0.136
-405.282	-23.362	0.088	0.053
-404.267	-125.390	0.269	0.041
-403.252	-72.522	-0.116	0.043
-402.238	-140.478	-0.104	-0.011
-401.223	106.551	-0.046	-0.055
-400.209	-200.000	0.029	0.198
-399.194	67.812	0.190	-0.193
-398.179	244.222	0.144	0.241
-397.165	-200.000	0.001	-0.046
-396.150	-158.318	0.150	0.009
-395.136	65.716	-0.142	0.143
-394.121	-88.236	-0.174	0.052
-393.106	23.891	-0.177	0.145
-392.092	-200.000	0.002	0.113
-391.077	800.000	-0.038	-0.118
-390.063	-200.000	0.106	0.000
-389.048	126.579	-0.055	0.069
-388.033	-200.000	0.093	-0.519
-387.019	-128.105	0.108	0.015
-386.004	-200.000	-0.049	0.266
-384.990	-200.000	-0.014	0.316
-383.975	-17.241	0.304	-0.191
-382.960	-200.000	0.014	-0.197
-381.946	-100.912	-0.025	0.006
-380.931	-200.000	0.218	-0.001
-379.917	23.743	0.082	0.067
-378.902	-64.365	0.224	0.091
-377.888	37.742	0.177	0.156
-376.873	329.859	0.077	0.148
-375.858	-200.000	-0.028	-0.227
-374.844	60.767	0.133	0.131
-373.829	-200.000	0.018	-0.298
-372.815	-200.000	0.015	-0.385
-371.800	27.882	0.176	0.147
-370.785	800.000	0.033	0.120
-369.771	-76.982	0.127	0.044
-368.756	-6.032	0.253	-0.172
-367.742	-200.000	0.021	0.105
-366.727	-60.459	-0.294	-0.124
-365.712	-125.719	0.160	0.024
-364.698	-142.724	0.240	-0.023
-363.683	-78.754	0.173	0.059
-362.669	-54.104	-0.082	0.037
-361.654	-24.942	-0.164	-0.097
-360.639	-185.887	0.132	-0.002
-359.625	-152.910	-0.105	0.007
-358.610	169.141	-0.041	0.058
-357.596	-113.467	-0.159	-0.031
-356.581	-129.300	0.218	-0.030
-355.566	101.040	-0.215	-0.249
-354.552	-41.008	-0.106	-0.054
-353.537	-103.371	0.102	0.024
-352.523	-66.252	0.495	0.196
-351.508	-40.372	0.219	0.113
-350.493	146.812	-0.274	0.366
-349.479	118.770	-0.201	0.247
-348.464	-200.000	0.014	0.126
-347.450	-200.000	0.047	-0.277
-346.435	-200.000	-0.035	0.432
-345.420	-50.681	0.088	0.041
-344.406	-66.710	-0.235	0.093
-343.391	-140.087	-0.326	-0.034
-342.377	-10.883	-0.189	0.124
-341.362	-114.317	-0.218	-0.042
-340.348	53.732	0.249	0.237
-339.333	-65.697	0.277	-0.110
-338.318	800.000	0.034	0.099
-337.304	-63.867	0.193	0.079
-336.289	15.630	-0.262	0.204
-335.275	278.354	-0.127	-0.224
-334.260	-63.688	-0.104	0.042
-333.245	327.593	-0.097	-0.184
-332.231	800.000	-0.033	-0.118
-331.216	14.400	0.324	0.251
-330.202	-23.758	-0.050	-0.030
-329.187	408.705	-0.108	0.227
-328.172	-55.831	-0.240	-0.106
-327.158	-95.603	-0.207	-0.055
-326.143	-13.031	-0.046	0.030
-325.129	-200.000	0.027	-0.366
-324.114	-136.767	-0.538	0.062
-323.099	-200.000	-0.003	-0.063
-322.085	40.383	0.124	-0.111
-321.070	23.826	-0.276	0.226
-320.056	-200.000	0.026	-0.225
-319.041	-200.000	-0.006	-0.029
-318.026	-152.245	-0.238	-0.017
-317.012	-200.000	-0.014	0.276
-315.997	499.279	0.262	0.598
-314.983	258.389	-0.193	0.330
-313.968	-181.779	0.093	0.002
-312.953	128.536	-0.166	0.210
-311.939	800.000	0.024	0.075
-310.924	328.779	0.031	-0.059
-309.910	-105.249	0.136	0.031
-308.895	543.622	-0.072	0.171
-307.880	-200.000	0.078	-0.408
-306.866	13.562	0.343	0.264
-305.851	123.774	-0.068	0.085
-304.837	-200.000	0.006	0.211
-303.822	84.283	-0.088	0.096
-302.807	-161.073	0.182	0.009
-301.793	-200.000	-0.003	-0.391
-300.778	332.017	0.146	-0.280
-299.764	53.265	0.272	-0.258
-298.749	-75.664	0.217	0.076
-297.735	293.248	0.047	-0.085
-296.720	-29.073	-0.129	-0.074
-295.705	50.281	0.111	-0.104
-294.691	242.554	0.088	0.146
-293.676	21.398	0.237	0.191
-292.662	82.575	0.033	-0.035
-291.647	-156.707	-0.024	0.001
-290.632	800.000	0.092	-0.275
-289.618	-16.706	0.124	0.078
-288.603	28.870	-0.231	-0.194
-287.589	-65.344	-0.099	0.039
-286.574	53.342	-0.295	-0.280
-285.559	800.000	-0.041	-0.144
-284.545	-92.976	-0.166	-0.046
-283.530	-107.600	-0.334	0.072
-282.516	800.000	-0.052	-0.195
-281.501	-120.448	0.212	-0.036
-280.486	800.000	0.016	-0.046
-279.472	-120.098	0.215	-0.037
-278.457	-45.666	-0.158	-0.078
-277.443	-200.000	0.014	0.064
-276.428	-200.000	-0.044	0.362
-275.413	174.308	-0.160	-0.229
-274.399	245.484	-0.163	-0.272
-273.384	-200.000	0.019	0.147
-272.370	-172.649	-0.104	0.003
-271.355	-13.378	0.213	-0.137
-270.340	37.909	-0.043	0.038
-269.326	249.324	0.137	0.230
-268.311	-146.649	-0.383	0.033
-267.297	87.088	0.053	0.058
-266.282	-50.940	-0.211	0.098
-265.267	35.529	0.051	0.044
-264.253	-200.000	0.042	-0.185
-263.238	800.000	-0.031	-0.116
-262.224	-3.087	-0.093	-0.064
-261.209	-38.878	0.085	-0.044
-260.195	91.208	-0.124	0.138
-259.180	370.005	0.137	0.275
-258.165	245.758	-0.074	-0.123
-257.151	-200.000	0.025	-0.116
-256.136	67.108	0.274	-0.276
-255.122	28.798	0.149	0.125
-254.107	-4.659	0.417	0.285
-253.092	20.141	0.198	0.158
-252.078	-200.000	-0.030	0.322
-251.063	17.165	-0.122	-0.096
-250.049	669.299	-0.066	-0.169
-249.034	-19.823	-0.223	-0.136
-248.019	800.000	-0.006	-0.021
-247.005	79.668	-0.169	-0.180
-245.990	189.282	0.003	-0.005
-244.976	231.298	-0.220	0.356
-243.961	105.983	0.186	0.218
-242.946	-162.852	-0.286	0.014
-241.932	800.000	-0.021	-0.075
-240.917	56.694	-0.120	0.116
-239.903	-95.505	-0.016	-0.004
-238.888	605.988	-0.067	-0.166
-237.873	-143.928	-0.133	0.012
-236.859	769.775	0.023	0.061
-235.844	143.988	0.037	0.049
-234.830	-89.377	-0.326	-0.095
-233.815	217.125	0.028	-0.044
-232.800	-200.000	-0.013	0.302
-231.786	-200.000	0.056	0.343
-230.771	467.096	-0.135	-0.298
-229.757	-27.413	0.299	0.172
-228.742	778.427	-0.039	-0.104
-227.727	438.420	0.160	-0.346
-226.713	-200.000	-0.005	-0.198
-225.698	582.091	0.136	-0.330
-224.684	506.074	-0.013	0.031
-223.669	447.154	0.081	-0.175
-222.655	-127.172	0.143	-0.021
-221.640	-200.000	-0.023	0.150
-220.625	493.289	-0.045	-0.102
-219.611	11.318	0.194	-0.147
-218.596	51.525	0.138	-0.130
-217.582	-200.000	0.016	0.305
-216.567	-118.549	0.300	-0.052
-215.552	-200.000	-0.000	-0.041
-214.538	-200.000	0.011	0.067
-213.523	92.229	-0.076	0.085
-212.509	93.526	0.057	0.064
-211.494	39.877	-0.095	-0.084
-210.479	-31.277	0.038	-0.021
-209.465	169.721	-0.055	0.078
-208.450	294.278	-0.136	0.245
-207.436	363.450	-0.120	0.238
-206.421	77.090	0.261	-0.274
-205.406	-188.580	0.209	-0.003
-204.392	-187.408	-0.323	0.004
-203.377	193.695	0.262	0.392
-202.363	-36.392	0.208	0.111
-201.348	-200.000	-0.068	-0.454
-200.333	800.000	-0.091	0.318
-199.319	800.000	0.011	0.039
-198.304	-121.761	-0.024	0.004
-197.290	800.000	0.092	-0.293
-196.275	-200.000	-0.022	-0.294
-195.260	-40.046	-0.198	0.102
-194.246	-30.962	0.331	0.185
-193.231	-200.000	-0.016	-0.132
-192.217	492.116	0.038	-0.085
-191.202	-112.542	0.135	0.027
-190.187	800.000	0.053	0.224
-189.173	110.453	-0.263	-0.312
-188.158	11.540	-0.148	0.112
-187.144	174.233	0.115	0.164
-186.129	-153.189	-0.453	-0.031
-185.114	-127.556	0.417	0.060
-184.100	-119.107	-0.194	0.034
-183.085	-148.843	-0.289	0.023
-182.071	-130.186	0.382	0.051
-181.056	-62.821	-0.039	0.016
-180.042	83.418	-0.199	0.214
-179.027	-63.190	-0.325	0.132
-178.012	165.624	-0.116	0.162
-176.998	197.263	0.087	0.131
-175.983	42.529	-0.120	0.108
-174.969	-200.000	-0.009	-0.321
-173.954	96.000	0.057	0.064
-172.939	-148.020	-0.434	0.036
-171.925	-84.392	-0.211	0.066
-170.910	245.107	-0.120	-0.200
-169.896	-149.188	-0.293	0.023
-168.881	-200.000	-0.005	0.156
-167.866	476.624	0.120	-0.267
-166.852	140.690	0.115	0.149
-165.837	-53.578	0.116	0.052
-164.823	-79.287	0.037	0.012
-163.808	303.262	-0.180	0.329
-162.793	-125.508	-0.349	0.052
-161.779	57.607	-0.110	-0.106
-160.764	-160.489	0.173	0.009
-159.750	32.590	-0.123	-0.104
-158.735	-200.000	-0.011	-0.093
-157.720	-94.076	-0.202	-0.055
-156.706	-2.771	0.098	0.067
-155.691	-103.308	0.315	-0.073
-154.677	136.949	-0.099	-0.127
-153.662	800.000	0.028	-0.112
-152.647	800.000	-0.026	-0.096
-151.633	-49.809	-0.101	0.047
-150.618	-43.737	0.225	-0.112
-149.604	50.234	-0.021	0.020
-148.589	-94.720	0.271	0.073
-147.574	649.514	0.024	0.060
-146.560	-88.471	0.127	0.037
-145.545	487.145	-0.105	-0.236
-144.531	-44.863	-0.266	-0.131
-143.516	800.000	0.107	0.324
-142.502	-127.023	0.197	-0.029
-141.487	-78.831	0.353	-0.119
-140.472	-46.559	-0.236	-0.114
-139.458	800.000	-0.046	0.184
-138.443	3.566	0.087	0.062
-137.429	-25.433	-0.094	0.055
-136.414	-51.687	-0.157	-0.072
-135.399	10.709	0.141	-0.106
-134.385	-65.125	0.457	0.181
-133.370	424.575	0.095	-0.201
-132.356	-200.000	0.018	-0.315
-131.341	0.323	-0.229	0.161
-130.326	-200.000	-0.037	0.302
-129.312	-151.024	0.296	-0.022
-128.297	115.834	0.111	0.134
-127.283	-89.573	-0.032	-0.009
-126.268	70.789	-0.114	0.116
-125.253	-179.826	0.092	-0.002
-124.239	156.002	-0.168	0.229
-123.224	-60.640	0.127	0.053
-122.210	800.000	-0.024	-0.080
-121.195	800.000	-0.067	-0.281
-120.180	-176.171	-0.125	0.003
-119.166	-200.000	-0.048	0.351
-118.151	37.141	-0.215	-0.187
-117.137	64.117	-0.254	0.251
-116.122	356.291	0.024	0.046
-115.107	-200.000	0.007	0.085
-114.093	114.159	0.274	0.329
-113.078	-108.069	-0.184	0.039
-112.064	-12.783	-0.046	-0.029
-111.049	-80.334	0.313	0.103
-110.034	223.281	-0.097	-0.155
-109.020	800.000	-0.021	-0.073
-108.005	422.954	-0.123	0.259
-106.991	-85.145	-0.100	-0.031
-105.976	35.421	0.202	0.175
-104.962	-200.000	-0.009	0.181
-103.947	653.362	0.090	0.226
-102.932	-167.099	0.281	0.011
-101.918	696.603	0.088	-0.227
-100.903	-35.131	-0.263	0.141
-99.889	-31.223	-0.361	-0.200
-98.874	179.054	-0.056	-0.080
-97.859	-200.000	0.001	0.248
-96.845	-200.000	0.006	-0.180
-95.830	127.111	0.123	-0.154
-94.816	-33.194	-0.116	-0.063
-93.801	-121.126	-0.370	-0.061
-92.786	-81.762	0.155	-0.050
-91.772	-200.000	-0.041	0.206
-90.757	231.161	0.103	0.167
-89.743	40.979	0.157	-0.139
-88.728	-200.000	-0.054	0.340
-87.713	121.067	0.184	-0.225
-86.699	-6.174	-0.284	0.191
-85.684	800.000	-0.052	0.223
-84.670	-85.360	0.270	-0.083
-83.655	800.000	0.056	-0.232
-82.640	800.000	-0.108	0.376
-81.626	127.114	0.054	-0.067
-80.611	653.518	0.080	-0.201
-79.597	-66.857	0.054	-0.021
-78.582	-14.421	-0.208	0.131
-77.567	149.847	0.106	-0.141
-76.553	-97.801	0.160	0.041
-75.538	38.538	0.132	0.116
-74.524	800.000	0.099	-0.282
-73.509	800.000	-0.067	-0.185
-72.494	-36.195	-0.141	0.075
-71.480	264.696	0.119	0.204
-70.465	200.352	-0.052	-0.078
-69.451	520.927	-0.069	-0.159
-68.436	84.816	-0.177	-0.190
-67.422	-200.000	0.015	0.088
-66.407	800.000	0.064	0.221
-65.392	468.899	0.132	-0.291
-64.378	186.872	0.081	0.118
-63.363	8.500	0.348	0.257
-62.349	127.469	0.137	0.171
-61.334	138.743	-0.814	-1.050
-60.319	39.610	0.393	0.346
-59.305	-200.000	-0.207	-1.365
-58.290	122.869	0.787	0.968
-57.276	241.519	0.643	1.055
-56.261	-200.000	98.063	591.046
-55.246	580.591	1421.647	3421.818
-54.232	186.308	2627.681	3840.629
-53.217	119.312	2171.429	2639.303
-52.203	43.093	1611.600	1444.246
-51.188	33.983	1342.438	1148.282
-50.173	30.724	1299.853	1092.712
-49.159	54.501	1349.369	1276.994
-48.144	55.398	1365.743	1297.791
-47.130	34.193	1323.307	1132.985
-46.115	30.665	1305.799	1097.184
-45.100	30.391	1301.209	1091.676
-44.086	30.499	1298.124	1089.675
-43.071	30.322	1296.527	1087.258
-42.057	30.408	1293.984	1085.585
-41.042	30.304	1292.482	1083.671
-40.027	30.427	1290.878	1083.001
-39.013	30.434	1289.131	1081.536
-37.998	30.427	1287.514	1080.094
-36.984	30.450	1285.591	1078.574
-35.969	30.519	1283.994	1077.587
-34.954	30.515	1282.295	1076.097
-33.940	30.433	1281.076	1074.556
-32.925	30.565	1279.318	1073.804
-31.911	30.473	1278.538	1072.572
-30.896	30.620	1276.592	1071.746
-29.881	30.490	1275.654	1070.166
-28.867	30.566	1274.511	1069.602
-27.852	30.676	1272.467	1068.477
-26.838	30.638	1271.277	1067.217
-25.823	30.643	1270.293	1066.376
-24.809	30.490	1269.045	1064.413
-23.794	30.543	1267.538	1063.410
-22.779	30.564	1266.001	1062.199
-21.765	30.639	1264.726	1061.515
-20.750	30.538	1263.522	1059.883
-19.736	30.538	1261.941	1058.517
-18.721	30.374	1261.461	1057.140
-17.706	30.443	1260.116	1056.362
-16.692	30.399	1258.882	1055.036
-15.677	30.311	1258.162	1053.890
-14.663	30.422	1256.633	1053.197
-13.648	30.370	1255.545	1051.951
-12.633	30.430	1254.360	1051.256
-11.619	30.369	1253.901	1050.480
-10.604	30.376	1252.847	1049.596
-9.590	30.381	1252.399	1049.210
-8.575	30.382	1250.479	1047.565
-7.560	30.355	1249.747	1046.757
-6.546	30.435	1248.733	1046.315
-5.531	30.358	1248.571	1045.706
-4.517	30.380	1247.486	1044.878
-3.502	30.440	1246.256	1044.145
-2.487	30.415	1245.517	1043.347
-1.473	30.496	1242.121	1040.913
-0.458	29.675	1228.221	1024.671
0.556	27.218	1211.361	991.767
1.571	24.051	1217.972	979.690
2.586	23.094	1232.949	986.317
3.600	22.007	1221.142	970.776
4.615	16.081	1147.815	881.512
5.629	7.519	1073.970	782.670
6.644	3.940	1054.190	750.845
7.659	3.724	1051.462	747.789
8.673	3.613	1050.875	746.768
9.688	3.814	1049.536	746.724
10.702	3.985	1047.527	746.052
11.717	8.742	1054.826	774.227
12.731	16.830	1065.426	821.289
13.746	19.897	1068.910	838.791
14.761	19.462	1067.704	835.661
15.775	18.566	1065.973	829.900
16.790	17.641	1063.673	823.566
17.804	16.860	1062.272	818.641
18.819	16.585	1061.464	816.616
19.834	16.273	1060.470	814.274
20.848	16.203	1059.688	813.267
21.863	15.993	1058.571	811.325
22.877	15.849	1058.198	810.273
23.892	15.980	1056.899	809.838
24.907	15.838	1056.642	808.888
25.921	15.839	1055.722	808.115
26.936	15.944	1054.036	807.256
27.950	15.947	1052.978	806.388
28.965	15.964	1051.146	804.998
29.980	16.153	1049.824	804.815
30.994	16.240	1048.624	804.238
32.009	16.251	1047.866	803.638
33.023	16.057	1047.196	802.129
34.038	16.024	1045.872	800.889
35.053	15.889	1044.955	799.477
36.067	16.058	1043.727	799.268
37.082	15.994	1043.314	798.576
38.096	16.120	1042.598	798.556
39.111	16.011	1041.978	797.490
40.126	15.948	1040.318	795.855
41.140	15.707	1039.066	793.689
42.155	15.714	1037.845	792.718
43.169	15.653	1036.650	791.449
44.184	15.597	1035.623	790.331
45.199	15.646	1035.199	790.166
46.213	15.847	1033.472	789.721
47.228	15.910	1032.572	789.258
48.242	16.018	1031.658	788.996
49.257	16.002	1030.634	788.071
50.271	16.070	1030.026	787.852
51.286	16.146	1028.739	787.151
52.301	15.935	1028.296	785.758
53.315	15.888	1027.272	784.691
54.330	15.840	1026.023	783.443
55.344	15.819	1025.372	782.781
56.359	15.921	1024.165	782.263
57.374	15.804	1023.385	781.052
58.388	15.621	1022.340	779.339
59.403	15.623	1021.880	778.929
60.417	15.627	1021.181	778.344
61.432	15.687	1020.170	777.784
62.447	15.555	1019.347	776.477
63.461	15.624	1018.689	776.224
64.476	15.634	1017.067	774.965
65.490	15.618	1016.636	774.496
66.505	15.470	1016.491	773.633
67.520	15.431	1015.841	772.893
68.534	15.614	1014.803	772.876
69.549	15.662	1013.946	772.375
70.563	15.493	1013.142	770.918
71.578	15.558	1011.801	770.129
72.593	15.561	1010.914	769.401
73.607	15.447	1011.009	768.880
74.622	15.379	1010.308	767.967
75.636	15.474	1009.533	767.748
76.651	15.494	1008.771	767.191
77.666	15.605	1007.948	767.001
78.680	15.571	1007.224	766.229
79.695	15.500	1006.870	765.569
80.709	15.613	1006.511	765.741
81.724	15.746	1005.708	765.669
82.739	15.618	1005.517	764.871
83.753	16.028	1004.256	765.708
84.768	16.075	1003.380	765.185
85.782	16.193	1002.376	764.888
86.797	16.160	1001.512	764.012
87.812	16.061	1000.460	762.693
88.826	15.985	999.577	761.609
89.841	16.209	998.416	761.672
90.855	16.031	998.424	760.807
91.870	16.055	997.516	760.157
92.884	15.992	996.634	759.129
93.899	16.324	995.073	759.366
94.914	16.180	994.565	758.265
95.928	16.112	994.094	757.533
96.943	16.197	992.952	756.980
97.957	16.024	992.628	755.890
98.972	15.987	991.654	754.915
99.987	16.012	990.612	754.164
101.001	16.071	989.797	753.743
102.016	16.043	989.197	753.094
103.030	16.077	988.088	752.336
104.045	16.121	987.369	751.916
105.060	16.113	986.338	751.030
106.074	15.881	985.335	749.166
107.089	15.701	984.591	747.733
108.103	15.670	983.483	746.690
109.118	15.749	982.251	746.036
110.133	15.674	981.615	745.156
111.147	15.708	980.675	744.529
112.162	15.734	980.411	744.375
113.176	15.711	979.858	743.788
114.191	15.808	978.736	743.299
115.206	15.795	977.995	742.616
116.220	15.673	977.362	741.529
117.235	15.767	975.946	740.803
118.249	15.754	975.240	740.147
119.264	15.737	974.075	739.120
120.279	15.631	973.506	738.158
121.293	15.593	972.803	737.394
122.308	15.516	971.879	736.289
123.322	15.549	970.979	735.688
124.337	15.587	969.951	735.008
125.352	15.451	968.976	733.611
126.366	15.430	967.898	732.639
127.381	15.687	966.543	732.668
128.395	15.694	965.751	732.035
129.410	15.682	965.098	731.423
130.424	15.766	964.269	731.092
131.439	15.810	963.621	730.729
132.454	15.778	962.949	730.015
133.468	15.780	962.292	729.463
134.483	15.835	961.271	728.860
135.497	15.889	960.136	728.170
136.512	15.874	959.171	727.309
137.527	15.870	958.749	726.908
138.541	15.762	958.252	726.001
139.556	15.896	956.995	725.559
140.570	15.944	956.903	725.635
141.585	15.993	956.051	725.134
142.600	16.074	954.924	724.562
143.614	16.172	954.223	724.389
144.629	16.164	953.601	723.819
145.643	16.131	952.375	722.681
146.658	16.082	951.383	721.655
147.673	15.786	950.615	719.743
148.687	15.946	949.227	719.314
149.702	15.824	948.843	718.438
150.716	15.933	947.884	718.111
151.731	15.851	947.375	717.314
152.746	15.988	946.638	717.275
153.760	15.900	946.189	716.498
154.775	16.078	945.890	716.965
155.789	16.063	945.171	716.294
156.804	16.075	944.200	715.546
157.819	16.185	943.562	715.463
158.833	16.081	943.320	714.776
159.848	16.157	942.158	714.154
160.862	16.217	940.764	713.288
161.877	16.008	939.626	711.477
162.892	15.966	938.865	710.665
163.906	15.863	938.063	709.558
164.921	15.921	937.353	709.202
165.935	16.017	936.349	708.785
166.950	16.165	935.344	708.585
167.964	16.082	934.552	707.570
168.979	16.029	933.417	706.429
169.994	16.127	932.448	706.041
171.008	16.056	932.194	705.492
172.023	16.136	931.683	705.376
173.037	16.127	931.159	704.878
174.052	16.076	930.426	704.047
175.067	16.111	929.107	703.135
176.081	15.960	928.746	702.170
177.096	16.043	928.068	701.941
178.110	15.962	927.877	701.397
179.125	15.956	927.482	701.013
180.140	16.169	926.745	701.276
181.154	16.157	926.511	700.989
182.169	16.225	926.220	700.988
183.183	16.311	925.701	700.890
184.198	16.327	924.366	699.887
185.213	16.282	923.892	699.279
186.227	16.345	922.952	698.764
187.242	16.423	922.444	698.642
188.256	16.632	921.606	698.808
189.271	16.519	921.086	697.885
190.286	16.255	920.037	695.941
191.300	16.023	919.273	694.346
192.315	15.928	918.824	693.555
193.329	15.941	918.360	693.195
194.344	16.064	917.233	692.787
195.359	16.152	917.454	693.258
196.373	16.413	915.973	693.147
197.388	16.629	915.847	693.876
198.402	16.580	915.619	693.440
199.417	16.578	915.009	692.909
200.432	16.639	914.756	692.907
201.446	16.813	913.852	692.872
202.461	16.776	913.500	692.393
203.475	16.663	912.890	691.405
204.490	16.715	911.651	690.622
205.504	16.549	911.208	689.545
206.519	16.554	910.396	688.893
207.534	16.469	910.332	688.434
208.548	16.527	909.365	687.881
209.563	16.552	908.587	687.331
210.577	16.580	908.010	686.948
211.592	16.797	907.281	687.217
212.607	16.813	906.589	686.694
213.621	16.842	905.754	686.119
214.636	16.736	905.202	685.213
215.650	16.858	904.215	684.895
216.665	16.782	903.962	684.339
217.680	16.901	903.268	684.234
218.694	17.000	902.413	683.923
219.709	16.815	902.195	682.950
220.723	16.797	901.682	682.432
221.738	16.841	900.818	681.894
222.753	16.876	899.831	681.229
223.767	16.879	899.915	681.243
224.782	16.942	898.961	680.714
225.796	17.090	898.738	681.079
226.811	16.974	897.794	679.836
227.826	16.788	896.785	678.269
228.840	16.911	895.960	678.074
229.855	16.859	895.095	677.155
230.869	16.790	894.630	676.465
231.884	16.791	894.244	676.119
232.899	16.763	893.345	675.268
233.913	16.652	892.759	674.322
234.928	16.676	892.043	673.817
235.942	16.676	891.433	673.295
236.957	16.678	891.149	673.030
237.972	16.825	890.081	672.749
238.986	16.865	889.434	672.359
240.001	16.858	888.920	671.884
241.015	16.818	888.094	671.042
242.030	16.806	887.712	670.647
243.045	16.891	887.518	670.777
244.059	16.809	886.915	669.934
245.074	16.927	886.260	669.850
246.088	17.032	885.527	669.650
247.103	17.150	884.938	669.611
248.117	17.347	884.478	669.978
249.132	17.430	884.101	669.961
250.147	17.509	883.666	669.884
251.161	17.529	882.943	669.355
252.176	17.525	882.500	668.945
253.190	17.692	881.825	669.026
254.205	17.498	881.338	667.837
255.220	17.649	880.394	667.656
256.234	17.448	879.863	666.408
257.249	17.597	878.977	666.261
258.263	17.585	878.141	665.519
259.278	17.510	877.884	664.974
260.293	17.588	877.269	664.752
261.307	17.659	876.825	664.636
262.322	17.697	876.213	664.259
263.336	17.717	875.173	663.489
264.351	17.641	874.696	662.773
265.366	17.931	873.546	662.972
266.380	17.771	873.160	661.999
267.395	17.701	872.747	661.354
268.409	17.717	871.939	660.745
269.424	17.614	871.452	659.918
270.439	17.738	870.211	659.403
271.453	17.561	869.980	658.485
272.468	17.624	869.409	658.239
273.482	17.636	868.657	657.656
274.497	17.736	868.186	657.624
275.512	17.752	867.553	657.151
276.526	17.750	867.102	656.744
277.541	17.672	866.828	656.176
278.555	17.814	866.102	656.114
279.570	17.903	865.844	656.206
280.585	17.861	864.972	655.323
281.599	17.785	864.193	654.385
282.614	17.730	863.521	653.607
283.628	17.826	862.638	653.248
284.643	17.875	862.102	652.973
285.657	17.858	861.666	652.517
286.672	17.910	860.896	652.078
287.687	17.891	860.442	651.603
288.701	17.819	860.150	651.048
289.716	17.938	859.253	650.765
290.730	17.904	859.059	650.433
291.745	17.826	858.066	649.326
292.760	18.041	857.399	649.579
293.774	18.083	857.300	649.608
294.789	18.080	856.373	648.837
295.803	18.051	855.589	648.075
296.818	18.006	854.701	647.174
297.833	17.826	854.248	646.094
298.847	18.116	853.588	646.636
299.862	18.030	853.289	646.026
300.876	18.179	852.792	646.156
301.891	18.162	852.726	645.984
302.906	18.060	851.933	644.941
303.920	18.433	851.615	646.051
304.935	18.362	850.747	645.066
305.949	18.290	849.866	644.069
306.964	18.294	849.138	643.477
307.979	18.341	848.835	643.367
308.993	18.417	848.128	643.060
310.008	18.441	847.644	642.723
311.022	18.339	847.068	641.850
312.037	18.284	846.159	640.899
313.052	17.970	845.951	639.507
314.066	18.001	845.083	638.912
315.081	18.146	844.481	638.941
316.095	18.159	844.213	638.730
317.110	18.078	843.482	637.820
318.125	18.125	842.994	637.570
319.139	18.210	842.418	637.395
320.154	18.159	841.963	636.804
321.168	18.011	841.715	636.006
322.183	18.195	840.966	636.069
323.197	18.291	840.447	635.978
324.212	18.170	840.153	635.249
325.227	18.103	839.547	634.486
326.241	18.087	838.596	633.651
327.256	18.195	838.314	633.784
328.270	18.105	837.780	632.990
329.285	18.293	836.814	632.898
330.300	18.219	836.708	632.490
331.314	18.255	836.171	632.159
332.329	18.273	836.196	632.191
333.343	18.377	835.732	632.169
334.358	18.287	835.336	631.480
335.373	18.424	834.292	631.140
336.387	18.605	834.102	631.606
337.402	18.615	834.157	631.628
338.416	18.545	833.936	631.149
339.431	18.798	833.272	631.519
340.446	18.647	833.273	630.908
341.460	18.817	832.589	630.959
342.475	18.922	831.890	630.760
343.489	18.899	831.707	630.481
344.504	18.935	830.882	629.932
345.519	18.964	830.876	629.978
346.533	19.023	830.207	629.632
347.548	18.818	829.557	628.332
348.562	18.638	828.795	627.043
349.577	18.561	828.294	626.325
350.592	18.583	827.488	625.740
351.606	18.539	826.923	625.098
352.621	18.753	826.054	625.164
353.635	18.664	825.779	624.578
354.650	18.745	825.055	624.271
355.665	18.824	824.577	624.141
356.679	18.810	824.072	623.651
357.694	18.774	823.677	623.166
358.708	18.857	822.754	622.716
359.723	18.734	822.360	621.915
360.738	18.823	821.854	621.799
361.752	18.864	821.199	621.399
362.767	19.004	820.535	621.345
363.781	19.028	820.222	621.139
364.796	19.111	819.809	621.074
365.810	19.249	819.748	621.469
366.825	19.200	818.972	620.651
367.840	19.192	818.534	620.233
368.854	19.171	818.246	619.884
369.869	19.098	817.864	619.280
370.883	19.205	817.336	619.207
371.898	19.356	816.725	619.234
372.913	19.271	816.309	618.556
373.927	19.298	815.842	618.246
374.942	19.229	815.113	617.391
375.956	19.326	815.178	617.733
376.971	19.370	814.446	617.281
377.986	19.490	813.911	617.251
379.000	19.357	813.921	616.727
380.015	19.486	812.922	616.379
381.029	19.496	812.470	616.014
382.044	19.409	811.973	615.273
383.059	19.516	811.304	615.093
384.073	19.440	810.921	614.480
385.088	19.288	810.421	613.506
386.102	19.251	809.687	612.762
387.117	19.115	809.262	611.902
388.132	19.308	808.354	611.847
389.146	19.462	807.680	611.830
390.161	19.315	807.881	611.405
391.175	19.369	807.419	611.193
392.190	19.344	806.557	610.398
393.205	19.258	806.354	609.886
394.219	19.329	805.525	609.457
395.234	19.245	805.294	608.930
396.248	19.240	804.775	608.467
397.263	19.207	804.496	608.085
398.278	19.162	804.187	607.640
399.292	19.193	803.666	607.301
400.307	19.224	803.063	606.901
401.321	19.199	802.846	606.595
402.336	19.319	801.986	606.314
403.350	19.350	802.069	606.433
404.365	19.665	801.503	607.058
405.380	19.788	800.719	606.844
406.394	19.789	800.324	606.494
407.409	19.681	799.997	605.812
408.423	19.686	799.748	605.587
409.438	19.985	799.329	606.266
410.453	19.962	798.698	605.650
411.467	19.858	798.799	605.310
412.482	19.939	798.534	605.339
413.496	20.022	797.599	604.867
414.511	19.967	797.443	604.501
415.526	19.966	796.812	603.968
416.540	19.900	796.728	603.619
417.555	19.874	796.110	603.007
418.569	19.988	795.431	602.837
419.584	20.081	795.043	602.813
420.599	19.887	794.935	602.004
421.613	159.686	1370.389	1793.090
422.628	138.423	1454.230	1793.205
