DTS Sentinel unit serial number:	SN413079Multiplexer serial number:	ORYXHardware model number:	OX4-SRSoftware version number:	ORYX F/W v4.00 Oryx Data Collector v3.7.2.0data status	okinstallation	princeton_trtdifferential loss correction	single-endedforward channel	channel 1reverse channel	N/Adate	2019/09/12time	11:08:11forward acquisition time	60.00reverse acquisition time	0.00gamma	496.2192k internal	0.2296k external	0.2296temperature offset calibration	1.0048default loss term (dB/km)	0.3790temperature slope calibration	1.0000multiplexer offset coefficient	1.0000multiplexer slope coefficient	1.0000fibre end	0.00T internal ref (°C)	38.69T ext. ref 1 (°C)	1.94T ext. ref 2 (°C)	35.55length (m)	temperature (°C)	Stokes	anti-Stokes-747.200	2.947	0.012	-0.009
-746.185	-23.311	0.119	-0.073
-745.171	373.599	-0.103	0.214
-744.156	13.098	0.123	0.097
-743.142	132.972	-0.177	-0.234
-742.127	39.041	-0.236	0.216
-741.112	800.000	0.075	-0.263
-740.098	-4.681	-0.242	0.171
-739.083	89.153	-0.154	0.175
-738.069	-116.635	-0.129	-0.024
-737.054	800.000	-0.059	-0.256
-736.039	-105.765	-0.196	-0.045
-735.025	-200.000	0.028	-0.208
-734.010	-26.742	0.022	-0.013
-732.996	-200.000	0.028	0.182
-731.981	250.245	0.151	0.262
-730.966	-154.795	-0.193	-0.013
-729.952	-200.000	0.025	-0.276
-728.937	-155.504	0.293	-0.019
-727.923	-200.000	0.001	-0.317
-726.908	-16.912	0.205	0.132
-725.894	-24.985	-0.117	-0.071
-724.879	348.932	-0.098	-0.197
-723.864	-43.465	-0.044	-0.023
-722.850	-22.510	0.212	0.131
-721.835	111.402	0.077	-0.095
-720.821	-3.142	0.193	-0.137
-719.806	-200.000	-0.034	0.156
-718.791	-76.496	-0.284	-0.102
-717.777	660.483	0.095	-0.249
-716.762	-200.000	-0.127	0.001
-715.748	-156.985	-0.322	0.020
-714.733	-200.000	0.017	-0.292
-713.718	187.219	-0.321	-0.488
-712.704	-200.000	-0.009	-0.204
-711.689	-112.537	0.054	0.011
-710.675	-118.479	0.313	-0.057
-709.660	-51.418	-0.260	-0.124
-708.645	564.286	-0.024	-0.059
-707.631	-200.000	-0.053	-0.269
-706.616	10.006	-0.186	0.144
-705.602	-125.294	-0.119	0.018
-704.587	-26.114	-0.190	0.114
-703.572	-114.154	0.334	0.066
-702.558	41.479	0.296	-0.274
-701.543	-84.905	-0.318	-0.102
-700.529	-139.061	0.084	0.009
-699.514	106.369	-0.141	-0.171
-698.499	-80.606	-0.063	0.021
-697.485	458.285	-0.185	-0.419
-696.470	729.285	-0.088	-0.240
-695.456	353.851	0.054	-0.109
-694.441	144.578	0.239	-0.326
-693.426	145.904	0.162	-0.222
-692.412	551.923	0.023	0.057
-691.397	-1.365	-0.100	-0.072
-690.383	-143.072	0.300	0.029
-689.368	-145.213	-0.304	0.028
-688.354	228.367	0.053	0.089
-687.339	800.000	0.091	-0.326
-686.324	800.000	-0.056	-0.249
-685.310	127.858	-0.188	-0.244
-684.295	-37.467	-0.416	-0.226
-683.281	800.000	0.081	0.318
-682.266	-200.000	-0.020	0.282
-681.251	24.704	0.090	0.076
-680.237	-46.608	-0.273	-0.137
-679.222	2.904	0.139	-0.103
-678.208	-200.000	0.028	0.128
-677.193	74.609	-0.122	0.131
-676.178	12.275	0.373	-0.293
-675.164	626.720	0.107	-0.275
-674.149	-53.507	-0.148	-0.069
-673.135	70.930	-0.115	0.122
-672.120	-178.360	0.144	-0.003
-671.105	80.392	-0.153	0.168
-670.091	37.843	-0.448	0.405
-669.076	149.856	-0.121	0.167
-668.062	9.074	0.202	-0.155
-667.047	-62.199	-0.079	-0.034
-666.032	-1.163	0.105	0.075
-665.018	68.397	-0.078	0.082
-664.003	-115.096	-0.543	0.105
-662.989	260.094	0.075	-0.133
-661.974	-67.981	-0.228	0.090
-660.959	142.516	-0.022	0.029
-659.945	-200.000	-0.018	0.158
-658.930	59.053	0.151	0.151
-657.916	57.261	0.036	0.035
-656.901	-105.373	0.309	-0.072
-655.886	-200.000	-0.053	0.265
-654.872	24.196	-0.160	0.135
-653.857	-200.000	-0.017	0.166
-652.843	148.596	-0.062	0.086
-651.828	-200.000	-0.022	-0.184
-650.814	-20.196	0.153	-0.096
-649.799	-200.000	-0.008	0.109
-648.784	145.059	-0.055	0.074
-647.770	-200.000	-0.016	0.490
-646.755	-52.103	-0.133	0.063
-645.741	-99.388	0.388	-0.100
-644.726	391.437	0.079	0.166
-643.711	136.583	-0.133	-0.177
-642.697	507.845	-0.154	-0.364
-641.682	78.411	-0.128	0.139
-640.668	66.464	-0.276	-0.285
-639.653	-200.000	0.004	-0.124
-638.638	-194.565	0.103	0.001
-637.624	29.562	0.085	-0.074
-636.609	-49.588	0.040	0.019
-635.595	-200.000	-0.034	0.214
-634.580	-200.000	0.004	-0.036
-633.565	-200.000	-0.025	0.185
-632.551	-36.072	0.212	-0.117
-631.536	1.275	-0.094	0.068
-630.522	-34.126	-0.083	0.046
-629.507	185.216	-0.140	-0.211
-628.492	800.000	0.029	-0.096
-627.478	-40.940	0.374	-0.197
-626.463	359.555	-0.125	0.254
-625.449	41.704	0.157	-0.145
-624.434	-6.200	0.120	0.083
-623.419	50.896	-0.105	0.101
-622.405	-11.208	-0.284	-0.190
-621.390	30.934	-0.214	0.187
-620.376	538.397	-0.093	-0.224
-619.361	-50.325	-0.059	-0.028
-618.346	134.529	-0.305	-0.403
-617.332	800.000	0.057	-0.184
-616.317	-61.771	0.121	-0.052
-615.303	99.819	0.268	0.315
-614.288	-144.891	-0.054	0.005
-613.273	262.746	0.130	-0.229
-612.259	-64.715	0.233	0.096
-611.244	-200.000	0.002	0.085
-610.230	67.741	-0.161	0.168
-609.215	-35.608	-0.096	-0.053
-608.201	6.141	0.198	-0.149
-607.186	591.216	0.040	-0.101
-606.171	-200.000	0.022	0.415
-605.157	63.812	0.061	-0.063
-604.142	79.306	-0.123	0.134
-603.128	-109.225	0.073	0.016
-602.113	-86.253	-0.139	-0.044
-601.098	254.012	0.071	-0.123
-600.084	-200.000	0.016	-0.139
-599.069	620.947	-0.134	-0.344
-598.055	-200.000	0.018	0.167
-597.040	-20.137	-0.130	-0.081
-596.025	-200.000	-0.094	-0.556
-595.011	-200.000	0.015	0.116
-593.996	-68.439	0.289	-0.114
-592.982	-200.000	0.031	0.491
-591.967	-200.000	0.046	0.292
-590.952	-134.263	-0.257	-0.032
-589.938	0.271	0.132	0.095
-588.923	-13.885	0.054	-0.036
-587.909	-200.000	0.044	-0.200
-586.894	-71.728	0.267	-0.101
-585.879	118.796	-0.233	0.293
-584.865	67.147	-0.132	0.136
-583.850	-57.618	-0.136	-0.060
-582.836	-130.397	0.091	-0.012
-581.821	-57.812	0.143	-0.064
-580.806	-56.321	-0.087	-0.039
-579.792	-76.606	0.256	-0.091
-578.777	299.204	0.076	0.142
-577.763	-14.950	0.064	0.042
-576.748	92.175	0.119	-0.136
-575.733	800.000	-0.038	-0.121
-574.719	22.846	-0.247	-0.205
-573.704	-200.000	-0.024	-0.270
-572.690	800.000	-0.032	-0.127
-571.675	143.361	0.166	-0.225
-570.661	9.787	0.034	0.027
-569.646	-200.000	-0.079	0.361
-568.631	33.870	0.191	0.169
-567.617	-200.000	-0.044	0.353
-566.602	292.391	0.181	0.334
-565.588	-34.382	-0.127	0.071
-564.573	22.991	0.237	0.198
-563.558	-143.684	-0.227	-0.022
-562.544	-54.385	0.395	0.182
-561.529	126.480	-0.130	0.166
-560.515	-86.033	-0.182	-0.057
-559.500	722.135	0.155	-0.418
-558.485	-96.079	-0.071	0.019
-557.471	509.981	0.152	0.357
-556.456	-17.984	0.084	-0.053
-555.442	-94.997	-0.126	-0.034
-554.427	-121.802	-0.177	0.030
-553.412	-154.635	-0.227	-0.015
-552.398	-129.359	0.245	0.035
-551.383	-200.000	0.014	0.073
-550.369	-91.692	-0.066	-0.019
-549.354	-200.000	-0.021	-0.127
-548.339	42.149	0.167	-0.154
-547.325	-49.021	0.099	0.048
-546.310	-200.000	-0.055	-0.273
-545.296	240.644	0.050	0.084
-544.281	-4.584	-0.237	0.166
-543.266	13.074	0.072	0.057
-542.252	-94.374	0.267	-0.074
-541.237	-14.897	-0.083	-0.054
-540.223	6.850	0.200	-0.151
-539.208	127.297	-0.207	-0.266
-538.193	4.836	0.028	0.021
-537.179	-200.000	-0.009	0.323
-536.164	800.000	-0.059	0.183
-535.150	-51.430	0.060	0.029
-534.135	424.018	-0.146	0.318
-533.121	-100.282	0.406	-0.102
-532.106	-108.090	0.297	0.065
-531.091	-37.635	-0.072	0.039
-530.077	-114.125	0.374	-0.073
-529.062	337.815	-0.108	-0.213
-528.048	200.360	-0.166	0.258
-527.033	-7.905	0.266	0.182
-526.018	85.334	-0.062	-0.068
-525.004	800.000	0.082	0.269
-523.989	-138.136	-0.474	-0.053
-522.975	-53.351	-0.045	-0.021
-521.960	-93.018	0.120	-0.034
-520.945	-167.422	-0.031	-0.001
-519.931	201.743	0.172	0.269
-518.916	-200.000	-0.080	0.397
-517.902	195.895	0.101	-0.155
-516.887	-76.804	-0.294	-0.104
-515.872	69.536	-0.126	-0.131
-514.858	-200.000	-0.057	-0.347
-513.843	574.211	-0.148	-0.365
-512.829	159.194	-0.163	-0.230
-511.814	-200.000	-0.005	-0.036
-510.799	-42.905	-0.128	-0.066
-509.785	-85.863	-0.246	-0.077
-508.770	313.312	0.141	-0.269
-507.756	-200.000	0.041	-0.227
-506.741	-200.000	-0.038	0.265
-505.726	-129.414	-0.302	-0.042
-504.712	-13.258	-0.239	-0.157
-503.697	515.776	-0.095	0.225
-502.683	-88.209	0.222	-0.067
-501.668	239.047	0.038	0.065
-500.653	162.616	0.082	-0.116
-499.639	-41.779	-0.185	0.096
-498.624	182.586	-0.151	0.225
-497.610	81.360	0.124	0.136
-496.595	-200.000	0.019	0.087
-495.581	-200.000	-0.026	0.286
-494.566	-55.656	-0.040	0.018
-493.551	800.000	-0.118	-0.371
-492.537	231.728	0.099	-0.164
-491.522	-200.000	0.039	-0.223
-490.508	-102.893	-0.200	-0.048
-489.493	800.000	0.061	-0.192
-488.478	-106.240	0.322	0.073
-487.464	-109.832	0.077	0.016
-486.449	-35.269	-0.171	-0.094
-485.435	302.605	0.077	-0.144
-484.420	-200.000	-0.005	-0.049
-483.405	110.110	-0.119	-0.144
-482.391	-98.929	0.076	-0.019
-481.376	-200.000	0.010	-0.188
-480.362	-48.458	-0.063	0.031
-479.347	74.814	-0.067	0.071
-478.332	435.695	0.017	0.038
-477.318	-190.875	0.179	0.002
-476.303	-145.916	-0.281	0.025
-475.289	-0.070	-0.217	-0.156
-474.274	52.783	0.032	-0.031
-473.259	-200.000	0.003	0.017
-472.245	199.874	-0.075	0.116
-471.230	-61.548	-0.253	-0.107
-470.216	41.203	0.105	-0.096
-469.201	-131.971	-0.086	-0.011
-468.186	-200.000	0.031	0.191
-467.172	57.317	-0.084	-0.083
-466.157	492.198	0.111	-0.257
-465.143	285.822	0.184	0.335
-464.128	35.791	-0.177	-0.157
-463.113	-115.527	0.216	0.041
-462.099	-66.207	-0.420	0.169
-461.084	-122.131	0.112	-0.019
-460.070	64.158	-0.142	0.145
-459.055	-200.000	0.093	0.495
-458.040	-200.000	0.063	-0.361
-457.026	141.257	-0.070	0.094
-456.011	434.428	-0.040	0.088
-454.997	-28.306	0.019	-0.011
-453.982	-27.573	0.390	-0.229
-452.968	172.986	-0.047	0.068
-451.953	66.726	-0.033	0.034
-450.938	800.000	-0.056	0.187
-449.924	-15.071	-0.100	-0.065
-448.909	-145.524	-0.383	0.035
-447.895	-15.701	-0.231	0.149
-446.880	-100.433	-0.429	-0.107
-445.865	-37.076	0.276	-0.149
-444.851	46.903	0.181	0.170
-443.836	116.360	-0.180	0.223
-442.822	-111.145	0.161	-0.033
-441.807	-200.000	-0.021	-0.191
-440.792	129.832	-0.171	0.221
-439.778	-130.545	0.121	0.017
-438.763	-59.231	0.160	-0.069
-437.749	-146.270	-0.168	-0.015
-436.734	133.650	-0.161	-0.210
-435.719	-56.978	0.170	-0.076
-434.705	800.000	0.027	-0.077
-433.690	246.250	-0.141	0.239
-432.676	23.850	-0.235	0.196
-431.661	-100.729	0.279	0.070
-430.646	-200.000	0.013	0.165
-429.632	2.473	-0.055	-0.040
-428.617	-174.497	0.575	-0.017
-427.603	48.079	0.131	0.124
-426.588	156.845	-0.077	0.107
-425.573	-81.337	-0.097	-0.032
-424.559	49.050	0.143	0.136
-423.544	411.051	0.124	-0.266
-422.530	257.572	-0.068	0.117
-421.515	-95.614	-0.320	0.086
-420.500	216.112	-0.109	-0.175
-419.486	152.206	0.099	-0.136
-418.471	23.504	0.155	0.128
-417.457	21.037	-0.048	0.039
-416.442	-60.954	0.200	-0.085
-415.428	-200.000	0.007	-0.274
-414.413	-122.250	-0.133	0.022
-413.398	57.727	0.068	-0.067
-412.384	16.750	0.163	0.130
-411.369	-150.558	0.201	0.016
-410.355	-191.272	0.372	0.004
-409.340	48.090	0.366	0.345
-408.325	102.044	0.238	-0.280
-407.311	800.000	-0.056	-0.230
-406.296	-200.000	-0.027	-0.339
-405.282	-40.770	-0.086	0.045
-404.267	402.552	-0.157	-0.333
-403.252	-131.626	-0.151	0.020
-402.238	-185.282	-0.037	0.001
-401.223	800.000	-0.030	0.114
-400.209	-79.055	-0.127	0.044
-399.194	-120.064	0.109	-0.019
-398.179	-67.123	-0.073	-0.029
-397.165	-35.771	0.192	0.105
-396.150	277.838	-0.129	0.231
-395.136	305.556	0.103	0.193
-394.121	-26.282	-0.216	-0.128
-393.106	800.000	0.150	0.491
-392.092	175.223	-0.199	0.291
-391.077	-200.000	0.027	0.158
-390.063	-165.854	0.196	-0.008
-389.048	800.000	0.066	-0.233
-388.033	-91.014	0.178	0.052
-387.019	-43.660	0.163	0.083
-386.004	-106.967	0.148	0.033
-384.990	-71.584	0.113	0.042
-383.975	800.000	-0.061	0.180
-382.960	-99.033	0.082	0.021
-381.946	100.357	0.072	-0.084
-380.931	-72.832	0.138	0.051
-379.917	-56.916	-0.241	-0.107
-378.902	-200.000	0.015	-0.344
-377.888	-200.000	0.030	0.170
-376.873	82.182	0.128	-0.140
-375.858	800.000	0.038	0.152
-374.844	-200.000	0.020	0.171
-373.829	-200.000	-0.024	0.119
-372.815	-58.623	-0.195	0.085
-371.800	-33.460	-0.085	0.047
-370.785	-105.797	-0.357	0.081
-369.771	461.724	0.106	0.239
-368.756	800.000	0.030	-0.095
-367.742	340.273	0.151	0.296
-366.727	-89.899	0.084	-0.025
-365.712	-200.000	-0.012	-0.195
-364.698	140.510	0.124	-0.165
-363.683	-28.361	0.323	0.187
-362.669	-200.000	-0.004	0.022
-361.654	800.000	0.063	0.191
-360.639	693.817	0.084	0.222
-359.625	-200.000	0.026	0.193
-358.610	7.603	0.090	0.068
-357.596	800.000	-0.049	-0.171
-356.581	-57.674	-0.270	-0.119
-355.566	20.906	-0.193	-0.157
-354.552	50.745	-0.065	0.062
-353.537	228.451	-0.109	0.178
-352.523	320.494	-0.109	0.208
-351.508	-177.060	-0.182	0.005
-350.493	487.132	-0.060	0.137
-349.479	116.135	-0.320	-0.394
-348.464	339.128	-0.013	-0.025
-347.450	-200.000	0.008	0.046
-346.435	-64.041	0.177	0.073
-345.420	-112.554	0.113	-0.023
-344.406	800.000	0.104	-0.332
-343.391	-93.551	-0.012	0.003
-342.377	-19.703	0.318	-0.198
-341.362	-5.627	0.220	0.151
-340.348	420.046	0.068	0.146
-339.333	-200.000	0.008	0.570
-338.318	-32.385	-0.369	0.207
-337.304	800.000	0.068	0.215
-336.289	-200.000	-0.009	-0.084
-335.275	-124.220	-0.263	0.041
-334.260	-73.935	0.142	0.052
-333.245	2.377	0.130	0.094
-332.231	122.821	-0.016	0.020
-331.216	-170.896	-0.297	0.010
-330.202	-44.673	-0.051	-0.025
-329.187	-200.000	0.071	-0.417
-328.172	26.062	0.251	-0.210
-327.158	229.671	0.010	0.017
-326.143	-122.705	0.307	0.050
-325.129	-81.143	-0.330	0.110
-324.114	131.167	-0.151	-0.196
-323.099	19.008	0.266	0.214
-322.085	-2.908	-0.197	0.138
-321.070	7.100	-0.240	0.180
-320.056	-97.811	-0.426	0.111
-319.041	-150.711	0.074	-0.006
-318.026	-200.000	-0.001	0.364
-317.012	-200.000	0.001	-0.034
-315.997	242.356	-0.117	0.197
-314.983	-14.178	-0.172	-0.111
-313.968	-152.664	-0.229	0.016
-312.953	800.000	-0.062	-0.242
-311.939	-200.000	-0.012	-0.375
-310.924	-200.000	0.029	0.275
-309.910	122.138	0.179	-0.225
-308.895	662.954	-0.069	0.179
-307.880	140.044	-0.069	-0.091
-306.866	-35.036	0.142	0.078
-305.851	293.413	-0.042	0.077
-304.837	-200.000	0.010	-0.274
-303.822	-17.583	-0.251	0.158
-302.807	28.386	-0.236	0.201
-301.793	-200.000	0.021	0.103
-300.778	187.597	0.051	-0.076
-299.764	800.000	-0.105	0.299
-298.749	-142.381	-0.077	-0.008
-297.735	-102.049	0.220	-0.053
-296.720	-68.269	-0.148	-0.058
-295.705	-28.117	-0.328	-0.190
-294.691	133.909	0.064	0.083
-293.676	73.625	-0.201	0.212
-292.662	225.522	-0.147	0.240
-291.647	-21.322	-0.147	0.090
-290.632	195.101	0.077	-0.117
-289.618	435.866	0.162	-0.353
-288.603	-112.977	-0.422	-0.084
-287.589	-200.000	0.002	-0.247
-286.574	-55.280	-0.161	0.073
-285.559	373.700	0.054	0.111
-284.545	-200.000	-0.021	-0.125
-283.530	463.800	0.066	0.149
-282.516	-200.000	0.015	0.113
-281.501	800.000	0.071	0.237
-280.486	143.607	0.191	-0.255
-279.472	147.726	-0.069	0.093
-278.457	-200.000	-0.003	0.059
-277.443	-103.503	-0.097	0.023
-276.428	800.000	0.040	0.122
-275.413	78.485	0.160	-0.172
-274.399	51.932	0.084	-0.080
-273.384	-200.000	0.031	-0.281
-272.370	-200.000	0.030	-0.276
-271.355	-200.000	0.039	0.230
-270.340	800.000	-0.102	0.344
-269.326	-154.450	-0.107	0.007
-268.311	800.000	-0.045	-0.167
-267.297	-162.702	0.119	0.006
-266.282	65.434	0.238	-0.241
-265.267	423.755	0.094	-0.203
-264.253	25.532	0.237	0.198
-263.238	-200.000	0.003	-0.103
-262.224	110.090	0.116	0.140
-261.209	13.361	-0.208	-0.162
-260.195	733.885	0.025	0.067
-259.180	-147.956	-0.141	-0.012
-258.165	800.000	0.098	-0.286
-257.151	-200.000	0.054	-0.383
-256.136	-200.000	-0.006	-0.309
-255.122	800.000	-0.042	-0.139
-254.107	21.593	-0.162	0.132
-253.092	-159.660	0.453	-0.025
-252.078	598.524	0.051	0.128
-251.063	-88.123	0.172	0.052
-250.049	-60.740	0.315	-0.134
-249.034	135.205	0.156	-0.203
-248.019	1.223	0.100	0.072
-247.005	486.647	0.032	0.074
-245.990	347.456	-0.115	0.228
-244.976	56.720	-0.289	0.282
-243.961	-200.000	0.059	0.348
-242.946	-165.531	0.307	-0.013
-241.932	800.000	0.060	0.184
-240.917	24.553	-0.141	-0.116
-239.903	58.995	-0.140	0.138
-238.888	-69.300	0.229	-0.088
-237.873	-200.000	0.029	-0.179
-236.859	-69.253	0.325	-0.125
-235.844	235.061	0.211	-0.348
-234.830	708.697	0.132	-0.351
-233.815	800.000	-0.071	-0.270
-232.800	800.000	-0.014	-0.042
-231.786	-45.470	-0.109	-0.054
-230.771	50.117	-0.114	0.107
-229.757	113.904	0.038	-0.046
-228.742	61.660	0.046	0.046
-227.727	800.000	-0.012	0.036
-226.713	800.000	0.067	0.230
-225.698	-200.000	0.003	-0.156
-224.684	44.274	0.127	-0.116
-223.669	-93.622	0.104	-0.029
-222.655	69.612	0.303	0.312
-221.640	-65.715	0.246	-0.099
-220.625	-153.753	0.178	-0.012
-219.611	67.117	-0.191	0.195
-218.596	-47.869	0.142	0.069
-217.582	-0.607	0.127	-0.090
-216.567	101.296	0.129	-0.150
-215.552	-15.068	0.045	0.029
-214.538	-200.000	-0.064	0.593
-213.523	-200.000	-0.016	0.119
-212.509	-200.000	-0.020	-0.277
-211.494	800.000	0.055	0.162
-210.479	800.000	0.027	-0.101
-209.465	252.763	0.128	0.219
-208.450	800.000	-0.078	0.264
-207.436	-186.231	-0.172	0.003
-206.421	-14.247	0.176	0.113
-205.406	-134.174	0.015	0.002
-204.392	800.000	0.038	-0.163
-203.377	-200.000	0.069	-0.461
-202.363	-101.989	-0.275	-0.066
-201.348	800.000	0.028	-0.116
-200.333	-200.000	0.025	-0.235
-199.319	-140.672	-0.030	0.003
-198.304	20.350	0.038	-0.031
-197.290	-146.851	-0.234	0.020
-196.275	800.000	0.078	-0.249
-195.260	212.292	0.197	-0.311
-194.246	165.397	0.072	0.102
-193.231	-200.000	-0.058	-0.299
-192.217	376.723	0.076	0.155
-191.202	-82.195	-0.088	-0.029
-190.187	163.711	-0.189	0.266
-189.173	120.348	-0.141	-0.175
-188.158	-200.000	-0.003	0.030
-187.144	58.167	-0.208	-0.204
-186.129	-0.321	-0.168	-0.119
-185.114	27.255	-0.185	-0.155
-184.100	0.404	-0.153	-0.109
-183.085	-52.518	-0.294	-0.136
-182.071	800.000	0.064	0.203
-181.056	143.712	0.104	-0.139
-180.042	302.027	-0.102	-0.188
-179.027	216.263	-0.105	-0.166
-178.012	34.858	-0.271	0.237
-176.998	70.752	0.205	-0.213
-175.983	90.683	0.239	0.268
-174.969	336.224	-0.108	-0.210
-173.954	-53.242	-0.136	0.062
-172.939	800.000	0.030	-0.105
-171.925	45.172	0.143	-0.132
-170.910	171.185	0.055	0.078
-169.896	-75.238	-0.166	0.059
-168.881	135.880	0.137	-0.179
-167.866	206.155	0.053	-0.082
-166.852	-200.000	0.031	0.319
-165.837	-200.000	-0.023	0.118
-164.823	800.000	-0.075	-0.306
-163.808	530.098	-0.022	-0.051
-162.793	92.504	-0.026	0.029
-161.779	800.000	-0.026	0.086
-160.764	-63.205	0.316	-0.130
-159.750	186.921	-0.040	-0.059
-158.735	-101.258	0.196	-0.048
-157.720	-133.613	-0.276	-0.034
-156.706	-160.965	-0.337	-0.018
-155.691	214.296	0.088	0.140
-154.677	31.415	-0.129	0.111
-153.662	44.607	0.332	0.305
-152.647	-55.846	0.019	-0.009
-151.633	-112.090	-0.300	0.060
-150.618	-20.468	0.134	-0.082
-149.604	60.029	-0.186	-0.184
-148.589	-183.217	-0.159	0.003
-147.574	800.000	-0.023	0.067
-146.560	800.000	0.064	0.192
-145.545	122.656	0.040	0.050
-144.531	800.000	0.093	-0.297
-143.516	102.534	-0.114	-0.134
-142.502	700.207	-0.227	0.597
-141.487	-200.000	0.039	0.219
-140.472	271.103	0.195	0.342
-139.458	-56.106	-0.263	0.117
-138.443	800.000	0.051	0.157
-137.429	-200.000	-0.230	0.000
-136.414	31.860	-0.052	0.045
-135.399	-94.427	0.250	0.068
-134.385	-200.000	0.013	-0.325
-133.370	-200.000	-0.010	0.087
-132.356	800.000	-0.068	0.230
-131.341	-200.000	0.019	0.119
-130.326	-200.000	-0.015	-0.144
-129.312	-53.469	-0.212	0.097
-128.297	509.105	-0.110	0.255
-127.283	-68.789	-0.255	-0.098
-126.268	21.910	-0.043	-0.035
-125.253	-125.279	0.148	-0.023
-124.239	414.513	0.057	0.120
-123.224	-200.000	0.020	0.260
-122.210	-200.000	-0.029	0.488
-121.195	80.657	-0.022	0.024
-120.180	241.150	0.169	0.281
-119.166	-20.913	0.415	0.253
-118.151	-116.200	0.171	0.032
-117.137	24.095	0.292	0.241
-116.122	-200.000	-0.003	0.070
-115.107	432.649	-0.044	0.094
-114.093	800.000	-0.046	0.160
-113.078	-32.629	0.254	0.141
-112.064	49.953	-0.086	0.081
-111.049	7.883	0.214	-0.160
-110.034	310.235	-0.104	0.194
-109.020	800.000	0.079	0.225
-108.005	163.696	0.183	0.256
-106.991	-117.313	-0.083	0.015
-105.976	30.471	0.227	-0.193
-104.962	65.015	0.089	0.090
-103.947	511.207	0.145	0.336
-102.932	157.810	-0.050	0.068
-101.918	-2.091	-0.213	-0.149
-100.903	352.676	0.066	-0.131
-99.889	800.000	-0.069	0.249
-98.874	83.426	-0.195	0.211
-97.859	-200.000	-0.037	-0.225
-96.845	-118.980	0.275	-0.048
-95.830	-200.000	-0.039	-0.237
-94.816	129.607	-0.257	-0.327
-93.801	-142.891	0.346	0.034
-92.786	-200.000	-0.028	0.249
-91.772	800.000	-0.074	-0.254
-90.757	-20.938	-0.105	-0.064
-89.743	47.935	0.111	-0.104
-88.728	-10.546	0.167	-0.110
-87.713	800.000	0.116	0.324
-86.699	-65.095	-0.346	-0.139
-85.684	78.385	0.279	0.296
-84.670	282.903	-0.055	-0.099
-83.655	-89.543	0.303	0.089
-82.640	445.518	0.179	-0.392
-81.626	436.565	-0.023	-0.049
-80.611	-140.154	0.098	-0.010
-79.597	-106.326	0.091	0.020
-78.582	173.037	-0.288	0.412
-77.567	-21.191	-0.105	0.064
-76.553	257.522	-0.053	0.091
-75.538	754.938	-0.078	0.210
-74.524	-80.307	-0.044	0.015
-73.509	76.585	0.157	0.165
-72.494	337.570	-0.019	0.036
-71.480	-200.000	0.057	-0.300
-70.465	149.945	0.235	0.317
-69.451	800.000	0.086	0.306
-68.436	-107.920	0.149	0.032
-67.422	-185.081	-0.132	0.002
-66.407	26.999	0.067	0.056
-65.392	-54.212	-0.239	-0.108
-64.378	-200.000	-0.061	0.295
-63.363	26.596	-0.206	-0.172
-62.349	-200.000	0.024	0.139
-61.334	-8.833	-0.794	-0.529
-60.319	-200.000	-0.005	0.282
-59.305	800.000	0.176	-0.615
-58.290	-200.000	0.055	0.806
-57.276	777.514	0.721	1.959
-56.261	-200.000	80.995	497.938
-55.246	472.266	1377.197	3084.526
-54.232	143.331	2606.005	3449.969
-53.217	111.275	2245.230	2691.131
-52.203	49.546	1693.644	1585.778
-51.188	42.057	1424.275	1285.671
-50.173	38.692	1380.548	1225.161
-49.159	56.970	1418.836	1375.055
-48.144	62.122	1438.251	1426.384
-47.130	42.560	1398.930	1265.764
-46.115	38.822	1382.028	1227.094
-45.100	38.596	1377.174	1221.325
-44.086	38.574	1374.870	1219.096
-43.071	38.554	1372.599	1216.912
-42.057	38.555	1370.348	1214.871
-41.042	38.513	1368.913	1213.294
-40.027	38.575	1367.593	1212.460
-39.013	38.581	1365.423	1210.520
-37.998	38.653	1363.239	1208.981
-36.984	38.763	1361.518	1208.088
-35.969	38.750	1360.213	1206.804
-34.954	38.745	1358.132	1204.877
-33.940	38.760	1356.210	1203.213
-32.925	38.856	1355.189	1202.853
-31.911	38.904	1353.731	1201.800
-30.896	38.843	1351.988	1199.834
-29.881	38.726	1350.928	1198.130
-28.867	38.700	1349.460	1196.623
-27.852	38.746	1348.220	1195.758
-26.838	38.866	1346.694	1195.088
-25.823	38.822	1344.667	1192.974
-24.809	38.760	1343.302	1191.339
-23.794	38.792	1342.018	1190.343
-22.779	38.816	1340.975	1189.521
-21.765	38.674	1340.016	1187.759
-20.750	38.696	1338.522	1186.523
-19.736	38.597	1337.234	1184.737
-18.721	38.690	1335.121	1183.375
-17.706	38.607	1334.431	1182.219
-16.692	38.636	1333.356	1181.394
-15.677	38.649	1331.945	1180.178
-14.663	38.639	1330.796	1179.050
-13.648	38.651	1329.586	1178.001
-12.633	38.601	1328.833	1176.991
-11.619	38.606	1328.027	1176.256
-10.604	38.613	1326.952	1175.299
-9.590	38.576	1326.174	1174.343
-8.575	38.602	1325.056	1173.462
-7.560	38.549	1324.572	1172.670
-6.546	38.633	1323.308	1172.007
-5.531	38.500	1322.631	1170.567
-4.517	38.637	1321.830	1170.626
-3.502	38.644	1320.846	1169.754
-2.487	38.713	1319.729	1169.131
-1.473	38.639	1315.520	1164.912
-0.458	37.764	1300.229	1146.180
0.556	34.261	1280.482	1104.776
1.571	30.222	1284.534	1084.612
2.586	29.060	1299.481	1090.258
3.600	27.534	1287.592	1071.224
4.615	19.678	1208.062	961.447
5.629	7.744	1123.377	831.869
6.644	2.419	1099.615	786.877
7.659	1.914	1096.586	782.049
8.673	1.767	1095.102	780.169
9.688	1.663	1093.864	778.687
10.702	1.967	1092.309	779.066
11.717	8.712	1103.085	821.380
12.731	19.901	1118.923	891.022
13.746	24.879	1125.342	921.760
14.761	25.328	1125.599	924.200
15.775	25.227	1125.468	923.492
16.790	25.072	1124.090	921.483
17.804	24.866	1123.661	919.991
18.819	25.015	1123.309	920.384
19.834	25.225	1122.548	920.759
20.848	25.303	1122.240	920.825
21.863	25.275	1121.739	920.187
22.877	25.110	1121.497	919.063
23.892	25.061	1120.455	917.874
24.907	25.145	1119.792	917.682
25.921	25.086	1118.550	916.283
26.936	25.130	1116.968	915.128
27.950	25.149	1115.243	913.731
28.965	24.937	1113.806	911.394
29.980	25.100	1111.965	910.635
30.994	25.141	1111.540	910.417
32.009	25.151	1110.441	909.485
33.023	25.144	1108.605	907.866
34.038	25.186	1107.920	907.438
35.053	25.168	1108.056	907.375
36.067	25.130	1106.887	906.148
37.082	25.230	1106.091	905.921
38.096	25.363	1105.705	906.194
39.111	25.317	1105.305	905.556
40.126	25.263	1103.718	903.905
41.140	24.854	1101.609	900.040
42.155	24.785	1099.825	898.157
43.169	24.843	1098.996	897.692
44.184	24.802	1098.423	896.936
45.199	24.782	1097.274	895.819
46.213	24.765	1096.223	894.799
47.228	25.066	1095.852	895.920
48.242	25.063	1094.996	895.124
49.257	25.063	1094.688	894.798
50.271	25.100	1093.881	894.240
51.286	25.310	1092.787	894.312
52.301	25.220	1091.830	893.004
53.315	25.260	1090.399	891.954
54.330	24.990	1090.214	890.378
55.344	25.105	1089.304	890.130
56.359	25.044	1088.011	888.690
57.374	24.850	1086.870	886.720
58.388	24.932	1086.348	886.620
59.403	24.861	1085.505	885.503
60.417	24.761	1084.445	884.066
61.432	24.782	1083.863	883.620
62.447	24.890	1083.044	883.407
63.461	24.894	1082.918	883.242
64.476	24.872	1081.563	881.950
65.490	24.750	1080.838	880.681
66.505	24.910	1079.922	880.644
67.520	24.937	1079.333	880.221
68.534	24.684	1078.368	878.114
69.549	24.348	1077.230	875.460
70.563	24.370	1076.398	874.815
71.578	24.378	1075.472	874.023
72.593	24.208	1074.181	872.065
73.607	24.320	1073.707	872.149
74.622	24.645	1073.288	873.321
75.636	24.666	1073.064	873.163
76.651	24.593	1071.737	871.651
77.666	24.496	1071.246	870.702
78.680	24.503	1070.745	870.248
79.695	24.660	1070.050	870.374
80.709	24.713	1069.372	870.001
81.724	24.682	1068.637	869.178
82.739	24.848	1067.563	869.031
83.753	25.174	1067.210	870.252
84.768	25.433	1066.120	870.539
85.782	25.544	1065.363	870.383
86.797	25.358	1064.580	868.767
87.812	25.163	1063.504	866.868
88.826	25.411	1062.250	866.969
89.841	25.496	1061.578	866.753
90.855	25.445	1060.388	865.456
91.870	25.375	1059.107	863.999
92.884	25.205	1058.419	862.543
93.899	25.154	1057.624	861.575
94.914	25.414	1056.607	861.920
95.928	25.236	1055.578	860.149
96.943	24.939	1054.656	857.899
97.957	24.746	1053.150	855.675
98.972	24.561	1052.342	854.058
99.987	24.858	1051.871	855.018
101.001	25.188	1050.198	855.157
102.016	25.102	1049.925	854.448
103.030	24.946	1048.862	852.765
104.045	24.868	1047.528	851.234
105.060	24.631	1047.017	849.618
106.074	24.769	1046.120	849.471
107.089	25.209	1045.497	850.976
108.103	25.013	1044.734	849.352
109.118	24.764	1042.783	846.510
110.133	24.829	1042.032	846.135
111.147	24.670	1040.458	844.028
112.162	24.481	1039.993	842.687
113.176	24.768	1039.677	843.710
114.191	24.606	1038.660	842.048
115.206	24.299	1037.767	839.805
116.220	24.410	1036.671	839.361
117.235	24.560	1035.731	839.233
118.249	24.538	1035.135	838.575
119.264	24.345	1034.606	837.166
120.279	24.538	1033.790	837.337
121.293	24.556	1032.491	836.293
122.308	24.517	1032.018	835.653
123.322	24.518	1030.627	834.459
124.337	24.188	1029.193	831.683
125.352	23.932	1027.168	828.779
126.366	23.809	1026.905	827.921
127.381	24.534	1026.791	831.133
128.395	24.968	1026.427	832.781
129.410	25.135	1025.158	832.455
130.424	25.119	1024.130	831.474
131.439	25.129	1023.339	830.802
132.454	25.131	1022.509	830.065
133.468	25.118	1021.412	829.042
134.483	25.129	1020.945	828.638
135.497	25.348	1019.890	828.718
136.512	25.396	1018.983	828.133
137.527	25.300	1018.440	827.174
138.541	25.292	1017.368	826.194
139.556	25.355	1016.597	825.786
140.570	25.481	1015.633	825.505
141.585	25.507	1014.778	824.860
142.600	25.340	1014.026	823.407
143.614	25.674	1012.863	823.921
144.629	25.632	1012.216	823.129
145.643	25.558	1011.127	821.833
146.658	25.464	1009.614	820.099
147.673	25.233	1008.896	818.394
148.687	25.199	1007.762	817.242
149.702	25.147	1006.341	815.784
150.716	25.036	1005.904	814.853
151.731	25.278	1005.116	815.240
152.746	25.418	1004.455	815.268
153.760	25.455	1004.061	815.046
154.775	25.458	1003.431	814.474
155.789	25.419	1002.769	813.687
156.804	25.389	1001.290	812.279
157.819	25.467	1000.690	812.075
158.833	25.593	999.969	811.986
159.848	25.693	999.027	811.603
160.862	25.439	997.565	809.198
161.877	25.447	996.475	808.276
162.892	25.490	996.124	808.113
163.906	25.482	994.841	806.968
164.921	25.319	993.930	805.425
165.935	25.500	992.841	805.281
166.950	25.522	992.093	804.704
167.964	25.423	990.790	803.133
168.979	25.177	990.404	801.651
169.994	25.390	988.655	801.113
171.008	25.494	988.877	801.686
172.023	25.541	987.591	800.779
173.037	25.343	986.721	799.123
174.052	25.278	985.388	797.685
175.067	25.173	984.772	796.649
176.081	25.345	984.586	797.192
177.096	25.276	983.841	796.214
178.110	24.890	982.906	793.676
179.125	24.739	982.007	792.208
180.140	24.746	981.905	792.090
181.154	24.998	981.384	792.710
182.169	25.392	980.966	794.047
183.183	25.353	981.142	793.945
184.198	25.356	979.839	792.834
185.213	25.379	979.278	792.411
186.227	25.459	978.591	792.141
187.242	25.571	977.615	791.774
188.256	25.474	977.266	790.991
189.271	25.467	976.635	790.382
190.286	25.223	975.000	787.917
191.300	24.589	973.648	783.973
192.315	23.903	971.831	779.433
193.329	23.702	971.789	778.450
194.344	24.744	971.824	782.977
195.359	25.274	971.882	785.273
196.373	25.444	971.415	785.567
197.388	25.233	970.874	784.140
198.402	25.224	970.267	783.542
199.417	25.387	969.202	783.321
200.432	25.104	968.594	781.528
201.446	24.955	967.574	779.985
202.461	24.938	967.692	779.939
203.475	24.154	965.288	774.525
204.490	23.380	963.629	769.767
205.504	24.305	964.032	774.038
206.519	24.881	964.338	776.712
207.534	25.058	963.731	776.923
208.548	25.471	962.957	778.018
209.563	25.254	962.073	776.299
210.577	25.230	961.825	775.923
211.592	25.544	961.476	776.933
212.607	25.475	961.026	776.199
213.621	25.460	960.535	775.671
214.636	25.586	959.438	775.260
215.650	25.423	958.581	773.796
216.665	25.645	957.868	774.109
217.680	25.618	956.993	773.217
218.694	25.166	955.831	770.266
219.709	24.895	955.265	768.580
220.723	25.203	954.876	769.521
221.738	25.319	954.664	769.779
222.753	25.252	953.465	768.456
223.767	25.438	953.200	768.971
224.782	25.635	952.865	769.478
225.796	25.728	952.188	769.262
226.811	24.978	950.682	764.776
227.826	24.425	949.141	761.107
228.840	24.439	949.027	761.008
229.855	24.520	948.149	760.583
230.869	24.164	947.065	758.131
231.884	24.635	947.204	760.181
232.899	25.294	947.285	762.981
233.913	25.166	946.465	761.709
234.928	25.253	945.756	761.439
235.942	25.064	945.266	760.176
236.957	24.889	944.198	758.507
237.972	24.892	943.628	757.998
238.986	24.982	943.249	758.007
240.001	25.102	942.549	757.885
241.015	25.095	942.315	757.598
242.030	25.283	941.719	757.847
243.045	25.449	941.131	758.005
244.059	25.567	940.484	757.917
245.074	25.379	939.603	756.348
246.088	24.894	938.907	753.677
247.103	25.120	938.380	754.138
248.117	25.782	938.536	756.983
249.132	26.001	938.247	757.602
250.147	26.206	937.762	758.002
251.161	26.274	937.418	757.943
252.176	26.093	936.773	756.597
253.190	26.372	935.831	756.936
254.205	26.415	935.414	756.711
255.220	26.299	935.104	755.908
256.234	26.244	933.930	754.664
257.249	26.026	933.534	753.367
258.263	26.350	932.169	753.548
259.278	26.228	931.823	752.697
260.293	26.328	931.734	752.974
261.307	26.112	931.039	751.445
262.322	26.071	929.792	750.203
263.336	25.268	928.201	745.520
264.351	24.292	925.961	739.608
265.366	24.456	925.604	739.935
266.380	25.452	926.258	744.521
267.395	25.865	926.101	746.039
268.409	25.846	925.308	745.256
269.424	26.010	925.100	745.702
270.439	25.943	924.320	744.728
271.453	26.003	923.929	744.598
272.468	26.208	923.531	745.055
273.482	26.345	922.811	744.976
274.497	25.918	921.822	742.351
275.512	25.510	920.680	739.686
276.526	25.958	920.648	741.437
277.541	26.054	920.439	741.598
278.555	25.900	919.698	740.304
279.570	25.711	918.791	738.733
280.585	25.883	918.449	739.099
281.599	25.910	917.262	738.190
282.614	25.205	916.177	734.367
283.628	25.229	915.388	733.765
284.643	25.574	915.499	735.201
285.657	25.247	914.285	732.826
286.672	25.028	913.191	730.990
287.687	25.568	913.074	733.035
288.701	25.564	912.676	732.632
289.716	25.270	911.934	730.775
290.730	25.189	911.223	729.811
291.745	24.926	910.426	728.041
292.760	25.244	910.193	729.082
293.774	26.265	910.425	733.348
294.789	26.654	910.237	734.713
295.803	26.489	910.038	733.818
296.818	26.804	908.646	733.906
297.833	26.140	907.311	730.078
298.847	26.059	906.815	729.284
299.862	26.357	906.611	730.260
300.876	26.598	906.893	731.398
301.891	26.568	905.822	730.347
302.906	26.098	904.682	727.470
303.920	26.275	904.338	727.843
304.935	26.621	904.271	729.118
305.949	26.649	903.185	728.290
306.964	26.357	902.331	726.361
307.979	26.274	902.339	725.972
308.993	26.558	902.115	726.870
310.008	26.718	901.367	726.845
311.022	26.308	900.483	724.422
312.037	26.309	899.848	723.850
313.052	26.128	898.704	722.143
314.066	24.963	897.541	716.488
315.081	24.776	896.504	714.847
316.095	25.782	896.697	718.958
317.110	26.237	896.553	720.595
318.125	25.406	895.140	716.083
319.139	24.392	893.336	710.541
320.154	24.295	893.270	710.042
321.168	25.273	893.557	714.098
322.183	25.966	893.533	716.772
323.197	26.130	893.255	717.137
324.212	26.264	893.321	717.660
325.227	26.302	892.672	717.226
326.241	26.157	891.710	715.814
327.256	25.998	891.383	714.860
328.270	26.032	890.515	714.233
329.285	25.771	889.689	712.475
330.300	25.516	888.775	710.671
331.314	25.912	888.495	711.951
332.329	26.345	888.330	713.466
333.343	26.485	888.081	713.753
334.358	26.432	887.415	712.946
335.373	26.379	887.292	712.576
336.387	26.630	887.382	713.576
337.402	26.895	886.843	714.122
338.416	26.747	886.560	713.246
339.431	26.899	886.243	713.526
340.446	27.046	886.135	713.955
341.460	26.970	885.168	712.815
342.475	26.620	885.120	711.337
343.489	26.803	884.532	711.522
344.504	27.068	884.050	712.110
345.519	27.161	883.907	712.294
346.533	27.302	882.968	712.027
347.548	27.219	882.732	711.448
348.562	27.109	882.508	710.777
349.577	27.093	881.526	709.860
350.592	27.116	880.534	709.086
351.606	27.116	880.018	708.609
352.621	26.974	879.249	707.375
353.635	26.965	878.545	706.709
354.650	26.219	876.941	702.457
355.665	25.366	875.284	697.753
356.679	25.803	875.082	699.230
357.694	26.304	874.486	700.633
358.708	26.140	873.928	699.490
359.723	26.491	873.953	700.809
360.738	26.918	873.447	701.992
361.752	26.916	873.004	701.565
362.767	27.252	872.798	702.636
363.781	27.558	872.527	703.539
364.796	27.618	872.097	703.362
365.810	27.649	871.937	703.288
366.825	27.515	871.481	702.342
367.840	27.232	870.454	700.361
368.854	26.976	869.028	698.170
369.869	27.074	868.871	698.358
370.883	26.958	868.382	697.455
371.898	26.896	867.940	696.802
372.913	27.106	867.633	697.300
373.927	27.082	867.390	696.952
374.942	27.212	866.687	696.823
375.956	27.358	866.646	697.289
376.971	27.399	866.427	697.206
377.986	27.650	865.614	697.450
379.000	27.620	865.074	696.838
380.015	27.478	864.102	695.452
381.029	27.372	864.198	695.063
382.044	27.612	863.261	695.164
383.059	27.572	862.860	694.629
384.073	27.573	862.485	694.269
385.088	27.618	861.574	693.645
386.102	27.212	860.883	691.481
387.117	27.161	860.359	690.805
388.132	26.931	859.052	688.825
389.146	26.453	858.278	686.327
390.161	26.771	858.365	687.542
391.175	27.319	857.831	689.130
392.190	27.001	856.872	687.096
393.205	25.566	854.834	679.979
394.219	24.187	852.684	673.006
395.234	24.054	852.197	672.058
396.248	25.532	854.152	679.129
397.263	27.012	854.914	685.265
398.278	26.963	854.644	684.802
399.292	26.756	853.795	683.282
400.307	26.789	853.146	682.828
401.321	26.924	852.399	682.676
402.336	27.413	852.379	684.438
403.350	27.710	852.497	685.591
404.365	27.847	852.770	686.263
405.380	28.133	852.317	686.913
406.394	28.337	851.766	687.171
407.409	28.179	851.219	686.078
408.423	28.146	850.568	685.370
409.438	28.228	850.483	685.546
410.453	28.250	850.171	685.315
411.467	28.208	849.362	684.447
412.482	28.239	848.927	684.152
413.496	28.308	848.647	684.122
414.511	28.263	848.413	683.705
415.526	28.245	847.734	683.030
416.540	28.129	846.989	681.940
417.555	27.702	846.318	679.748
418.569	28.012	845.660	680.314
419.584	28.058	844.926	679.833
420.599	27.708	844.742	678.322
421.613	98.411	1275.736	1401.966
422.628	85.545	1338.552	1402.068
