DTS Sentinel unit serial number:	SN413079Multiplexer serial number:	ORYXHardware model number:	OX4-SRSoftware version number:	ORYX F/W v4.00 Oryx Data Collector v3.7.2.0data status	okinstallation	princeton_trtdifferential loss correction	single-endedforward channel	channel 1reverse channel	N/Adate	2019/09/11time	02:04:11forward acquisition time	60.00reverse acquisition time	0.00gamma	496.2192k internal	0.2332k external	0.2332temperature offset calibration	0.9930default loss term (dB/km)	0.3790temperature slope calibration	1.0000multiplexer offset coefficient	1.0000multiplexer slope coefficient	1.0000fibre end	0.00T internal ref (°C)	29.19T ext. ref 1 (°C)	-0.29T ext. ref 2 (°C)	23.16length (m)	temperature (°C)	Stokes	anti-Stokes-747.200	143.388	0.147	0.198
-746.185	-142.206	0.225	0.022
-745.171	-40.014	-0.289	0.152
-744.156	-200.000	-0.066	0.516
-743.142	-200.000	-0.088	0.475
-742.127	-200.000	-0.002	0.248
-741.112	47.093	0.111	0.104
-740.098	142.582	-0.218	-0.292
-739.083	-19.126	-0.047	-0.030
-738.069	36.077	-0.190	0.168
-737.054	800.000	-0.046	0.180
-736.039	137.865	0.175	-0.230
-735.025	-141.607	-0.132	0.013
-734.010	-31.574	0.256	0.145
-732.996	-16.506	-0.105	-0.067
-731.981	-97.483	0.183	-0.048
-730.966	514.249	-0.073	0.171
-729.952	-200.000	0.031	0.343
-728.937	-89.118	0.241	0.072
-727.923	-128.696	-0.194	0.028
-726.908	-94.412	-0.250	0.068
-725.894	-32.987	-0.325	0.181
-724.879	14.020	-0.026	0.020
-723.864	-200.000	0.001	0.148
-722.850	-33.216	0.275	0.153
-721.835	86.835	-0.162	-0.180
-720.821	50.115	-0.109	-0.103
-719.806	-97.002	-0.229	-0.060
-718.791	-3.638	-0.310	-0.216
-717.777	795.478	-0.080	-0.222
-716.762	216.269	-0.018	0.029
-715.748	-135.474	-0.044	-0.005
-714.733	800.000	-0.088	-0.249
-713.718	69.598	0.273	0.283
-712.704	-135.993	-0.238	0.028
-711.689	800.000	0.052	0.148
-710.675	-86.609	-0.248	0.077
-709.660	456.624	-0.078	-0.173
-708.645	666.472	-0.054	0.140
-707.631	163.690	0.306	0.433
-706.616	21.156	0.056	0.046
-705.602	314.169	-0.169	0.319
-704.587	223.676	0.189	-0.307
-703.572	-40.856	-0.201	-0.104
-702.558	-103.729	0.104	0.024
-701.543	-84.276	0.415	-0.132
-700.529	-200.000	0.016	0.148
-699.514	-130.958	-0.351	0.047
-698.499	-200.000	0.072	0.333
-697.485	380.719	-0.122	-0.251
-696.470	147.613	-0.155	-0.210
-695.456	-99.620	-0.211	-0.053
-694.441	224.055	0.073	-0.119
-693.426	-200.000	-0.006	-0.065
-692.412	-119.631	0.430	0.075
-691.397	-200.000	-0.003	-0.106
-690.383	419.906	-0.078	0.168
-689.368	124.656	0.138	0.175
-688.354	800.000	0.045	-0.188
-687.339	800.000	0.056	-0.238
-686.324	-200.000	0.022	0.127
-685.310	-200.000	-0.063	-0.293
-684.295	-200.000	0.039	0.191
-683.281	-200.000	0.021	-0.209
-682.266	180.547	-0.110	0.162
-681.251	-133.316	0.109	-0.014
-680.237	123.515	-0.185	0.233
-679.222	214.650	-0.121	-0.192
-678.208	-76.949	-0.276	-0.097
-677.193	-27.802	0.144	-0.084
-676.178	-128.861	0.593	-0.084
-675.164	-200.000	-0.025	0.413
-674.149	136.195	0.121	-0.158
-673.135	126.660	-0.022	0.028
-672.120	-200.000	0.001	-0.222
-671.105	411.774	-0.153	-0.327
-670.091	291.314	0.116	-0.211
-669.076	-146.916	0.158	-0.014
-668.062	183.899	0.054	0.080
-667.047	-200.000	0.016	-0.410
-666.032	489.206	-0.124	-0.284
-665.018	-200.000	0.009	-0.061
-664.003	-12.414	0.124	-0.081
-662.989	-191.554	0.143	-0.001
-661.974	-135.313	-0.278	-0.033
-660.959	-200.000	-0.004	0.128
-659.945	60.106	0.157	-0.156
-658.930	-200.000	0.006	0.275
-657.916	-50.138	0.316	-0.150
-656.901	-200.000	-0.001	-0.078
-655.886	-200.000	-0.047	-0.548
-654.872	800.000	-0.066	-0.253
-653.857	-117.634	-0.144	-0.026
-652.843	178.927	0.108	-0.159
-651.828	-138.951	-0.279	-0.030
-650.814	-63.778	-0.046	0.019
-649.799	410.344	-0.084	-0.178
-648.784	7.738	-0.153	-0.115
-647.770	-39.336	-0.364	-0.192
-646.755	6.572	-0.079	0.059
-645.741	-0.859	-0.371	-0.264
-644.726	-112.363	-0.286	-0.057
-643.711	-200.000	-0.010	0.057
-642.697	49.908	0.105	-0.099
-641.682	-200.000	0.004	-0.194
-640.668	487.069	-0.025	0.057
-639.653	17.708	0.084	0.067
-638.638	-86.833	-0.077	0.024
-637.624	800.000	-0.080	-0.244
-636.609	800.000	-0.069	-0.276
-635.595	-200.000	0.053	-0.396
-634.580	-164.569	-0.017	0.001
-633.565	-122.467	0.371	0.060
-632.551	800.000	-0.036	0.149
-631.536	-140.409	-0.089	-0.009
-630.522	-200.000	0.027	-0.240
-629.507	-117.118	-0.498	0.091
-628.492	800.000	-0.054	0.177
-627.478	-181.000	-0.360	-0.007
-626.463	-118.896	-0.414	-0.073
-625.449	-102.430	0.051	-0.012
-624.434	-32.992	-0.127	-0.071
-623.419	507.095	-0.029	-0.068
-622.405	41.758	-0.096	-0.087
-621.390	-61.470	-0.261	-0.110
-620.376	800.000	-0.040	-0.158
-619.361	125.245	-0.147	-0.185
-618.346	24.831	0.134	-0.111
-617.332	-97.670	-0.236	-0.061
-616.317	-144.084	0.181	0.017
-615.303	85.598	0.113	-0.124
-614.288	800.000	0.046	-0.194
-613.273	-134.287	-0.263	0.032
-612.259	-16.278	-0.153	-0.097
-611.244	-123.455	0.079	-0.013
-610.230	-64.533	0.160	0.065
-609.215	-119.257	-0.129	-0.023
-608.201	-200.000	-0.191	0.000
-607.186	35.114	0.064	0.056
-606.171	-200.000	-0.051	-0.266
-605.157	62.321	-0.188	-0.188
-604.142	41.698	-0.138	-0.125
-603.128	-161.430	-0.070	0.004
-602.113	-160.305	0.579	0.031
-601.098	-200.000	-0.020	-0.448
-600.084	800.000	-0.072	0.266
-599.069	684.050	-0.021	0.055
-598.055	499.503	0.071	0.165
-597.040	800.000	0.105	0.441
-596.025	718.463	0.078	0.207
-595.011	-200.000	-0.012	0.138
-593.996	-112.935	-0.316	-0.063
-592.982	-182.262	0.173	-0.003
-591.967	800.000	-0.095	-0.341
-590.952	-200.000	-0.015	-0.075
-589.938	58.157	0.236	-0.231
-588.923	-73.704	-0.207	-0.075
-587.909	-62.028	-0.073	0.030
-586.894	-200.000	0.030	0.218
-585.879	424.870	-0.138	0.296
-584.865	-200.000	0.008	0.045
-583.850	303.748	-0.115	-0.213
-582.836	-200.000	0.087	-0.424
-581.821	-43.252	0.188	0.095
-580.806	163.121	0.104	-0.146
-579.792	102.626	-0.196	0.229
-578.777	5.036	0.287	0.211
-577.763	-200.000	0.001	-0.029
-576.748	-149.828	-0.138	-0.011
-575.733	-70.618	0.228	-0.086
-574.719	-115.915	0.243	-0.045
-573.704	-190.229	-0.287	0.003
-572.690	800.000	0.022	-0.084
-571.675	-54.474	0.260	-0.118
-570.661	-69.804	-0.068	-0.026
-569.646	-118.584	-0.175	-0.031
-568.631	-200.000	-0.067	0.302
-567.617	-80.286	0.340	-0.114
-566.602	-98.541	-0.224	-0.057
-565.588	56.467	-0.271	-0.264
-564.573	91.431	0.042	0.047
-563.558	-36.440	0.187	-0.101
-562.544	204.731	-0.120	0.185
-561.529	800.000	0.055	0.154
-560.515	658.012	0.030	0.077
-559.500	145.803	0.159	0.213
-558.485	62.740	-0.191	-0.190
-557.471	-60.008	-0.223	0.095
-556.456	26.554	0.233	0.195
-555.442	-69.206	-0.156	-0.060
-554.427	-145.440	0.372	0.033
-553.412	360.334	0.118	0.236
-552.398	-200.000	-0.013	-0.319
-551.383	800.000	0.085	-0.281
-550.369	716.073	-0.193	0.512
-549.354	87.865	-0.193	0.214
-548.339	-200.000	0.020	-0.180
-547.325	-103.221	0.169	0.040
-546.310	-23.267	-0.098	-0.059
-545.296	790.727	-0.089	-0.245
-544.281	39.333	0.277	-0.248
-543.266	211.669	0.101	-0.159
-542.252	-60.353	0.438	0.186
-541.237	800.000	0.064	0.180
-540.223	95.459	-0.186	-0.211
-539.208	431.116	0.025	-0.053
-538.193	-200.000	-0.027	0.278
-537.179	800.000	0.034	0.098
-536.164	800.000	0.091	0.372
-535.150	-200.000	0.037	0.205
-534.135	800.000	-0.077	-0.214
-533.121	-18.433	-0.188	-0.117
-532.106	-200.000	-0.016	-0.075
-531.091	-200.000	0.011	-0.259
-530.077	-98.469	-0.149	-0.038
-529.062	-200.000	0.036	0.229
-528.048	418.452	-0.144	-0.308
-527.033	-120.873	0.244	-0.041
-526.018	-200.000	-0.084	0.419
-525.004	-105.529	-0.137	0.031
-523.989	-0.397	-0.227	-0.161
-522.975	-10.960	0.006	-0.004
-521.960	6.401	0.286	-0.212
-520.945	800.000	0.056	0.209
-519.931	36.910	0.154	0.136
-518.916	72.175	-0.120	-0.124
-517.902	-105.234	-0.139	0.032
-516.887	18.052	0.078	0.062
-515.872	-200.000	-0.083	-0.452
-514.858	160.523	-0.115	-0.159
-513.843	-34.455	0.134	-0.073
-512.829	-45.853	-0.245	-0.121
-511.814	81.862	-0.108	0.117
-510.799	-97.726	-0.100	-0.026
-509.785	404.424	-0.079	-0.167
-508.770	-200.000	0.007	0.078
-507.756	308.640	-0.175	-0.326
-506.741	-104.702	0.036	0.008
-505.726	-111.674	-0.164	-0.033
-504.712	-200.000	0.026	0.223
-503.697	502.881	0.134	0.310
-502.683	-200.000	0.016	-0.086
-501.668	151.794	-0.077	-0.105
-500.653	-74.200	-0.035	-0.013
-499.639	-23.111	-0.158	0.095
-498.624	800.000	0.020	-0.072
-497.610	84.386	0.313	0.341
-496.595	-46.253	0.174	-0.085
-495.581	-87.278	-0.125	-0.038
-494.566	2.287	0.103	-0.074
-493.551	-57.046	0.178	-0.078
-492.537	27.348	-0.107	-0.089
-491.522	800.000	-0.007	-0.028
-490.508	-27.648	0.162	-0.094
-489.493	-120.185	-0.208	0.035
-488.478	-12.135	0.333	0.217
-487.464	-200.000	0.020	0.358
-486.449	264.274	-0.103	0.179
-485.435	185.293	0.126	0.186
-484.420	-172.851	0.260	0.008
-483.405	-200.000	-0.017	-0.082
-482.391	-200.000	-0.004	0.185
-481.376	-19.986	-0.123	-0.076
-480.362	87.758	-0.059	0.065
-479.347	17.629	-0.074	0.059
-478.332	494.087	0.052	-0.120
-477.318	-200.000	-0.013	0.104
-476.303	21.164	-0.265	0.214
-475.289	-200.000	-0.012	0.117
-474.274	-108.993	0.141	0.030
-473.259	372.477	-0.135	-0.274
-472.245	326.077	0.084	-0.160
-471.230	365.509	0.062	0.124
-470.216	-200.000	0.017	0.104
-469.201	389.894	-0.100	-0.206
-468.186	800.000	0.068	0.190
-467.172	-123.788	0.049	0.008
-466.157	-200.000	-0.003	-0.038
-465.143	-115.976	-0.621	-0.115
-464.128	-88.190	-0.209	0.062
-463.113	800.000	-0.125	0.363
-462.099	-102.696	-0.327	0.078
-461.084	-200.000	-0.035	-0.156
-460.070	-200.000	-0.050	-0.479
-459.055	-200.000	0.011	-0.124
-458.040	78.193	-0.139	-0.148
-457.026	800.000	0.102	0.297
-456.011	-102.048	0.222	-0.053
-454.997	800.000	-0.028	-0.084
-453.982	-175.496	-0.018	0.000
-452.968	-200.000	-0.008	0.307
-451.953	78.820	-0.173	-0.185
-450.938	-100.694	-0.223	0.055
-449.924	-200.000	0.051	0.264
-448.909	-81.667	0.327	0.107
-447.895	83.893	-0.177	-0.192
-446.880	242.810	-0.031	0.052
-445.865	800.000	0.124	0.412
-444.851	-77.230	-0.333	-0.115
-443.836	-119.855	0.168	-0.029
-442.822	130.018	0.190	0.241
-441.807	40.581	0.205	-0.184
-440.792	372.953	0.139	-0.281
-439.778	-123.051	-0.309	-0.049
-438.763	9.575	0.142	0.107
-437.749	121.446	0.160	0.199
-436.734	-94.597	-0.366	0.099
-435.719	-16.722	-0.090	-0.056
-434.705	9.820	-0.139	0.105
-433.690	800.000	0.070	-0.205
-432.676	-200.000	0.057	-0.355
-431.661	94.555	0.088	0.100
-430.646	-150.658	0.275	0.021
-429.632	-200.000	-0.024	0.119
-428.617	-200.000	-0.010	0.253
-427.603	-89.795	0.345	-0.100
-426.588	197.376	-0.063	0.096
-425.573	-86.580	-0.417	0.127
-424.559	458.635	0.067	0.149
-423.544	-103.220	0.151	0.036
-422.530	147.408	-0.034	-0.045
-421.515	-109.956	-0.345	0.072
-420.500	25.626	-0.203	-0.168
-419.486	37.143	0.146	-0.129
-418.471	-158.700	-0.390	-0.022
-417.457	-200.000	-0.023	0.131
-416.442	141.878	0.061	-0.080
-415.428	75.718	0.118	-0.123
-414.413	-104.869	-0.208	-0.047
-413.398	394.747	-0.138	0.285
-412.384	-115.774	0.078	-0.015
-411.369	-101.543	0.112	-0.027
-410.355	-200.000	-0.026	0.193
-409.340	-139.963	0.025	0.003
-408.325	-61.888	0.198	-0.082
-407.311	8.748	-0.234	0.175
-406.296	800.000	0.076	-0.241
-405.282	-200.000	0.025	0.235
-404.267	-101.955	-0.170	-0.041
-403.252	222.811	-0.157	-0.251
-402.238	30.120	0.019	0.016
-401.223	16.069	-0.162	0.127
-400.209	-200.000	-0.023	-0.222
-399.194	43.528	0.169	0.153
-398.179	15.431	-0.292	0.227
-397.165	319.075	0.060	0.112
-396.150	-200.000	0.008	-0.116
-395.136	800.000	-0.078	-0.227
-394.121	-160.080	0.218	0.012
-393.106	-139.809	0.383	-0.040
-392.092	34.181	0.129	0.111
-391.077	184.007	0.062	-0.090
-390.063	-110.936	0.140	0.029
-389.048	-200.000	0.053	0.256
-388.033	800.000	-0.080	0.228
-387.019	140.981	-0.152	-0.200
-386.004	26.718	-0.329	0.274
-384.990	-141.099	0.494	0.050
-383.975	-88.857	-0.245	-0.072
-382.960	20.412	-0.115	-0.092
-381.946	-63.654	0.208	0.085
-380.931	-182.434	0.411	-0.008
-379.917	-20.675	0.054	0.033
-378.902	276.300	-0.327	-0.576
-377.888	-200.000	-0.039	-0.364
-376.873	-200.000	0.071	-0.337
-375.858	-140.577	0.276	0.028
-374.844	-71.989	0.365	-0.135
-373.829	800.000	0.072	-0.201
-372.815	-200.000	-0.009	-0.145
-371.800	-30.137	0.627	0.354
-370.785	68.631	-0.299	0.304
-369.771	-84.878	0.304	-0.095
-368.756	62.902	0.073	-0.073
-367.742	-27.679	0.189	0.109
-366.727	-55.214	-0.281	-0.125
-365.712	255.141	0.099	0.168
-364.698	72.398	0.117	-0.121
-363.683	-110.612	0.170	0.035
-362.669	-200.000	-0.030	-0.259
-361.654	-59.379	0.114	0.049
-360.639	-123.321	-0.096	0.015
-359.625	800.000	0.032	-0.132
-358.610	-200.000	0.065	0.320
-357.596	701.044	0.091	0.239
-356.581	-200.000	0.020	0.118
-355.566	-5.482	0.157	0.107
-354.552	115.385	-0.298	0.361
-353.537	-129.497	0.122	0.017
-352.523	-130.350	0.241	-0.032
-351.508	-154.019	0.240	-0.016
-350.493	-26.968	-0.129	-0.074
-349.479	177.358	-0.118	-0.170
-348.464	800.000	-0.087	0.336
-347.450	-200.000	0.008	0.123
-346.435	-33.149	0.221	0.122
-345.420	501.415	0.075	0.172
-344.406	-113.421	-0.210	0.041
-343.391	-69.087	-0.117	0.045
-342.377	800.000	0.039	-0.135
-341.362	-50.684	0.198	0.092
-340.348	111.724	0.109	0.131
-339.333	427.909	-0.019	0.042
-338.318	88.837	-0.181	0.199
-337.304	-3.715	-0.262	0.180
-336.289	34.293	-0.137	0.118
-335.275	290.141	-0.109	0.197
-334.260	29.504	0.149	0.125
-333.245	256.116	0.063	0.107
-332.231	464.551	0.058	-0.129
-331.216	-10.985	-0.090	-0.059
-330.202	-27.677	-0.048	0.028
-329.187	-200.000	-0.045	-0.327
-328.172	80.496	0.227	-0.242
-327.158	-28.184	0.262	-0.150
-326.143	299.159	-0.030	0.055
-325.129	140.271	0.319	-0.416
-324.114	-21.777	0.237	-0.143
-323.099	-54.651	-0.083	0.037
-322.085	31.586	-0.150	0.127
-321.070	369.418	0.015	0.030
-320.056	-51.320	0.363	0.168
-319.041	-200.000	-0.017	-0.191
-318.026	413.354	0.174	-0.367
-317.012	-139.797	0.230	-0.024
-315.997	-10.573	0.021	-0.014
-314.983	-81.458	-0.087	0.028
-313.968	800.000	0.054	-0.163
-312.953	-200.000	-0.004	-0.102
-311.939	-101.584	0.242	-0.058
-310.924	354.433	0.214	-0.421
-309.910	-15.245	0.344	0.218
-308.895	-63.843	-0.183	0.074
-307.880	228.334	0.113	-0.182
-306.866	-27.550	-0.126	-0.072
-305.851	86.046	0.094	0.102
-304.837	276.550	-0.113	-0.198
-303.822	482.373	-0.094	0.211
-302.807	172.899	0.210	0.299
-301.793	-87.353	0.076	-0.023
-300.778	800.000	-0.040	0.120
-299.764	-70.100	-0.355	0.134
-298.749	-80.825	0.071	0.023
-297.735	159.536	-0.241	-0.332
-296.720	-86.093	-0.150	0.046
-295.705	-95.784	0.119	0.031
-294.691	319.750	0.087	-0.164
-293.676	320.789	0.268	0.504
-292.662	180.869	-0.089	0.130
-291.647	149.657	-0.273	0.366
-290.632	-55.412	0.166	0.074
-289.618	311.812	0.076	-0.140
-288.603	800.000	0.028	0.098
-287.589	151.943	-0.085	-0.115
-286.574	-87.457	0.230	-0.069
-285.559	-18.114	-0.152	0.094
-284.545	446.370	0.183	-0.398
-283.530	-54.689	-0.216	-0.097
-282.516	-152.728	0.222	0.016
-281.501	63.432	-0.168	-0.167
-280.486	257.811	0.128	-0.218
-279.472	-9.017	-0.230	0.152
-278.457	48.417	0.221	-0.204
-277.443	800.000	0.060	0.169
-276.428	-30.008	0.078	0.044
-275.413	-51.855	0.210	-0.097
-274.399	-133.744	0.238	-0.029
-273.384	-200.000	0.032	0.232
-272.370	-28.950	-0.275	0.156
-271.355	333.429	0.116	0.222
-270.340	-116.737	-0.209	-0.038
-269.326	-44.680	0.284	-0.140
-268.311	-155.388	0.386	0.025
-267.297	362.292	-0.110	-0.219
-266.282	-90.597	0.186	-0.053
-265.267	-200.000	-0.017	0.105
-264.253	-97.207	0.071	0.018
-263.238	-52.550	0.194	-0.088
-262.224	-25.128	0.133	0.078
-261.209	-20.254	-0.357	0.217
-260.195	800.000	-0.053	0.218
-259.180	-200.000	0.026	0.204
-258.165	800.000	0.102	0.282
-257.151	-200.000	-0.005	0.173
-256.136	-34.831	0.188	0.102
-255.122	28.477	0.321	-0.268
-254.107	120.885	0.124	-0.152
-253.092	-26.141	-0.062	-0.036
-252.078	800.000	-0.059	0.239
-251.063	95.595	-0.154	0.174
-250.049	-200.000	-0.060	0.437
-249.034	364.128	0.133	0.264
-248.019	-200.000	-0.042	-0.326
-247.005	151.766	0.163	-0.220
-245.990	-97.778	0.344	0.088
-244.976	-200.000	-0.047	0.253
-243.961	-8.751	0.207	0.137
-242.946	165.671	-0.131	0.182
-241.932	177.036	-0.174	0.250
-240.917	800.000	0.041	-0.132
-239.903	62.324	-0.096	0.095
-238.888	-200.000	-0.024	0.372
-237.873	76.678	-0.185	-0.193
-236.859	84.870	-0.194	0.210
-235.844	-200.000	0.040	-0.321
-234.830	-87.517	-0.174	-0.052
-233.815	-82.588	0.466	0.149
-232.800	63.726	0.297	-0.295
-231.786	23.881	-0.112	0.091
-230.771	-124.479	-0.238	-0.036
-229.757	-27.157	0.251	0.144
-228.742	-19.297	0.211	-0.129
-227.727	-92.321	-0.123	-0.034
-226.713	-200.000	-0.030	-0.168
-225.698	697.181	-0.012	0.030
-224.684	-200.000	-0.003	0.089
-223.669	457.163	-0.128	0.281
-222.655	-91.885	0.099	0.028
-221.640	-77.596	-0.221	0.076
-220.625	-200.000	0.009	-0.068
-219.611	-200.000	-0.005	0.108
-218.596	-38.663	0.251	-0.130
-217.582	82.669	0.170	0.183
-216.567	-200.000	0.002	-0.114
-215.552	-28.086	-0.250	0.143
-214.538	-157.749	0.242	-0.014
-213.523	112.176	-0.155	-0.185
-212.509	730.140	-0.084	0.220
-211.494	-75.292	-0.285	-0.100
-210.479	-200.000	-0.010	0.264
-209.465	-179.414	-0.118	0.003
-208.450	-183.100	0.159	-0.003
-207.436	-57.527	0.188	-0.081
-206.421	-5.402	-0.129	-0.088
-205.406	-104.083	-0.139	0.032
-204.392	140.041	-0.107	-0.139
-203.377	182.202	0.114	0.166
-202.363	-55.229	0.196	0.087
-201.348	-33.620	0.081	0.044
-200.333	-163.661	-0.222	0.010
-199.319	-200.000	0.035	0.169
-198.304	677.074	0.081	-0.206
-197.290	92.161	-0.202	-0.224
-196.275	800.000	-0.051	0.175
-195.260	-90.462	0.243	0.069
-194.246	-127.744	-0.101	0.014
-193.231	-200.000	-0.057	-0.505
-192.217	59.574	-0.179	-0.174
-191.202	43.610	-0.092	-0.083
-190.187	-47.376	0.375	0.180
-189.173	800.000	-0.066	0.214
-188.158	547.743	-0.067	-0.158
-187.144	-51.170	0.160	0.074
-186.129	-2.365	0.280	0.193
-185.114	-5.918	0.020	0.013
-184.100	-128.092	-0.092	0.013
-183.085	-21.973	0.063	-0.037
-182.071	-5.240	-0.108	0.073
-181.056	-82.311	-0.164	0.053
-180.042	686.464	0.046	-0.118
-179.027	138.173	-0.175	-0.225
-178.012	-79.500	0.395	0.131
-176.998	-200.000	-0.040	-0.252
-175.983	-40.175	0.083	-0.042
-174.969	663.795	-0.060	0.151
-173.954	-112.514	0.083	-0.016
-172.939	-129.766	0.203	0.028
-171.925	800.000	0.069	-0.211
-170.910	-200.000	0.009	0.081
-169.896	-2.550	-0.425	-0.293
-168.881	-9.727	-0.134	-0.088
-167.866	-75.426	-0.247	-0.087
-166.852	-111.123	-0.166	-0.034
-165.837	-139.143	0.045	0.005
-164.823	-200.000	-0.016	-0.143
-163.808	-97.901	-0.226	-0.057
-162.793	18.062	-0.216	0.169
-161.779	226.127	-0.150	0.239
-160.764	-113.611	0.430	0.083
-159.750	106.343	0.024	-0.027
-158.735	-39.025	-0.312	-0.162
-157.720	2.143	-0.146	0.104
-156.706	-200.000	0.053	0.285
-155.691	800.000	-0.036	-0.139
-154.677	-47.107	-0.086	-0.041
-153.662	-51.207	-0.279	-0.129
-152.647	101.757	0.094	-0.108
-151.633	34.258	-0.152	-0.130
-150.618	672.310	0.126	0.322
-149.604	-179.612	0.442	-0.009
-148.589	-63.497	-0.204	-0.082
-147.574	-200.000	0.030	0.164
-146.560	-150.880	-0.163	-0.012
-145.545	147.182	0.156	0.206
-144.531	-200.000	-0.025	0.131
-143.516	-200.000	0.020	0.213
-142.502	51.852	-0.321	0.301
-141.487	-154.173	-0.188	0.013
-140.472	195.793	-0.023	0.035
-139.458	31.954	-0.052	-0.044
-138.443	60.452	-0.225	-0.219
-137.429	-140.108	0.327	-0.034
-136.414	-11.370	0.193	-0.125
-135.399	308.646	0.080	0.146
-134.385	-200.000	0.080	0.475
-133.370	17.850	-0.146	-0.114
-132.356	-200.000	0.021	-0.120
-131.341	-145.806	0.142	0.012
-130.326	800.000	-0.084	-0.327
-129.312	-200.000	-0.016	-0.092
-128.297	-89.613	0.289	0.083
-127.283	800.000	-0.107	-0.292
-126.268	-118.585	0.301	0.052
-125.253	188.895	0.119	0.175
-124.239	-164.801	0.275	-0.012
-123.224	-200.000	0.046	0.240
-122.210	-25.975	-0.340	0.197
-121.195	224.215	0.129	0.205
-120.180	312.564	-0.068	0.126
-119.166	800.000	-0.060	0.249
-118.151	800.000	-0.041	0.142
-117.137	-28.855	0.096	0.054
-116.122	-43.811	-0.045	-0.022
-115.107	626.300	0.036	-0.089
-114.093	377.829	-0.149	0.300
-113.078	8.369	0.146	0.108
-112.064	-62.645	0.437	0.178
-111.049	116.119	-0.267	-0.321
-110.034	-57.113	-0.238	-0.103
-109.020	-143.702	0.301	-0.028
-108.005	173.435	0.098	0.139
-106.991	800.000	-0.007	-0.023
-105.976	-101.176	0.392	-0.094
-104.962	-200.000	-0.020	-0.098
-103.947	-147.797	0.161	0.013
-102.932	-93.270	0.208	0.057
-101.918	800.000	-0.088	-0.255
-100.903	-6.970	-0.242	0.161
-99.889	800.000	0.009	-0.037
-98.874	55.832	-0.062	0.059
-97.859	757.866	-0.093	-0.247
-96.845	-106.419	0.409	0.090
-95.830	-66.341	0.184	-0.072
-94.816	209.839	-0.156	-0.239
-93.801	59.265	0.105	-0.102
-92.786	189.281	0.179	-0.263
-91.772	-92.858	0.260	0.071
-90.757	-151.753	-0.207	0.015
-89.743	-74.109	0.294	0.104
-88.728	609.222	0.066	-0.163
-87.713	61.433	-0.136	0.133
-86.699	-4.650	0.175	0.119
-85.684	465.232	-0.145	0.317
-84.670	191.828	0.077	-0.114
-83.655	-200.000	-0.038	0.282
-82.640	212.581	-0.149	-0.230
-81.626	136.539	0.147	-0.188
-80.611	-68.117	0.341	-0.130
-79.597	-157.434	0.251	-0.015
-78.582	333.580	-0.110	0.208
-77.567	-126.884	-0.170	0.025
-76.553	-186.995	0.245	0.003
-75.538	-138.969	-0.259	0.028
-74.524	800.000	0.064	0.252
-73.509	-120.234	-0.314	-0.053
-72.494	40.478	-0.119	0.105
-71.480	195.082	-0.204	0.304
-70.465	-65.195	-0.176	-0.070
-69.451	74.509	0.217	0.223
-68.436	-200.000	0.002	-0.204
-67.422	-6.827	-0.167	0.111
-66.407	-200.000	-0.001	-0.059
-65.392	678.638	-0.081	0.206
-64.378	-103.946	-0.267	-0.061
-63.363	-200.000	-0.023	0.219
-62.349	-139.900	0.386	0.040
-61.334	-2.505	-1.278	-0.877
-60.319	-21.246	0.595	0.356
-59.305	390.284	-0.515	-1.046
-58.290	525.597	0.465	1.073
-57.276	644.570	0.654	1.635
-56.261	-200.000	107.128	627.173
-55.246	521.059	1515.539	3482.011
-54.232	176.197	2704.018	3845.956
-53.217	111.929	2163.008	2558.545
-52.203	41.177	1600.518	1416.478
-51.188	32.737	1336.651	1132.481
-50.173	29.631	1295.626	1079.564
-49.159	54.094	1351.004	1272.377
-48.144	54.169	1366.095	1286.983
-47.130	32.620	1320.747	1118.136
-46.115	29.342	1302.768	1083.649
-45.100	29.073	1298.016	1078.076
-44.086	29.108	1295.306	1075.988
-43.071	29.147	1292.904	1074.175
-42.057	29.051	1290.606	1071.664
-41.042	29.171	1288.791	1070.813
-40.027	29.029	1287.943	1069.241
-39.013	29.100	1285.800	1067.834
-37.998	29.014	1283.870	1065.690
-36.984	29.099	1282.123	1064.686
-35.969	29.099	1280.706	1063.468
-34.954	29.206	1278.450	1062.173
-33.940	29.247	1276.945	1061.113
-32.925	29.186	1276.314	1060.196
-31.911	29.309	1274.468	1059.327
-30.896	29.142	1273.538	1057.552
-29.881	29.280	1272.030	1057.049
-28.867	29.289	1270.535	1055.821
-27.852	29.348	1268.575	1054.482
-26.838	29.309	1267.575	1053.389
-25.823	29.301	1266.188	1052.146
-24.809	29.196	1264.921	1050.453
-23.794	29.179	1263.923	1049.487
-22.779	29.262	1261.962	1048.290
-21.765	29.288	1260.733	1047.374
-20.750	29.314	1259.500	1046.460
-19.736	29.267	1257.891	1044.814
-18.721	29.213	1256.602	1043.392
-17.706	29.182	1255.933	1042.623
-16.692	29.268	1254.985	1042.280
-15.677	29.065	1254.217	1040.453
-14.663	29.063	1252.910	1039.316
-13.648	29.127	1251.927	1038.821
-12.633	29.155	1250.601	1037.838
-11.619	29.185	1250.152	1037.595
-10.604	29.179	1248.716	1036.326
-9.590	29.209	1248.096	1035.936
-8.575	29.069	1247.517	1034.628
-7.560	29.182	1246.308	1034.222
-6.546	29.205	1245.235	1033.420
-5.531	29.064	1245.264	1032.610
-4.517	29.096	1244.225	1031.887
-3.502	29.061	1243.479	1031.032
-2.487	29.191	1242.165	1030.631
-1.473	28.992	1238.127	1026.127
-0.458	27.715	1222.977	1006.493
0.556	22.169	1206.407	970.810
1.571	18.616	1212.363	955.763
2.586	17.929	1226.496	962.942
3.600	17.807	1215.897	953.856
4.615	12.997	1144.508	872.402
5.629	4.102	1070.633	771.857
6.644	0.019	1050.536	737.311
7.659	-0.230	1048.051	734.286
8.673	-0.489	1047.160	732.330
9.688	-0.479	1045.829	731.381
10.702	-0.040	1044.148	732.282
11.717	5.675	1052.054	765.752
12.731	14.812	1064.847	820.017
13.746	19.464	1070.401	847.114
14.761	20.255	1071.753	851.997
15.775	20.323	1071.006	851.661
16.790	20.014	1070.105	849.355
17.804	20.027	1069.705	849.023
18.819	20.112	1069.337	849.072
19.834	20.219	1069.313	849.505
20.848	20.234	1068.802	849.096
21.863	20.191	1068.229	848.355
22.877	20.078	1067.567	847.203
23.892	20.089	1066.722	846.511
24.907	20.145	1066.020	846.151
25.921	20.205	1064.579	845.224
26.936	20.212	1063.121	844.029
27.950	20.125	1061.590	842.312
28.965	19.943	1059.767	839.911
29.980	20.018	1058.377	839.098
30.994	20.227	1057.272	839.157
32.009	20.179	1056.406	838.167
33.023	19.989	1054.714	835.830
34.038	20.200	1054.102	836.291
35.053	20.376	1053.532	836.612
36.067	20.178	1053.053	835.203
37.082	20.328	1051.873	834.918
38.096	20.347	1051.300	834.480
39.111	20.568	1050.231	834.616
40.126	20.299	1048.921	832.213
41.140	20.087	1047.186	829.746
42.155	19.904	1045.561	827.510
43.169	19.954	1044.598	826.917
44.184	19.962	1043.753	826.210
45.199	19.895	1042.441	824.780
46.213	19.811	1041.670	823.697
47.228	19.981	1040.920	823.842
48.242	20.038	1039.974	823.290
49.257	20.139	1039.004	822.929
50.271	20.240	1038.034	822.566
51.286	20.349	1037.237	822.377
52.301	20.309	1036.367	821.429
53.315	20.204	1035.730	820.352
54.330	20.275	1034.196	819.401
55.344	20.077	1034.077	818.300
56.359	20.170	1032.897	817.729
57.374	20.112	1031.372	816.176
58.388	20.058	1031.438	815.903
59.403	19.898	1030.771	814.551
60.417	19.835	1029.427	813.122
61.432	19.838	1029.039	812.756
62.447	19.968	1028.078	812.535
63.461	19.980	1027.420	811.999
64.476	20.123	1026.052	811.516
65.490	19.894	1025.463	809.905
66.505	20.019	1024.309	809.510
67.520	19.986	1024.117	809.131
68.534	19.863	1022.680	807.352
69.549	19.598	1021.727	805.289
70.563	19.619	1020.970	804.721
71.578	19.600	1020.068	803.852
72.593	19.516	1019.145	802.659
73.607	19.579	1018.748	802.571
74.622	19.849	1018.378	803.462
75.636	19.979	1017.185	803.054
76.651	19.828	1016.244	801.538
77.666	19.561	1016.191	800.189
78.680	19.840	1015.468	800.839
79.695	19.781	1014.477	799.717
80.709	19.961	1013.624	799.803
81.724	19.807	1012.981	798.516
82.739	20.044	1012.159	798.891
83.753	20.225	1011.698	799.291
84.768	20.491	1010.310	799.345
85.782	20.571	1009.836	799.267
86.797	20.275	1009.119	797.267
87.812	20.369	1007.666	796.484
88.826	20.424	1006.784	795.967
89.841	20.467	1005.529	795.103
90.855	20.441	1004.707	794.262
91.870	20.364	1004.049	793.319
92.884	20.368	1002.621	792.139
93.899	20.204	1001.884	790.740
94.914	20.389	1001.137	790.920
95.928	20.257	999.958	789.321
96.943	20.121	998.627	787.581
97.957	19.828	997.771	785.509
98.972	19.781	996.493	784.217
99.987	19.872	996.113	784.261
101.001	20.153	994.819	784.447
102.016	20.043	994.240	783.423
103.030	20.024	993.336	782.557
104.045	19.973	991.795	781.042
105.060	19.767	991.274	779.634
106.074	20.074	990.644	780.451
107.089	20.453	989.983	781.570
108.103	20.278	988.934	779.884
109.118	19.999	987.729	777.613
110.133	19.959	986.881	776.697
111.147	19.935	985.437	775.383
112.162	19.700	984.340	773.400
113.176	19.895	983.692	773.693
114.191	19.819	983.044	772.779
115.206	19.511	981.740	770.309
116.220	19.596	980.913	769.973
117.235	19.796	979.571	769.741
118.249	19.761	978.694	768.828
119.264	19.710	977.846	767.865
120.279	19.838	977.365	767.989
121.293	19.823	976.265	766.991
122.308	19.817	975.699	766.451
123.322	19.770	974.553	765.274
124.337	19.589	973.205	763.350
125.352	19.147	971.581	760.059
126.366	19.068	970.861	759.079
127.381	19.906	970.290	762.257
128.395	20.118	970.086	762.963
129.410	20.338	969.181	763.153
130.424	20.191	968.061	761.554
131.439	20.159	967.157	760.637
132.454	20.151	966.192	759.776
133.468	20.038	965.452	758.632
134.483	20.183	964.726	758.630
135.497	20.381	963.812	758.706
136.512	20.304	963.330	757.927
137.527	20.346	962.127	757.095
138.541	20.428	960.885	756.407
139.556	20.477	960.085	755.923
140.570	20.433	959.312	755.055
141.585	20.540	958.113	754.510
142.600	20.492	957.451	753.715
143.614	20.707	956.622	753.928
144.629	20.666	955.905	753.117
145.643	20.592	954.426	751.568
146.658	20.483	953.427	750.241
147.673	20.423	952.248	748.988
148.687	20.333	951.376	747.848
149.702	20.201	950.546	746.562
150.716	20.233	949.221	745.592
151.731	20.345	949.042	745.869
152.746	20.621	948.165	746.297
153.760	20.757	947.356	746.179
154.775	20.707	947.225	745.793
155.789	20.565	945.989	744.147
156.804	20.317	944.922	742.180
157.819	20.628	944.215	742.890
158.833	20.751	943.304	742.632
159.848	20.745	942.285	741.738
160.862	20.535	941.385	740.072
161.877	20.535	940.654	739.429
162.892	20.720	939.384	739.151
163.906	20.478	938.850	737.638
164.921	20.633	937.931	737.508
165.935	20.620	937.069	736.709
166.950	20.565	936.052	735.613
167.964	20.582	935.074	734.853
168.979	20.512	934.205	733.808
169.994	20.387	933.607	732.747
171.008	20.659	932.649	733.077
172.023	20.608	931.759	732.096
173.037	20.391	930.441	730.084
174.052	20.339	929.824	729.319
175.067	20.388	929.283	729.033
176.081	20.538	928.762	729.192
177.096	20.333	928.123	727.763
178.110	19.977	927.171	725.462
179.125	19.922	926.323	724.504
180.140	20.019	925.619	724.298
181.154	20.158	925.605	724.799
182.169	20.462	925.265	725.740
183.183	20.570	924.942	725.873
184.198	20.417	923.834	724.304
185.213	20.461	923.053	723.809
186.227	20.637	922.350	723.930
187.242	20.432	922.070	722.790
188.256	20.576	921.057	722.529
189.271	20.695	920.319	722.381
190.286	20.373	918.894	719.865
191.300	19.927	917.623	716.959
192.315	19.182	916.404	712.862
193.329	19.144	915.966	712.301
194.344	20.133	916.064	716.404
195.359	20.563	915.840	717.940
196.373	20.563	915.475	717.590
197.388	20.351	914.934	716.228
198.402	20.374	914.416	715.854
199.417	20.425	913.398	715.202
200.432	20.102	912.353	712.992
201.446	20.057	911.393	711.995
202.461	20.134	911.193	712.090
203.475	19.106	909.542	706.523
204.490	18.557	908.001	703.011
205.504	19.479	908.425	707.056
206.519	20.165	907.898	709.394
207.534	20.183	907.726	709.268
208.548	20.558	907.692	710.711
209.563	20.179	907.158	708.683
210.577	20.342	905.949	708.343
211.592	20.675	905.706	709.448
212.607	20.546	904.960	708.273
213.621	20.656	904.069	707.962
214.636	20.708	903.122	707.369
215.650	20.639	902.258	706.350
216.665	20.638	902.004	706.083
217.680	20.634	900.861	705.113
218.694	20.255	899.679	702.589
219.709	20.144	899.025	701.567
220.723	20.393	898.765	702.310
221.738	20.391	898.054	701.683
222.753	20.281	897.496	700.739
223.767	20.548	896.963	701.341
224.782	20.697	897.055	701.952
225.796	20.660	896.155	701.035
226.811	20.006	894.676	697.183
227.826	19.506	893.476	694.178
228.840	19.673	893.311	694.660
229.855	19.759	892.345	694.190
230.869	19.427	891.168	691.884
231.884	19.825	891.326	693.542
232.899	20.702	890.479	696.331
233.913	20.472	890.168	695.106
234.928	20.426	889.705	694.500
235.942	20.459	888.967	693.995
236.957	20.008	888.286	691.601
237.972	20.209	887.471	691.706
238.986	20.193	887.244	691.405
240.001	20.333	886.171	691.066
241.015	20.485	885.512	691.095
242.030	20.395	885.632	690.769
243.045	20.485	885.072	690.629
244.059	20.663	884.986	691.207
245.074	20.425	883.410	688.972
246.088	20.130	882.231	686.824
247.103	20.460	882.044	687.924
248.117	20.872	882.222	689.631
249.132	20.968	881.816	689.634
250.147	21.013	880.998	689.111
251.161	21.224	880.775	689.711
252.176	21.191	880.021	688.927
253.190	21.284	879.289	688.662
254.205	21.372	879.012	688.731
255.220	21.370	877.948	687.828
256.234	21.253	877.375	686.856
257.249	21.243	876.773	686.284
258.263	21.266	875.774	685.533
259.278	21.355	875.228	685.395
260.293	21.342	874.831	684.972
261.307	21.187	873.865	683.547
262.322	21.074	872.759	682.182
263.336	20.200	870.794	677.171
264.351	19.210	868.802	671.705
265.366	19.366	869.171	672.539
266.380	20.628	869.341	677.530
267.395	21.036	868.830	678.661
268.409	20.833	868.460	677.522
269.424	21.110	867.774	678.001
270.439	21.222	866.988	677.763
271.453	21.111	867.147	677.398
272.468	21.365	866.165	677.554
273.482	21.500	865.549	677.537
274.497	20.919	864.697	674.561
275.512	20.767	863.694	673.130
276.526	21.122	863.472	674.271
277.541	21.204	863.413	674.480
278.555	21.123	862.343	673.272
279.570	20.873	861.234	671.384
280.585	20.995	860.740	671.409
281.599	21.028	859.865	670.793
282.614	20.234	858.957	666.974
283.628	20.497	858.147	667.299
284.643	20.796	857.925	668.212
285.657	20.437	856.572	665.727
286.672	20.233	856.084	664.507
287.687	20.900	856.193	667.087
288.701	20.681	855.519	665.665
289.716	20.485	854.506	664.068
290.730	20.424	853.534	663.019
291.745	20.114	852.740	661.161
292.760	20.430	853.033	662.539
293.774	21.421	853.280	666.451
294.789	21.738	852.762	667.194
295.803	21.799	851.965	666.743
296.818	21.841	851.671	666.613
297.833	21.230	850.403	663.242
298.847	21.226	849.696	662.617
299.862	21.581	849.392	663.665
300.876	21.707	849.025	663.799
301.891	21.604	848.250	662.746
302.906	21.097	846.902	659.717
303.920	21.372	846.717	660.552
304.935	21.642	847.097	661.812
305.949	21.579	846.174	660.794
306.964	21.362	845.468	659.368
307.979	21.420	844.843	659.039
308.993	21.804	845.010	660.558
310.008	21.686	844.092	659.337
311.022	21.470	843.340	657.880
312.037	21.438	842.822	657.295
313.052	21.141	841.705	655.254
314.066	20.354	840.276	651.132
315.081	20.148	839.827	649.955
316.095	20.868	840.397	653.038
317.110	21.305	839.598	653.995
318.125	20.496	838.049	649.707
319.139	19.705	836.808	645.734
320.154	19.614	836.580	645.160
321.168	20.491	836.994	648.700
322.183	21.131	836.825	650.898
323.197	21.266	836.671	651.224
324.212	21.412	836.179	651.325
325.227	21.456	835.640	651.013
326.241	21.286	834.788	649.659
327.256	21.308	834.058	649.115
328.270	21.128	833.971	648.323
329.285	21.012	832.578	646.753
330.300	21.001	831.798	646.046
331.314	21.096	831.706	646.273
332.329	21.567	831.856	648.073
333.343	21.670	831.193	647.881
334.358	21.555	830.679	646.998
335.373	21.535	830.634	646.832
336.387	21.928	830.380	648.029
337.402	21.879	830.369	647.781
338.416	21.861	829.789	647.207
339.431	21.934	829.304	647.041
340.446	22.142	829.135	647.619
341.460	22.084	828.158	646.581
342.475	21.785	827.913	645.236
343.489	21.839	827.609	645.139
344.504	22.106	827.439	645.932
345.519	22.230	827.389	646.290
346.533	22.346	826.708	646.128
347.548	22.454	825.667	645.654
348.562	22.431	825.170	645.125
349.577	22.177	824.759	643.814
350.592	22.300	823.843	643.493
351.606	22.393	822.815	642.973
352.621	22.173	822.252	641.670
353.635	22.125	821.646	640.967
354.650	21.382	819.889	636.834
355.665	20.493	818.817	632.711
356.679	21.008	818.797	634.513
357.694	21.380	818.188	635.337
358.708	21.274	817.756	634.560
359.723	21.811	817.360	636.146
360.738	22.070	817.030	636.773
361.752	22.064	816.810	636.521
362.767	22.328	816.525	637.200
363.781	22.566	815.939	637.547
364.796	22.669	815.857	637.799
365.810	22.684	815.050	637.168
366.825	22.463	814.730	636.063
367.840	22.241	814.279	634.851
368.854	21.945	813.398	633.042
369.869	22.034	812.819	632.858
370.883	22.201	812.066	632.816
371.898	21.894	812.142	631.711
372.913	22.081	811.568	631.884
373.927	22.249	811.439	632.331
374.942	22.207	810.905	631.706
375.956	22.443	810.264	631.998
376.971	22.506	809.945	631.920
377.986	22.646	809.622	632.116
379.000	22.572	809.259	631.510
380.015	22.454	808.422	630.377
381.029	22.594	807.728	630.283
382.044	22.649	807.205	630.015
383.059	22.611	806.662	629.401
384.073	22.581	806.380	629.019
385.088	22.538	805.997	628.509
386.102	22.357	805.216	627.199
387.117	22.536	804.458	627.190
388.132	22.046	803.315	624.503
389.146	21.649	802.734	622.583
390.161	21.998	802.734	623.768
391.175	22.365	802.560	624.883
392.190	22.064	801.045	622.582
393.205	20.695	798.767	615.912
394.219	19.364	797.391	610.091
395.234	19.429	797.238	610.150
396.248	21.079	798.692	617.050
397.263	22.340	799.283	621.913
398.278	22.226	799.126	621.334
399.292	21.980	798.353	619.807
400.307	22.026	797.603	619.333
401.321	22.152	797.406	619.569
402.336	22.539	797.276	620.778
403.350	22.963	796.923	621.941
404.365	22.988	797.219	622.205
405.380	23.356	796.664	623.009
406.394	23.209	796.211	622.085
407.409	23.371	795.208	621.816
408.423	23.150	795.224	620.997
409.438	23.221	795.002	621.016
410.453	23.295	794.568	620.883
411.467	23.187	794.134	620.110
412.482	23.239	793.260	619.555
413.496	23.402	793.094	619.939
414.511	23.269	793.067	619.401
415.526	23.295	792.048	618.639
416.540	23.269	791.414	617.999
417.555	22.971	790.748	616.385
418.569	22.941	790.668	616.162
419.584	22.955	790.068	615.690
420.599	22.711	789.458	614.310
421.613	158.529	1364.561	1799.647
422.628	137.298	1448.344	1799.722
