DTS Sentinel unit serial number:	SN413079Multiplexer serial number:	ORYXHardware model number:	OX4-SRSoftware version number:	ORYX F/W v4.00 Oryx Data Collector v3.7.2.0data status	okinstallation	princeton_trtdifferential loss correction	single-endedforward channel	channel 1reverse channel	N/Adate	2019/09/18time	06:42:35forward acquisition time	60.00reverse acquisition time	0.00gamma	496.2192k internal	0.2339k external	0.2339temperature offset calibration	0.9986default loss term (dB/km)	0.3790temperature slope calibration	1.0000multiplexer offset coefficient	1.0000multiplexer slope coefficient	1.0000fibre end	0.00T internal ref (°C)	23.25T ext. ref 1 (°C)	0.20T ext. ref 2 (°C)	17.12length (m)	temperature (°C)	Stokes	anti-Stokes-747.200	232.818	0.118	0.195
-746.185	-181.541	-0.204	0.004
-745.171	-66.379	-0.204	-0.081
-744.156	99.731	-0.267	0.310
-743.142	229.405	0.231	0.378
-742.127	-200.000	-0.030	0.330
-741.112	-198.627	0.198	0.001
-740.098	-200.000	0.025	0.334
-739.083	-200.000	-0.029	0.155
-738.069	-200.000	-0.074	0.407
-737.054	800.000	-0.051	0.171
-736.039	-108.332	-0.250	0.054
-735.025	269.824	0.167	-0.294
-734.010	-159.023	-0.458	-0.026
-732.996	-200.000	-0.020	-0.277
-731.981	-117.402	-0.148	0.027
-730.966	-141.031	-0.244	-0.025
-729.952	-53.280	0.140	-0.064
-728.937	98.157	0.177	-0.204
-727.923	-121.892	0.163	0.027
-726.908	11.070	-0.135	-0.104
-725.894	800.000	0.052	-0.147
-724.879	-88.711	-0.219	0.065
-723.864	-112.795	-0.277	-0.055
-722.850	392.606	-0.047	0.098
-721.835	9.508	0.095	0.072
-720.821	137.109	0.197	-0.259
-719.806	80.256	-0.192	-0.207
-718.791	78.419	0.215	0.231
-717.777	-16.058	-0.267	0.170
-716.762	221.671	-0.047	-0.075
-715.748	-12.756	-0.160	0.104
-714.733	549.896	0.098	0.236
-713.718	-86.022	0.166	-0.051
-712.704	-138.263	-0.293	0.032
-711.689	-96.214	0.087	-0.023
-710.675	119.763	-0.394	-0.489
-709.660	421.684	0.128	0.274
-708.645	5.112	-0.185	-0.137
-707.631	169.157	0.043	0.062
-706.616	-85.850	0.225	-0.070
-705.602	-18.088	-0.181	0.113
-704.587	146.026	0.073	-0.098
-703.572	-90.536	0.269	0.078
-702.558	67.842	0.038	0.039
-701.543	14.179	-0.151	0.118
-700.529	58.054	-0.322	0.315
-699.514	26.288	-0.148	-0.124
-698.499	67.354	0.200	-0.204
-697.485	170.560	0.098	-0.140
-696.470	-57.117	-0.313	0.138
-695.456	800.000	0.015	-0.065
-694.441	-83.798	0.237	-0.076
-693.426	217.277	-0.059	0.095
-692.412	-170.674	-0.037	0.001
-691.397	-18.977	-0.182	0.113
-690.383	4.699	-0.251	0.185
-689.368	-180.111	-0.457	-0.010
-688.354	-151.466	0.323	-0.024
-687.339	-200.000	-0.026	0.149
-686.324	-30.257	0.151	0.086
-685.310	-200.000	0.062	-0.416
-684.295	378.337	0.024	0.049
-683.281	257.402	0.064	0.110
-682.266	-200.000	-0.085	-0.486
-681.251	-68.335	0.053	-0.021
-680.237	-3.516	0.171	-0.119
-679.222	-137.860	0.357	-0.040
-678.208	-142.028	-0.214	-0.021
-677.193	800.000	-0.058	0.226
-676.178	-200.000	0.002	-0.167
-675.164	232.979	-0.074	0.122
-674.149	-156.395	-0.051	-0.003
-673.135	-34.473	-0.132	0.073
-672.120	289.999	-0.051	-0.093
-671.105	-200.000	0.035	0.285
-670.091	180.457	-0.186	0.273
-669.076	37.284	0.328	-0.291
-668.062	-128.077	-0.042	-0.006
-667.047	39.926	0.098	0.088
-666.032	21.307	-0.138	-0.112
-665.018	-78.241	0.183	-0.063
-664.003	648.624	-0.129	-0.330
-662.989	338.837	-0.060	0.116
-661.974	-200.000	0.003	0.075
-660.959	370.728	0.040	-0.081
-659.945	-102.557	-0.128	0.031
-658.930	-60.419	-0.096	-0.041
-657.916	21.245	0.037	0.030
-656.901	-21.403	-0.229	-0.140
-655.886	-50.200	0.226	0.107
-654.872	23.229	-0.056	0.046
-653.857	-77.274	-0.217	-0.075
-652.843	122.655	0.176	-0.220
-651.828	44.526	0.118	-0.108
-650.814	29.964	0.119	-0.101
-649.799	74.643	0.145	-0.152
-648.784	-167.995	0.083	0.003
-647.770	-117.588	-0.244	-0.044
-646.755	212.632	0.092	0.145
-645.741	-200.000	-0.001	0.115
-644.726	-67.711	-0.321	0.126
-643.711	519.549	-0.027	0.064
-642.697	401.138	0.122	0.257
-641.682	95.254	0.354	0.402
-640.668	-84.634	-0.276	-0.087
-639.653	-200.000	0.024	0.117
-638.638	-200.000	0.085	-0.430
-637.624	-154.452	-0.057	0.004
-636.609	800.000	-0.061	-0.250
-635.595	43.286	-0.285	-0.260
-634.580	279.866	0.119	0.212
-633.565	217.697	0.059	-0.094
-632.551	-200.000	-0.010	-0.111
-631.536	237.097	-0.134	-0.221
-630.522	800.000	0.146	-0.447
-629.507	-46.707	0.184	0.090
-628.492	-126.762	-0.220	-0.032
-627.478	-200.000	0.030	0.172
-626.463	-160.510	0.258	0.014
-625.449	-108.112	-0.280	0.061
-624.434	-200.000	0.049	0.305
-623.419	123.575	0.150	0.187
-622.405	800.000	0.082	0.334
-621.390	-94.368	-0.093	-0.025
-620.376	-41.169	-0.155	-0.080
-619.361	368.600	-0.044	-0.089
-618.346	800.000	-0.077	-0.230
-617.332	-200.000	-0.006	-0.080
-616.317	800.000	-0.108	0.399
-615.303	-27.440	-0.262	0.152
-614.288	-22.104	-0.296	0.179
-613.273	-100.212	0.279	-0.069
-612.259	233.922	-0.012	0.019
-611.244	131.408	-0.230	0.295
-610.230	30.398	0.141	0.120
-609.215	212.859	0.153	-0.242
-608.201	-200.000	-0.021	0.097
-607.186	140.589	-0.294	-0.387
-606.171	-84.691	-0.148	0.046
-605.157	-200.000	0.008	0.195
-604.142	352.297	-0.110	0.218
-603.128	-75.737	-0.330	-0.117
-602.113	-16.400	-0.171	-0.108
-601.098	49.060	-0.094	-0.088
-600.084	-130.866	0.050	-0.007
-599.069	418.387	0.149	-0.317
-598.055	425.618	-0.141	-0.302
-597.040	-200.000	-0.076	-0.457
-596.025	96.194	-0.068	-0.078
-595.011	333.199	0.087	-0.168
-593.996	-85.901	-0.358	-0.110
-592.982	52.607	0.165	0.157
-591.967	491.043	-0.089	0.204
-590.952	-120.273	-0.288	0.049
-589.938	19.192	-0.057	0.045
-588.923	-77.353	-0.166	0.058
-587.909	114.401	0.187	-0.228
-586.894	-91.537	0.158	0.045
-585.879	-48.761	-0.122	0.058
-584.865	-200.000	0.023	0.116
-583.850	-55.953	0.447	-0.199
-582.836	449.411	-0.213	-0.468
-581.821	-70.040	-0.273	-0.104
-580.806	-17.650	0.167	-0.104
-579.792	800.000	0.061	-0.264
-578.777	-37.686	-0.216	-0.115
-577.763	-12.220	-0.153	-0.099
-576.748	-183.918	-0.128	0.002
-575.733	-200.000	-0.004	0.153
-574.719	-77.895	-0.246	0.085
-573.704	-200.000	0.004	0.267
-572.690	800.000	-0.051	-0.153
-571.675	-32.080	0.391	-0.218
-570.661	-158.950	0.258	0.015
-569.646	37.214	0.030	0.027
-568.631	-98.664	0.105	-0.027
-567.617	-57.120	0.179	-0.079
-566.602	-65.456	0.194	-0.078
-565.588	-86.115	-0.325	0.100
-564.573	-25.312	-0.150	-0.088
-563.558	381.496	0.027	-0.056
-562.544	140.309	0.201	0.264
-561.529	-119.340	-0.172	-0.030
-560.515	-29.466	0.102	-0.058
-559.500	-110.180	-0.259	0.054
-558.485	-111.949	0.074	0.015
-557.471	-57.423	-0.255	0.111
-556.456	-133.224	-0.294	-0.037
-555.442	45.008	-0.109	-0.100
-554.427	250.018	0.128	0.216
-553.412	-200.000	-0.016	-0.276
-552.398	105.901	-0.192	-0.226
-551.383	-95.789	-0.412	-0.110
-550.369	-200.000	-0.007	-0.168
-549.354	29.758	0.211	-0.179
-548.339	103.926	-0.076	-0.089
-547.325	-114.913	-0.084	0.016
-546.310	-141.606	-0.039	0.004
-545.296	-126.091	0.164	0.024
-544.281	-147.685	0.236	0.020
-543.266	26.709	-0.094	0.078
-542.252	-104.490	-0.188	0.043
-541.237	0.987	-0.249	0.178
-540.223	-91.559	0.097	-0.027
-539.208	-36.886	-0.012	0.007
-538.193	-43.638	0.238	-0.119
-537.179	131.251	0.236	0.302
-536.164	62.577	0.127	0.126
-535.150	-200.000	-0.009	0.118
-534.135	800.000	0.130	-0.370
-533.121	337.261	0.164	-0.317
-532.106	-200.000	-0.021	-0.116
-531.091	800.000	-0.069	-0.194
-530.077	-1.396	0.133	0.093
-529.062	-200.000	-0.003	-0.110
-528.048	-57.318	0.208	0.091
-527.033	20.879	-0.350	-0.282
-526.018	296.006	0.129	-0.235
-525.004	-122.073	0.271	0.044
-523.989	-80.983	-0.366	-0.121
-522.975	106.091	-0.160	0.188
-521.960	163.418	-0.106	-0.148
-520.945	33.922	0.241	0.209
-519.931	-200.000	0.006	0.168
-518.916	79.267	-0.306	-0.326
-517.902	-96.426	0.361	-0.095
-516.887	82.250	0.226	0.243
-515.872	568.371	-0.065	-0.158
-514.858	-66.797	-0.247	-0.097
-513.843	-10.648	-0.164	-0.108
-512.829	-200.000	0.042	-0.265
-511.814	-41.517	-0.335	0.171
-510.799	-162.186	-0.217	0.011
-509.785	-75.891	-0.263	-0.093
-508.770	-200.000	0.021	0.306
-507.756	-29.647	0.258	0.147
-506.741	7.333	-0.399	-0.296
-505.726	800.000	-0.032	0.120
-504.712	800.000	-0.004	0.011
-503.697	286.799	-0.116	-0.208
-502.683	-77.519	-0.166	0.057
-501.668	-41.089	-0.213	-0.109
-500.653	157.904	-0.302	-0.416
-499.639	-161.441	-0.138	-0.007
-498.624	778.497	-0.031	0.084
-497.610	800.000	0.061	0.193
-496.595	-200.000	0.006	0.063
-495.581	-86.580	-0.093	-0.028
-494.566	164.540	0.311	-0.436
-493.551	-153.874	-0.196	0.013
-492.537	-80.085	-0.068	0.023
-491.522	800.000	0.048	-0.195
-490.508	314.902	-0.287	-0.537
-489.493	164.888	0.195	0.273
-488.478	-130.998	0.035	-0.005
-487.464	-62.601	-0.214	-0.088
-486.449	26.132	-0.050	-0.042
-485.435	-200.000	0.017	-0.162
-484.420	106.270	0.062	0.073
-483.405	669.403	-0.128	-0.328
-482.391	800.000	-0.016	-0.061
-481.376	-51.181	-0.331	0.154
-480.362	-30.901	0.074	0.042
-479.347	800.000	-0.056	-0.179
-478.332	-200.000	-0.094	-0.461
-477.318	332.606	0.076	0.146
-476.303	-200.000	-0.008	-0.184
-475.289	800.000	0.023	-0.086
-474.274	-47.131	0.317	0.153
-473.259	-200.000	0.003	0.052
-472.245	-0.688	-0.112	0.079
-471.230	800.000	0.012	0.043
-470.216	-78.753	-0.174	-0.059
-469.201	-55.338	0.067	-0.030
-468.186	47.033	0.118	0.109
-467.172	-96.890	-0.282	0.073
-466.157	-55.045	0.256	-0.114
-465.143	-200.000	-0.021	-0.359
-464.128	-171.182	-0.257	0.009
-463.113	29.508	0.171	-0.144
-462.099	-33.812	0.415	0.227
-461.084	-200.000	-0.019	0.360
-460.070	800.000	-0.064	-0.192
-459.055	556.365	0.043	0.102
-458.040	280.798	0.160	0.284
-457.026	-200.000	0.004	-0.235
-456.011	-80.259	0.077	-0.026
-454.997	-54.296	-0.245	0.110
-453.982	-200.000	-0.027	0.121
-452.968	-8.862	0.389	0.259
-451.953	-71.813	-0.192	0.071
-450.938	-200.000	-0.056	0.285
-449.924	133.216	0.009	0.011
-448.909	98.951	-0.158	0.181
-447.895	189.833	-0.098	-0.146
-446.880	-200.000	-0.004	-0.215
-445.865	82.291	-0.095	-0.102
-444.851	-79.243	0.200	0.067
-443.836	-89.664	0.173	0.050
-442.822	-97.179	0.073	-0.019
-441.807	800.000	-0.035	-0.106
-440.792	12.236	0.196	0.150
-439.778	133.216	0.199	0.255
-438.763	-138.032	-0.332	-0.037
-437.749	-47.188	-0.152	-0.073
-436.734	44.172	0.210	-0.191
-435.719	-30.150	0.212	0.119
-434.705	-200.000	-0.023	0.222
-433.690	800.000	0.075	-0.249
-432.676	46.362	-0.213	0.196
-431.661	109.384	-0.215	-0.255
-430.646	230.183	-0.088	0.143
-429.632	223.453	0.111	-0.178
-428.617	-70.920	0.185	0.069
-427.603	-168.007	0.227	-0.009
-426.588	-167.626	-0.175	0.007
-425.573	800.000	-0.068	-0.189
-424.559	-3.335	0.325	-0.224
-423.544	597.330	-0.089	-0.218
-422.530	-57.899	0.122	0.053
-421.515	-84.238	0.082	0.026
-420.500	-200.000	0.004	0.099
-419.486	259.608	-0.055	-0.093
-418.471	800.000	-0.065	-0.226
-417.457	-48.376	0.193	-0.092
-416.442	37.527	-0.210	-0.184
-415.428	-75.613	0.327	0.115
-414.413	800.000	-0.110	0.352
-413.398	338.134	0.180	0.346
-412.384	31.074	0.050	0.043
-411.369	474.000	-0.130	-0.289
-410.355	-200.000	0.063	-0.471
-409.340	-42.479	0.220	0.111
-408.325	-152.747	0.170	0.012
-407.311	600.630	0.038	-0.093
-406.296	-86.607	-0.066	0.020
-405.282	-71.477	0.484	0.179
-404.267	158.181	-0.065	-0.089
-403.252	2.782	-0.298	-0.214
-402.238	800.000	-0.085	-0.283
-401.223	-200.000	-0.029	0.208
-400.209	139.276	-0.260	-0.338
-399.194	-51.744	-0.129	-0.059
-398.179	24.595	0.025	0.020
-397.165	-176.171	-0.241	-0.006
-396.150	-106.305	-0.130	-0.029
-395.136	-80.567	0.230	0.076
-394.121	-141.680	-0.093	0.009
-393.106	133.483	-0.099	-0.127
-392.092	-85.756	0.258	0.079
-391.077	-200.000	-0.053	-0.353
-390.063	-126.849	-0.091	-0.013
-389.048	162.497	-0.306	0.425
-388.033	-62.923	-0.231	-0.095
-387.019	100.140	-0.098	0.112
-386.004	269.965	-0.110	-0.191
-384.990	-62.795	0.336	0.138
-383.975	50.789	0.339	-0.318
-382.960	-200.000	0.001	-0.124
-381.946	45.873	0.084	-0.076
-380.931	-55.802	0.127	0.056
-379.917	-116.484	0.110	-0.020
-378.902	-100.869	0.117	0.028
-377.888	-200.000	0.024	-0.136
-376.873	-141.956	-0.224	0.022
-375.858	232.895	0.183	0.297
-374.844	-200.000	0.004	-0.165
-373.829	393.979	0.022	0.044
-372.815	-81.903	-0.182	-0.059
-371.800	351.724	-0.208	0.407
-370.785	-200.000	0.013	0.131
-369.771	-200.000	0.067	-0.331
-368.756	9.917	-0.187	0.141
-367.742	-64.273	0.453	-0.182
-366.727	-200.000	0.000	0.004
-365.712	-70.433	0.126	-0.047
-364.698	-34.229	0.476	-0.258
-363.683	-200.000	-0.113	0.000
-362.669	222.891	0.155	-0.247
-361.654	161.253	0.107	0.147
-360.639	337.250	-0.171	0.329
-359.625	-32.849	0.184	-0.101
-358.610	800.000	0.194	-0.610
-357.596	-200.000	-0.022	0.108
-356.581	-200.000	-0.031	0.319
-355.566	-200.000	-0.013	0.126
-354.552	-82.102	-0.074	0.024
-353.537	334.299	0.151	0.289
-352.523	23.977	0.069	-0.056
-351.508	-138.553	-0.081	-0.009
-350.493	10.063	-0.053	-0.040
-349.479	-200.000	-0.048	-0.260
-348.464	302.698	-0.124	0.226
-347.450	-0.935	-0.074	-0.052
-346.435	-2.626	0.196	0.135
-345.420	-100.978	-0.294	-0.071
-344.406	-146.096	0.070	0.006
-343.391	-200.000	0.048	0.444
-342.377	657.856	0.176	0.447
-341.362	-78.418	0.138	0.047
-340.348	147.532	-0.231	-0.307
-339.333	-173.793	0.063	-0.002
-338.318	100.494	-0.139	0.159
-337.304	-200.000	-0.006	-0.078
-336.289	70.195	0.022	0.022
-335.275	-14.167	-0.177	-0.113
-334.260	-200.000	-0.028	0.256
-333.245	14.601	-0.130	-0.100
-332.231	-117.199	-0.147	-0.026
-331.216	-200.000	0.035	-0.213
-330.202	-200.000	0.018	0.204
-329.187	258.274	0.039	0.067
-328.172	800.000	-0.083	0.315
-327.158	-81.488	0.199	0.065
-326.143	-106.258	0.165	-0.036
-325.129	514.626	0.127	0.293
-324.114	-37.587	0.157	0.082
-323.099	-200.000	0.034	0.685
-322.085	-30.315	0.255	0.143
-321.070	55.538	0.033	-0.032
-320.056	-41.448	-0.109	-0.055
-319.041	409.017	0.066	-0.139
-318.026	303.318	0.128	0.234
-317.012	23.829	0.057	0.046
-315.997	800.000	-0.031	0.092
-314.983	-98.531	0.425	-0.107
-313.968	-73.353	0.075	-0.027
-312.953	28.972	-0.064	-0.054
-311.939	197.515	0.246	-0.370
-310.924	-89.860	0.244	-0.070
-309.910	-124.193	0.097	-0.015
-308.895	-93.116	-0.421	0.116
-307.880	-144.755	0.277	0.025
-306.866	479.367	0.211	-0.472
-305.851	725.721	-0.067	-0.176
-304.837	-200.000	-0.001	0.213
-303.822	-105.979	-0.294	0.065
-302.807	-56.241	0.132	0.058
-301.793	254.921	0.048	-0.082
-300.778	26.763	-0.040	0.033
-299.764	398.260	-0.064	0.131
-298.749	-200.000	0.022	0.166
-297.735	-27.924	0.177	-0.101
-296.720	-200.000	0.008	-0.215
-295.705	15.329	0.247	-0.191
-294.691	87.164	0.224	-0.244
-293.676	-66.912	-0.087	-0.034
-292.662	228.695	-0.221	0.355
-291.647	-139.242	0.134	-0.014
-290.632	205.747	-0.314	-0.481
-289.618	41.829	0.320	-0.286
-288.603	375.470	-0.111	0.223
-287.589	92.928	0.105	-0.117
-286.574	-33.390	0.229	-0.125
-285.559	800.000	-0.034	0.142
-284.545	161.877	-0.071	-0.098
-283.530	88.167	-0.126	0.137
-282.516	-200.000	-0.065	0.301
-281.501	100.739	0.216	0.248
-280.486	-79.552	-0.059	0.020
-279.472	-155.331	0.258	-0.017
-278.457	-200.000	0.003	0.158
-277.443	-112.022	0.216	0.043
-276.428	-119.767	-0.320	0.054
-275.413	7.324	-0.160	-0.118
-274.399	135.748	0.107	0.138
-273.384	800.000	-0.103	-0.335
-272.370	48.901	0.176	-0.163
-271.355	448.071	-0.191	0.413
-270.340	800.000	0.016	0.049
-269.326	69.088	0.226	-0.229
-268.311	6.400	-0.156	-0.114
-267.297	-200.000	0.042	-0.231
-266.282	160.619	-0.085	-0.116
-265.267	133.249	0.259	0.329
-264.253	-200.000	-0.021	0.192
-263.238	800.000	-0.031	0.092
-262.224	333.909	0.080	0.152
-261.209	-200.000	0.071	0.425
-260.195	-10.336	0.108	-0.071
-259.180	13.707	0.141	0.108
-258.165	-4.423	0.219	-0.149
-257.151	25.537	-0.284	0.233
-256.136	-120.367	0.335	0.056
-255.122	-84.466	0.207	0.064
-254.107	-106.438	-0.045	-0.010
-253.092	-97.096	-0.267	-0.069
-252.078	-200.000	0.007	0.129
-251.063	7.723	-0.308	0.227
-250.049	58.474	0.090	0.087
-249.034	187.795	0.128	-0.188
-248.019	-6.161	0.051	-0.034
-247.005	277.950	0.109	0.191
-245.990	-116.594	0.059	0.011
-244.976	-87.218	0.167	0.050
-243.961	705.629	0.113	0.293
-242.946	191.540	0.050	-0.074
-241.932	-6.468	-0.238	0.160
-240.917	800.000	0.039	-0.151
-239.903	447.938	-0.060	-0.129
-238.888	6.024	0.214	0.156
-237.873	397.191	-0.101	0.208
-236.859	-40.165	-0.254	-0.130
-235.844	800.000	-0.071	0.277
-234.830	57.859	-0.200	0.193
-233.815	-53.519	0.155	-0.070
-232.800	-154.434	0.086	-0.006
-231.786	-200.000	-0.045	-0.305
-230.771	100.729	0.154	0.176
-229.757	-60.054	-0.137	0.058
-228.742	800.000	0.030	-0.103
-227.727	612.362	0.157	0.385
-226.713	138.424	0.069	0.088
-225.698	260.302	-0.026	0.045
-224.684	-155.311	0.220	0.014
-223.669	-58.296	0.113	-0.048
-222.655	-92.597	0.225	-0.062
-221.640	-115.604	-0.281	-0.052
-220.625	-89.677	0.139	-0.040
-219.611	800.000	0.114	0.318
-218.596	-200.000	0.039	-0.425
-217.582	313.926	-0.043	0.079
-216.567	-45.416	0.059	0.029
-215.552	181.740	-0.075	0.108
-214.538	339.501	-0.118	-0.227
-213.523	183.145	-0.150	-0.218
-212.509	-169.853	-0.131	-0.005
-211.494	123.709	-0.091	0.112
-210.479	-195.196	0.304	-0.002
-209.465	-134.565	0.070	0.008
-208.450	-69.361	-0.508	-0.192
-207.436	160.438	0.132	-0.181
-206.421	-35.366	-0.055	-0.030
-205.406	-200.000	0.012	-0.371
-204.392	391.278	-0.091	0.185
-203.377	-41.960	0.138	0.069
-202.363	-152.015	-0.390	0.028
-201.348	-200.000	0.045	0.233
-200.333	-60.485	-0.363	-0.151
-199.319	99.493	-0.187	0.212
-198.304	325.088	-0.064	-0.120
-197.290	-165.208	-0.300	0.013
-196.275	351.809	-0.066	-0.129
-195.260	-200.000	-0.038	0.429
-194.246	-166.680	0.113	0.005
-193.231	110.373	-0.124	0.146
-192.217	-102.917	-0.140	0.033
-191.202	74.812	-0.273	0.282
-190.187	-200.000	0.054	0.408
-189.173	-200.000	-0.036	-0.225
-188.158	-200.000	-0.010	0.318
-187.144	-104.175	-0.158	-0.036
-186.129	-122.115	0.472	0.076
-185.114	89.637	0.239	-0.262
-184.100	650.224	-0.128	0.322
-183.085	-40.207	0.086	0.044
-182.071	-200.000	-0.030	0.172
-181.056	18.388	0.235	0.184
-180.042	-90.976	0.063	-0.018
-179.027	0.346	0.291	0.204
-178.012	-200.000	-0.030	0.281
-176.998	-22.515	0.421	0.250
-175.983	-200.000	0.015	0.311
-174.969	-149.713	-0.080	-0.006
-173.954	340.092	-0.070	-0.134
-172.939	-123.504	0.240	-0.037
-171.925	198.656	0.090	-0.134
-170.910	-65.858	0.108	0.043
-169.896	617.721	-0.152	0.375
-168.881	800.000	-0.108	0.300
-167.866	-200.000	0.036	-0.175
-166.852	150.790	-0.147	-0.196
-165.837	-200.000	0.054	-0.254
-164.823	-74.337	0.115	0.041
-163.808	205.322	-0.064	0.097
-162.793	378.155	-0.071	-0.142
-161.779	5.052	-0.207	0.149
-160.764	-124.950	-0.257	0.039
-159.750	198.282	0.056	-0.084
-158.735	-90.910	0.416	-0.117
-157.720	-20.839	0.073	0.044
-156.706	144.898	-0.092	0.120
-155.691	-17.188	-0.070	0.043
-154.677	-31.721	0.185	0.102
-153.662	59.485	0.197	0.191
-152.647	-153.548	0.095	-0.006
-151.633	-200.000	-0.012	-0.078
-150.618	800.000	0.029	0.103
-149.604	-34.948	-0.245	-0.131
-148.589	800.000	-0.031	-0.106
-147.574	-200.000	-0.032	0.271
-146.560	-88.194	0.394	-0.116
-145.545	191.412	0.214	-0.316
-144.531	-163.098	-0.328	-0.016
-143.516	-82.620	0.179	0.057
-142.502	-142.376	-0.128	-0.012
-141.487	-132.421	-0.294	-0.037
-140.472	-48.700	0.175	-0.082
-139.458	-200.000	0.012	0.160
-138.443	-124.849	-0.376	0.057
-137.429	800.000	0.026	0.096
-136.414	-67.409	0.305	0.118
-135.399	15.162	0.153	0.118
-134.385	-200.000	0.001	0.013
-133.370	-197.012	-0.261	-0.002
-132.356	-148.324	0.121	0.010
-131.341	-107.446	-0.240	0.051
-130.326	-47.391	-0.152	-0.073
-129.312	-46.895	-0.077	0.037
-128.297	800.000	-0.077	0.249
-127.283	800.000	0.168	0.479
-126.268	-0.336	-0.271	-0.188
-125.253	126.472	0.169	0.210
-124.239	3.410	-0.181	-0.129
-123.224	-84.828	0.317	0.097
-122.210	50.827	-0.287	0.266
-121.195	-200.000	0.042	0.463
-120.180	-55.631	0.220	-0.096
-119.166	-116.504	0.400	-0.072
-118.151	9.407	-0.215	0.159
-117.137	-77.883	0.184	-0.062
-116.122	255.041	-0.103	0.172
-115.107	12.518	0.081	0.061
-114.093	800.000	0.021	0.089
-113.078	-109.078	0.264	-0.055
-112.064	-65.343	-0.213	0.084
-111.049	-200.000	-0.014	0.104
-110.034	180.757	0.111	-0.159
-109.020	800.000	0.092	0.265
-108.005	132.606	0.163	0.205
-106.991	246.236	-0.060	0.098
-105.976	250.398	0.073	0.120
-104.962	-79.547	-0.140	-0.046
-103.947	107.603	-0.230	-0.267
-102.932	146.342	-0.067	-0.089
-101.918	-200.000	0.011	0.185
-100.903	-121.086	0.230	-0.038
-99.889	-5.847	0.218	-0.146
-98.874	-145.071	-0.090	0.008
-97.859	-105.076	0.265	-0.059
-96.845	-116.479	0.176	0.032
-95.830	220.952	-0.172	-0.269
-94.816	-53.670	-0.069	-0.031
-93.801	-93.024	0.173	-0.047
-92.786	231.130	0.160	0.257
-91.772	28.971	0.120	0.099
-90.757	-76.753	0.325	-0.111
-89.743	113.976	-0.028	0.033
-88.728	-171.409	0.219	-0.007
-87.713	490.541	-0.123	-0.274
-86.699	426.856	0.140	-0.296
-85.684	-92.699	0.033	-0.009
-84.670	-155.120	-0.195	0.012
-83.655	-46.559	-0.045	-0.022
-82.640	176.225	-0.135	0.191
-81.626	267.057	-0.021	0.036
-80.611	-200.000	0.029	-0.386
-79.597	-59.204	-0.156	-0.066
-78.582	139.866	0.075	0.097
-77.567	-200.000	0.044	0.377
-76.553	800.000	0.015	-0.050
-75.538	-68.499	0.240	-0.091
-74.524	210.933	0.314	0.482
-73.509	59.442	0.300	-0.289
-72.494	-200.000	-0.034	0.178
-71.480	800.000	0.109	0.436
-70.465	173.741	0.037	0.051
-69.451	-200.000	0.096	-0.463
-68.436	-200.000	0.042	0.241
-67.422	-158.643	-0.165	0.009
-66.407	-152.548	0.397	0.028
-65.392	243.592	0.177	-0.289
-64.378	126.542	-0.103	0.128
-63.363	-143.343	-0.374	-0.035
-62.349	-200.000	0.052	0.355
-61.334	64.000	-1.097	-1.078
-60.319	121.691	0.633	0.771
-59.305	800.000	-0.400	-1.089
-58.290	148.449	1.260	1.661
-57.276	687.561	0.684	1.747
-56.261	-200.000	124.664	646.746
-55.246	402.790	1575.458	3234.364
-54.232	141.315	2736.703	3535.537
-53.217	94.569	2167.849	2405.137
-52.203	34.819	1597.609	1364.147
-51.188	26.267	1340.883	1093.394
-50.173	23.895	1303.173	1048.631
-49.159	52.306	1372.054	1277.348
-48.144	49.106	1383.487	1268.585
-47.130	26.575	1331.756	1087.630
-46.115	23.390	1312.643	1053.084
-45.100	23.180	1307.936	1048.021
-44.086	23.232	1304.654	1045.662
-43.071	23.087	1302.610	1043.127
-42.057	23.088	1300.716	1041.572
-41.042	23.083	1299.052	1040.173
-40.027	23.183	1297.381	1039.376
-39.013	23.171	1295.734	1037.948
-37.998	23.180	1293.622	1036.264
-36.984	23.174	1292.142	1035.005
-35.969	23.298	1290.102	1034.055
-34.954	23.200	1288.623	1032.259
-33.940	23.326	1287.107	1031.736
-32.925	23.356	1285.977	1030.960
-31.911	23.175	1285.265	1029.296
-30.896	23.336	1283.161	1028.506
-29.881	23.368	1281.955	1027.687
-28.867	23.373	1280.675	1026.646
-27.852	23.385	1279.316	1025.587
-26.838	23.297	1278.532	1024.409
-25.823	23.424	1276.279	1023.298
-24.809	23.294	1275.626	1021.983
-23.794	23.374	1273.931	1021.046
-22.779	23.343	1272.537	1019.708
-21.765	23.377	1271.049	1018.668
-20.750	23.392	1269.901	1017.796
-19.736	23.203	1268.772	1015.766
-18.721	23.197	1267.650	1014.792
-17.706	23.191	1266.636	1013.905
-16.692	23.205	1265.577	1013.098
-15.677	23.146	1264.546	1011.896
-14.663	23.060	1263.441	1010.479
-13.648	23.195	1261.742	1009.850
-12.633	23.206	1261.306	1009.524
-11.619	23.286	1260.241	1009.089
-10.604	23.164	1259.755	1007.965
-9.590	23.206	1258.575	1007.221
-8.575	23.107	1257.532	1005.782
-7.560	23.132	1256.888	1005.367
-6.546	23.274	1256.050	1005.462
-5.531	23.314	1254.922	1004.750
-4.517	23.204	1254.439	1003.698
-3.502	23.234	1253.235	1002.867
-2.487	23.190	1252.618	1002.081
-1.473	23.068	1248.454	998.025
-0.458	21.647	1232.957	977.671
0.556	16.708	1217.701	940.990
1.571	13.139	1225.313	926.794
2.586	12.375	1241.503	934.613
3.600	12.522	1228.883	925.860
4.615	9.192	1157.362	854.217
5.629	3.285	1086.266	772.120
6.644	0.403	1069.393	745.820
7.659	0.156	1067.896	743.491
8.673	0.122	1067.372	742.892
9.688	0.130	1065.858	741.813
10.702	0.357	1063.432	741.174
11.717	4.071	1067.754	762.431
12.731	10.792	1076.735	802.049
13.746	15.591	1082.064	829.699
14.761	16.780	1083.741	836.789
15.775	16.025	1082.223	831.814
16.790	15.062	1080.234	825.469
17.804	14.503	1078.262	821.134
18.819	14.069	1077.311	818.204
19.834	13.899	1076.474	816.657
20.848	13.627	1075.663	814.634
21.863	13.453	1074.397	812.750
22.877	13.117	1074.147	810.840
23.892	13.293	1072.671	810.514
24.907	13.275	1072.731	810.403
25.921	13.226	1071.592	809.228
26.936	13.284	1071.224	809.164
27.950	13.383	1069.964	808.624
28.965	13.383	1069.007	807.828
29.980	13.379	1067.345	806.481
30.994	13.444	1066.352	805.975
32.009	13.504	1065.086	805.241
33.023	13.540	1064.200	804.673
34.038	13.409	1063.623	803.531
35.053	13.546	1062.493	803.273
36.067	13.482	1061.422	802.080
37.082	13.398	1061.095	801.357
38.096	13.289	1060.443	800.264
39.111	13.350	1059.158	799.520
40.126	13.306	1058.397	798.658
41.140	13.283	1056.888	797.341
42.155	13.245	1055.747	796.229
43.169	13.107	1055.046	794.964
44.184	13.138	1053.807	794.110
45.199	13.237	1052.713	793.689
46.213	13.412	1051.460	793.516
47.228	13.175	1050.935	791.912
48.242	13.341	1049.391	791.471
49.257	13.319	1048.629	790.722
50.271	13.314	1047.686	789.916
51.286	13.322	1046.877	789.276
52.301	13.397	1046.217	789.065
53.315	13.379	1045.127	788.088
54.330	13.166	1044.204	786.310
55.344	13.224	1043.179	785.745
56.359	13.282	1041.775	784.890
57.374	13.201	1041.430	784.177
58.388	13.298	1040.209	783.646
59.403	13.233	1039.391	782.656
60.417	13.112	1039.020	781.735
61.432	13.306	1038.018	781.830
62.447	13.102	1037.544	780.439
63.461	13.202	1036.711	780.214
64.476	13.160	1035.451	778.998
65.490	13.132	1035.003	778.459
66.505	13.385	1033.744	778.634
67.520	13.242	1033.234	777.509
68.534	13.251	1032.794	777.154
69.549	13.297	1031.963	776.674
70.563	13.171	1031.069	775.341
71.578	13.246	1029.745	774.628
72.593	13.066	1029.745	773.719
73.607	12.951	1029.190	772.691
74.622	13.062	1028.226	772.420
75.636	13.033	1027.608	771.752
76.651	13.027	1027.291	771.420
77.666	13.080	1026.473	770.982
78.680	13.080	1025.711	770.342
79.695	13.147	1025.259	770.248
80.709	13.168	1024.548	769.744
81.724	13.124	1023.911	768.992
82.739	13.187	1022.963	768.504
83.753	13.314	1022.161	768.426
84.768	13.343	1021.309	767.849
85.782	13.471	1020.140	767.498
86.797	13.367	1019.182	766.225
87.812	13.373	1018.510	765.680
88.826	13.399	1017.385	764.887
89.841	13.405	1016.533	764.209
90.855	13.317	1016.368	763.608
91.870	13.453	1014.956	763.108
92.884	13.294	1014.596	762.036
93.899	13.504	1013.736	762.291
94.914	13.497	1013.093	761.709
95.928	13.514	1011.875	760.803
96.943	13.395	1010.905	759.459
97.957	13.409	1009.939	758.729
98.972	13.377	1009.371	758.091
99.987	13.390	1008.281	757.265
101.001	13.493	1007.229	756.878
102.016	13.469	1006.716	756.314
103.030	13.453	1005.632	755.362
104.045	13.419	1005.071	754.718
105.060	13.457	1004.620	754.487
106.074	13.309	1003.318	752.768
107.089	13.430	1002.171	752.389
108.103	13.337	1001.324	751.264
109.118	13.329	1000.322	750.410
110.133	13.393	999.120	749.734
111.147	13.347	999.144	749.478
112.162	13.304	997.847	748.244
113.176	13.317	997.107	747.679
114.191	13.444	996.232	747.533
115.206	13.432	995.432	746.809
116.220	13.305	995.308	746.079
117.235	13.385	993.778	745.228
118.249	13.400	993.251	744.830
119.264	13.403	992.149	743.954
120.279	13.332	991.686	743.224
121.293	13.345	990.611	742.409
122.308	13.376	989.681	741.786
123.322	13.248	988.800	740.487
124.337	13.280	987.842	739.846
125.352	13.313	986.585	738.987
126.366	13.387	985.828	738.686
127.381	13.327	984.383	737.268
128.395	13.264	983.841	736.516
129.410	13.382	982.497	735.972
130.424	13.526	981.235	735.599
131.439	13.429	981.294	735.147
132.454	13.555	980.255	734.862
133.468	13.420	979.557	733.679
134.483	13.399	978.331	732.602
135.497	13.499	977.516	732.370
136.512	13.350	976.928	731.204
137.527	13.371	975.829	730.411
138.541	13.461	974.873	730.026
139.556	13.367	974.626	729.364
140.570	13.544	973.865	729.509
141.585	13.553	972.982	728.820
142.600	13.552	971.975	727.999
143.614	13.549	971.027	727.213
144.629	13.548	970.599	726.820
145.643	13.588	969.473	726.090
146.658	13.554	968.433	725.100
147.673	13.459	967.574	723.976
148.687	13.539	966.836	723.710
149.702	13.540	966.092	723.094
150.716	13.595	965.115	722.538
151.731	13.558	964.442	721.806
152.746	13.584	963.859	721.421
153.760	13.653	963.274	721.220
154.775	13.674	962.482	720.652
155.789	13.707	962.029	720.395
156.804	13.731	961.149	719.777
157.819	13.723	960.394	719.113
158.833	13.798	960.094	719.149
159.848	13.829	958.685	718.164
160.862	13.781	957.662	717.125
161.877	13.763	956.919	716.430
162.892	13.673	956.082	715.350
163.906	13.638	955.247	714.512
164.921	13.635	954.554	713.915
165.935	13.770	953.386	713.561
166.950	13.772	952.559	712.885
167.964	13.758	951.603	712.049
168.979	13.842	950.224	711.315
169.994	13.685	949.938	710.364
171.008	13.842	949.403	710.574
172.023	13.755	949.123	709.928
173.037	13.807	948.258	709.444
174.052	13.813	946.962	708.433
175.067	13.763	946.460	707.783
176.081	13.730	946.115	707.323
177.096	13.738	945.774	707.037
178.110	13.851	944.882	706.789
179.125	13.768	944.544	706.123
180.140	13.928	943.607	706.038
181.154	13.798	943.786	705.556
182.169	14.016	942.407	705.390
183.183	13.906	941.908	704.486
184.198	13.980	941.112	704.142
185.213	13.951	940.393	703.421
186.227	13.937	940.044	703.039
187.242	13.922	939.283	702.343
188.256	14.060	938.623	702.372
189.271	13.975	937.690	701.252
190.286	13.983	936.770	700.534
191.300	13.875	936.532	699.839
192.315	13.795	935.845	698.929
193.329	13.809	935.136	698.395
194.344	13.841	934.541	698.021
195.359	13.999	933.825	698.089
196.373	13.958	933.442	697.569
197.388	14.089	932.862	697.623
198.402	14.121	932.365	697.324
199.417	14.182	931.741	697.053
200.432	14.238	931.045	696.706
201.446	14.312	930.693	696.691
202.461	14.227	930.276	695.959
203.475	14.331	929.203	695.529
204.490	14.224	928.537	694.522
205.504	14.322	927.902	694.397
206.519	14.220	927.182	693.369
207.534	14.304	926.535	693.173
208.548	14.248	926.058	692.523
209.563	14.254	925.033	691.720
210.577	14.411	923.885	691.453
211.592	14.374	923.773	691.156
212.607	14.274	923.191	690.244
213.621	14.283	922.715	689.864
214.636	14.472	921.216	689.464
215.650	14.456	920.426	688.745
216.665	14.521	919.978	688.618
217.680	14.550	919.399	688.245
218.694	14.489	918.849	687.521
219.709	14.420	918.226	686.709
220.723	14.510	917.139	686.206
221.738	14.552	916.522	685.854
222.753	14.321	916.526	684.848
223.767	14.633	915.164	685.050
224.782	14.415	915.007	683.977
225.796	14.664	914.229	684.354
226.811	14.511	913.857	683.388
227.826	14.598	913.264	683.243
228.840	14.542	912.320	682.247
229.855	14.624	911.498	681.907
230.869	14.680	910.324	681.196
231.884	14.620	910.002	680.650
232.899	14.456	909.387	679.460
233.913	14.586	908.420	679.207
234.928	14.549	908.036	678.710
235.942	14.479	907.276	677.796
236.957	14.705	906.368	677.975
237.972	14.714	906.033	677.701
238.986	14.661	905.284	676.866
240.001	14.642	904.830	676.391
241.015	14.638	904.178	675.830
242.030	14.632	903.850	675.497
243.045	14.647	903.087	674.930
244.059	14.666	902.344	674.392
245.074	14.774	901.724	674.304
246.088	14.852	901.071	674.070
247.103	14.887	900.547	673.760
248.117	14.773	899.937	672.786
249.132	14.874	899.269	672.631
250.147	14.912	898.675	672.283
251.161	15.084	897.933	672.359
252.176	15.044	897.385	671.729
253.190	14.930	897.099	670.998
254.205	15.105	896.034	670.841
255.220	14.973	895.607	669.933
256.234	14.985	895.170	669.597
257.249	15.089	894.087	669.141
258.263	14.977	893.552	668.235
259.278	14.971	892.789	667.581
260.293	15.110	892.182	667.623
261.307	15.209	891.374	667.352
262.322	15.184	890.747	666.727
263.336	15.242	890.086	666.404
264.351	15.233	889.024	665.514
265.366	15.268	888.673	665.329
266.380	15.317	887.730	664.758
267.395	15.289	887.240	664.224
268.409	15.244	886.759	663.624
269.424	15.249	885.630	662.743
270.439	15.119	885.480	662.056
271.453	15.156	884.574	661.468
272.468	15.238	883.864	661.202
273.482	15.225	883.417	660.757
274.497	15.294	882.803	660.513
275.512	15.427	882.157	660.492
276.526	15.310	881.881	659.766
277.541	15.164	881.522	658.868
278.555	15.415	880.560	659.076
279.570	15.566	879.628	658.913
280.585	15.538	878.978	658.255
281.599	15.437	878.624	657.537
282.614	15.487	878.034	657.233
283.628	15.432	877.227	656.355
284.643	15.616	876.737	656.650
285.657	15.496	875.775	655.403
286.672	15.622	875.237	655.435
287.687	15.412	874.647	654.115
288.701	15.620	874.240	654.565
289.716	15.518	873.775	653.761
290.730	15.580	873.155	653.480
291.745	15.671	872.283	653.123
292.760	15.619	871.836	652.528
293.774	15.658	871.447	652.333
294.789	15.722	870.531	651.837
295.803	15.583	869.926	650.786
296.818	15.671	869.127	650.472
297.833	15.738	868.186	649.970
298.847	15.805	867.824	649.898
299.862	15.781	867.589	649.574
300.876	15.675	866.700	648.443
301.891	15.769	866.021	648.240
302.906	15.719	865.776	647.804
303.920	15.892	865.325	648.075
304.935	15.951	864.580	647.689
305.949	15.940	863.903	647.079
306.964	15.919	863.256	646.461
307.979	15.917	862.685	645.967
308.993	15.996	862.111	645.784
310.008	15.998	861.608	645.357
311.022	15.999	860.737	644.650
312.037	15.972	860.256	644.131
313.052	15.845	859.947	643.356
314.066	15.968	859.361	643.329
315.081	16.030	858.598	642.938
316.095	16.003	858.310	642.563
317.110	16.010	857.282	641.763
318.125	16.112	856.939	641.840
319.139	15.931	856.625	640.859
320.154	16.104	856.252	641.178
321.168	16.130	855.345	640.542
322.183	15.965	855.153	639.716
323.197	15.974	854.499	639.202
324.212	16.137	853.772	639.221
325.227	16.237	852.843	638.847
326.241	16.074	852.842	638.173
327.256	16.134	852.075	637.768
328.270	16.066	851.510	637.034
329.285	16.066	851.367	636.872
330.300	16.135	850.190	636.193
331.314	16.051	850.099	635.751
332.329	16.119	849.566	635.555
333.343	16.206	848.993	635.397
334.358	16.281	848.471	635.233
335.373	16.163	848.346	634.638
336.387	16.214	848.174	634.644
337.402	16.315	847.541	634.496
338.416	16.356	847.176	634.321
339.431	16.385	846.825	634.111
340.446	16.421	846.356	633.836
341.460	16.391	846.070	633.456
342.475	16.485	845.517	633.335
343.489	16.508	845.038	633.010
344.504	16.404	844.734	632.334
345.519	16.553	843.842	632.166
346.533	16.503	843.699	631.818
347.548	16.495	842.948	631.172
348.562	16.369	842.501	630.309
349.577	16.437	842.288	630.347
350.592	16.594	840.704	629.689
351.606	16.323	840.627	628.570
352.621	16.489	839.876	628.568
353.635	16.577	838.961	628.156
354.650	16.562	838.366	627.601
355.665	16.628	837.960	627.485
356.679	16.512	837.105	626.359
357.694	16.553	836.525	626.020
358.708	16.629	835.864	625.752
359.723	16.636	835.440	625.407
360.738	16.710	834.733	625.095
361.752	16.675	834.364	624.632
362.767	16.734	833.518	624.161
363.781	16.745	833.148	623.870
364.796	16.787	832.577	623.540
365.810	16.874	832.159	623.492
366.825	16.726	832.156	622.894
367.840	16.791	831.671	622.713
368.854	16.812	831.186	622.372
369.869	16.716	831.008	621.831
370.883	16.817	830.442	621.724
371.898	16.740	830.129	621.152
372.913	16.944	829.690	621.513
373.927	16.944	829.136	621.044
374.942	16.999	828.586	620.779
375.956	16.924	828.279	620.219
376.971	16.971	827.601	619.831
377.986	17.055	827.157	619.750
379.000	17.064	826.356	619.128
380.015	17.162	826.137	619.265
381.029	17.211	825.458	618.879
382.044	17.181	824.983	618.358
383.059	17.096	824.577	617.692
384.073	17.211	823.758	617.443
385.088	17.124	823.205	616.656
386.102	17.144	822.748	616.334
387.117	17.091	822.226	615.693
388.132	17.028	821.695	615.015
389.146	17.147	820.918	614.809
390.161	17.245	820.863	615.068
391.175	17.162	820.500	614.441
392.190	17.176	819.999	614.061
393.205	17.171	819.016	613.254
394.219	17.230	819.191	613.542
395.234	17.123	818.698	612.734
396.248	17.156	818.310	612.509
397.263	17.135	817.708	611.928
398.278	17.113	817.321	611.505
399.292	17.103	817.054	611.216
400.307	17.249	816.373	611.177
401.321	17.188	815.981	610.608
402.336	17.239	815.223	610.170
403.350	17.283	814.991	610.101
404.365	17.313	814.718	609.952
405.380	17.434	813.952	609.759
406.394	17.330	813.459	608.962
407.409	17.300	813.262	608.652
408.423	17.478	812.532	608.688
409.438	17.519	812.537	608.786
410.453	17.552	811.851	608.335
411.467	17.405	811.374	607.400
412.482	17.619	810.757	607.646
413.496	17.639	810.523	607.489
414.511	17.733	810.376	607.662
415.526	17.583	810.031	606.813
416.540	17.544	809.303	606.074
417.555	17.579	809.174	606.048
418.569	17.667	808.633	605.903
419.584	17.754	807.747	605.495
420.599	17.558	807.820	604.799
421.613	114.071	1299.318	1488.478
422.628	98.563	1370.875	1488.565
