DTS Sentinel unit serial number:	SN413079Multiplexer serial number:	ORYXHardware model number:	OX4-SRSoftware version number:	ORYX F/W v4.00 Oryx Data Collector v3.7.2.0data status	okinstallation	princeton_trtdifferential loss correction	single-endedforward channel	channel 1reverse channel	N/Adate	2019/09/14time	23:06:35forward acquisition time	60.00reverse acquisition time	0.00gamma	496.2192k internal	0.2319k external	0.2319temperature offset calibration	1.0003default loss term (dB/km)	0.3790temperature slope calibration	1.0000multiplexer offset coefficient	1.0000multiplexer slope coefficient	1.0000fibre end	0.00T internal ref (°C)	32.44T ext. ref 1 (°C)	4.68T ext. ref 2 (°C)	27.43length (m)	temperature (°C)	Stokes	anti-Stokes-747.200	43.415	-0.248	0.230
-746.185	-157.170	-0.164	0.010
-745.171	142.018	-0.072	0.097
-744.156	766.860	-0.120	0.330
-743.142	-31.433	-0.426	0.242
-742.127	336.419	0.079	-0.155
-741.112	800.000	-0.033	-0.115
-740.098	293.483	-0.069	-0.127
-739.083	140.830	-0.162	-0.216
-738.069	14.985	0.109	0.086
-737.054	-123.803	0.338	0.054
-736.039	-200.000	-0.003	0.094
-735.025	-75.950	0.143	0.051
-734.010	-200.000	0.026	-0.190
-732.996	-194.030	-0.075	-0.001
-731.981	368.448	0.069	0.140
-730.966	219.562	0.037	0.059
-729.952	-137.879	-0.180	0.020
-728.937	-190.421	-0.354	-0.004
-727.923	-200.000	0.050	-0.304
-726.908	-79.634	-0.157	0.054
-725.894	36.116	0.121	0.108
-724.879	585.879	0.064	0.160
-723.864	37.944	-0.306	0.275
-722.850	103.811	-0.145	0.172
-721.835	-200.000	-0.010	-0.303
-720.821	-142.610	-0.187	0.019
-719.806	800.000	-0.060	0.198
-718.791	-42.908	0.129	0.066
-717.777	-175.156	-0.249	0.007
-716.762	85.154	0.163	0.181
-715.748	184.965	-0.085	-0.127
-714.733	-50.854	-0.248	0.118
-713.718	63.333	-0.135	-0.137
-712.704	-12.760	0.130	-0.086
-711.689	-200.000	-0.039	0.192
-710.675	291.196	-0.170	-0.312
-709.660	-65.560	0.093	-0.038
-708.645	361.406	-0.065	-0.132
-707.631	-200.000	0.006	0.281
-706.616	-138.684	-0.269	0.030
-705.602	-200.000	-0.029	0.140
-704.587	-108.655	-0.284	0.062
-703.572	-59.775	0.073	-0.032
-702.558	-200.000	0.021	-0.327
-701.543	619.628	-0.093	0.236
-700.529	75.221	0.122	-0.130
-699.514	-93.845	0.199	-0.055
-698.499	-200.000	-0.013	-0.193
-697.485	-200.000	-0.016	0.177
-696.470	190.566	0.125	0.190
-695.456	-200.000	0.021	0.246
-694.441	722.983	-0.103	0.276
-693.426	103.907	-0.190	0.226
-692.412	719.297	0.005	0.013
-691.397	-92.266	0.121	0.034
-690.383	-79.412	-0.269	0.092
-689.368	209.016	-0.121	-0.191
-688.354	-200.000	-0.007	0.087
-687.339	-54.981	0.057	-0.026
-686.324	-4.941	-0.175	0.122
-685.310	-82.186	0.084	-0.028
-684.295	27.148	0.178	-0.151
-683.281	800.000	-0.099	-0.381
-682.266	-54.053	0.213	-0.098
-681.251	-200.000	0.012	0.208
-680.237	90.994	0.033	0.037
-679.222	298.047	0.034	0.064
-678.208	100.685	0.173	0.203
-677.193	-94.100	0.114	0.032
-676.178	-56.572	-0.095	0.042
-675.164	85.760	-0.080	-0.089
-674.149	140.196	0.226	-0.301
-673.135	-66.237	-0.180	0.072
-672.120	-48.910	0.118	-0.057
-671.105	77.430	-0.286	0.307
-670.091	-52.184	0.024	-0.011
-669.076	-200.000	-0.032	-0.229
-668.062	-83.608	-0.162	0.052
-667.047	-188.535	-0.333	-0.004
-666.032	800.000	0.021	0.085
-665.018	800.000	0.092	0.265
-664.003	-200.000	-0.007	0.133
-662.989	-200.000	-0.003	0.069
-661.974	283.269	0.106	-0.191
-660.959	755.651	0.066	0.180
-659.945	-0.222	0.255	-0.183
-658.930	-200.000	-0.010	-0.231
-657.916	-200.000	-0.039	0.182
-656.901	-80.927	0.115	0.038
-655.886	169.186	-0.150	0.215
-654.872	-200.000	-0.006	-0.134
-653.857	-124.198	0.192	-0.030
-652.843	-167.135	0.127	-0.005
-651.828	-50.618	-0.289	-0.137
-650.814	-200.000	0.014	-0.326
-649.799	-26.844	0.299	0.176
-648.784	800.000	-0.077	0.268
-647.770	-158.246	-0.084	-0.005
-646.755	-22.695	0.129	-0.078
-645.741	-24.637	-0.175	-0.105
-644.726	168.181	-0.115	-0.164
-643.711	-95.486	-0.343	-0.093
-642.697	-182.033	-0.358	0.007
-641.682	-138.137	-0.192	0.021
-640.668	-168.609	-0.159	-0.006
-639.653	66.008	-0.211	-0.215
-638.638	-29.003	0.178	0.103
-637.624	61.057	0.104	0.104
-636.609	800.000	0.092	0.344
-635.595	214.650	0.131	0.209
-634.580	-200.000	-0.005	-0.054
-633.565	-128.928	0.178	-0.025
-632.551	-50.531	-0.335	-0.159
-631.536	-74.190	0.379	0.138
-630.522	-141.243	-0.430	-0.044
-629.507	191.580	0.062	0.094
-628.492	-200.000	0.044	0.314
-627.478	-184.275	-0.127	-0.002
-626.463	83.264	-0.251	-0.275
-625.449	-200.000	0.026	0.146
-624.434	-200.000	-0.015	-0.236
-623.419	-37.702	0.236	-0.126
-622.405	260.745	0.174	0.303
-621.390	-143.789	0.090	0.009
-620.376	169.111	-0.134	0.192
-619.361	8.249	0.170	-0.129
-618.346	569.521	0.083	-0.203
-617.332	110.617	-0.171	-0.207
-616.317	-86.707	0.267	-0.082
-615.303	142.611	-0.052	0.069
-614.288	40.115	0.404	-0.366
-613.273	-200.000	-0.021	0.305
-612.259	-200.000	0.044	0.258
-611.244	69.193	-0.094	-0.098
-610.230	-200.000	0.042	0.461
-609.215	283.018	-0.094	0.170
-608.201	-200.000	0.055	-0.292
-607.186	800.000	0.071	0.227
-606.171	-61.991	-0.211	0.089
-605.157	-127.312	-0.265	-0.039
-604.142	301.061	-0.018	0.034
-603.128	-52.158	-0.162	0.076
-602.113	-22.202	-0.193	0.118
-601.098	-164.299	0.028	0.001
-600.084	62.024	0.127	-0.127
-599.069	-200.000	0.091	-0.522
-598.055	-200.000	-0.006	-0.371
-597.040	800.000	0.030	-0.123
-596.025	-200.000	0.025	0.334
-595.011	49.908	-0.089	-0.084
-593.996	-145.717	-0.036	0.003
-592.982	64.079	0.224	-0.227
-591.967	90.437	-0.026	-0.029
-590.952	-80.078	-0.164	-0.055
-589.938	101.421	-0.310	-0.363
-588.923	-200.000	0.056	-0.322
-587.909	-122.908	-0.302	-0.049
-586.894	-59.706	-0.078	-0.034
-585.879	-200.000	-0.045	0.375
-584.865	173.489	-0.070	0.101
-583.850	-97.379	-0.073	-0.019
-582.836	657.836	0.069	0.178
-581.821	-200.000	-0.027	0.351
-580.806	-127.954	0.025	-0.004
-579.792	-200.000	-0.006	0.091
-578.777	271.307	0.058	0.103
-577.763	800.000	-0.087	0.243
-576.748	70.796	0.257	0.268
-575.733	144.711	-0.062	0.083
-574.719	800.000	0.033	-0.142
-573.704	-13.849	-0.279	0.181
-572.690	140.905	-0.093	-0.123
-571.675	-52.689	0.202	0.094
-570.661	800.000	-0.067	-0.262
-569.646	-117.382	-0.303	0.055
-568.631	-200.000	0.050	-0.249
-567.617	40.576	0.119	0.107
-566.602	-200.000	0.093	0.000
-565.588	634.171	-0.068	-0.173
-564.573	120.312	-0.046	-0.058
-563.558	-18.791	0.377	0.236
-562.544	-146.067	0.057	0.005
-561.529	-30.734	-0.365	0.208
-560.515	-200.000	-0.020	-0.135
-559.500	39.280	-0.159	-0.143
-558.485	-155.421	0.293	-0.019
-557.471	-31.002	0.270	0.153
-556.456	800.000	0.041	0.177
-555.442	173.201	0.051	-0.074
-554.427	374.977	-0.082	0.169
-553.412	396.100	0.088	-0.184
-552.398	-58.734	0.302	-0.131
-551.383	-50.420	-0.192	0.091
-550.369	649.669	0.083	-0.214
-549.354	120.604	-0.132	0.165
-548.339	-177.698	0.160	-0.004
-547.325	-125.527	0.092	-0.014
-546.310	-114.008	-0.357	0.069
-545.296	-66.885	-0.223	-0.088
-544.281	-42.930	0.193	-0.098
-543.266	-72.578	-0.200	-0.074
-542.252	28.012	-0.228	-0.193
-541.237	-200.000	0.022	0.203
-540.223	-23.840	0.201	0.121
-539.208	-161.100	-0.255	-0.013
-538.193	103.724	0.044	-0.051
-537.179	-168.339	-0.300	-0.012
-536.164	-111.718	0.045	0.009
-535.150	-200.000	0.001	0.119
-534.135	20.715	0.070	-0.057
-533.121	567.320	-0.053	-0.129
-532.106	43.839	-0.151	-0.139
-531.091	29.778	0.066	0.056
-530.077	-200.000	-0.013	0.150
-529.062	-15.572	0.206	-0.132
-528.048	-40.683	0.294	-0.153
-527.033	-126.946	-0.164	0.024
-526.018	-200.000	-0.005	0.424
-525.004	-61.250	-0.092	0.039
-523.989	320.497	0.059	0.113
-522.975	-1.576	-0.149	-0.105
-521.960	138.485	0.125	-0.165
-520.945	800.000	0.081	-0.324
-519.931	-200.000	-0.016	0.264
-518.916	-68.280	0.466	0.182
-517.902	800.000	0.067	-0.203
-516.887	-107.185	-0.199	-0.044
-515.872	361.064	-0.144	0.289
-514.858	800.000	-0.138	-0.560
-513.843	-118.224	-0.122	0.022
-512.829	31.727	0.214	0.184
-511.814	-53.219	-0.232	-0.107
-510.799	231.453	-0.044	0.073
-509.785	800.000	-0.037	0.109
-508.770	450.983	0.028	-0.061
-507.756	-58.292	0.294	-0.128
-506.741	56.911	0.213	0.208
-505.726	-42.787	-0.430	-0.219
-504.712	-200.000	0.048	-0.321
-503.697	-9.976	-0.194	-0.129
-502.683	-147.854	-0.295	-0.025
-501.668	434.701	-0.076	0.166
-500.653	403.419	0.073	-0.155
-499.639	19.658	-0.132	-0.106
-498.624	23.722	-0.179	-0.148
-497.610	800.000	-0.026	0.108
-496.595	320.353	-0.040	-0.076
-495.581	-154.204	0.160	0.011
-494.566	-126.769	-0.209	0.031
-493.551	-200.000	0.034	-0.234
-492.537	-1.022	0.247	0.175
-491.522	-65.270	-0.089	-0.036
-490.508	-200.000	-0.069	0.306
-489.493	-200.000	0.029	0.194
-488.478	-11.268	-0.183	0.120
-487.464	-17.371	0.033	-0.021
-486.449	57.902	0.207	0.203
-485.435	-74.966	0.307	0.110
-484.420	-167.447	-0.174	0.007
-483.405	538.584	0.061	0.146
-482.391	-150.670	-0.078	-0.006
-481.376	233.531	0.118	0.194
-480.362	-27.281	0.099	0.057
-479.347	405.874	0.066	0.140
-478.332	-53.540	0.117	-0.054
-477.318	6.480	-0.261	-0.194
-476.303	-148.113	0.244	-0.020
-475.289	-37.614	0.224	-0.119
-474.274	-42.653	-0.068	0.035
-473.259	133.968	0.081	0.105
-472.245	-200.000	-0.007	0.091
-471.230	-109.350	-0.332	-0.070
-470.216	47.169	0.342	-0.318
-469.201	59.593	-0.033	-0.033
-468.186	-101.066	-0.145	0.035
-467.172	-200.000	-0.011	-0.332
-466.157	-6.979	0.039	0.027
-465.143	-18.638	-0.201	-0.125
-464.128	-68.396	0.088	-0.034
-463.113	-200.000	0.011	0.101
-462.099	800.000	-0.075	0.226
-461.084	-146.084	-0.258	-0.023
-460.070	-137.102	0.372	-0.042
-459.055	15.420	0.052	-0.041
-458.040	60.636	0.064	0.063
-457.026	19.353	0.073	0.059
-456.011	-200.000	0.017	0.130
-454.997	-10.506	0.134	0.089
-453.982	19.669	0.133	0.107
-452.968	-200.000	0.005	-0.365
-451.953	211.522	0.189	-0.297
-450.938	-200.000	0.035	-0.326
-449.924	44.482	-0.137	0.126
-448.909	57.094	-0.234	0.228
-447.895	66.768	0.172	-0.175
-446.880	800.000	0.016	-0.066
-445.865	-200.000	0.062	0.429
-444.851	-9.008	0.243	-0.163
-443.836	-160.763	0.163	-0.009
-442.822	5.021	-0.132	-0.097
-441.807	-200.000	-0.057	0.383
-440.792	268.679	-0.110	0.192
-439.778	-117.390	-0.243	0.044
-438.763	222.894	0.097	0.156
-437.749	1.597	-0.124	-0.090
-436.734	-200.000	0.010	0.065
-435.719	5.787	0.129	0.095
-434.705	-74.873	-0.288	0.103
-433.690	-200.000	0.009	-0.194
-432.676	107.860	-0.294	0.350
-431.661	800.000	0.072	-0.233
-430.646	369.445	0.070	-0.141
-429.632	800.000	0.044	-0.128
-428.617	20.195	0.238	-0.192
-427.603	551.780	0.056	0.135
-426.588	460.763	0.122	0.272
-425.573	-94.698	0.130	0.035
-424.559	567.220	-0.019	-0.047
-423.544	800.000	-0.089	-0.250
-422.530	122.921	-0.130	-0.163
-421.515	308.870	0.116	0.216
-420.500	800.000	-0.073	-0.227
-419.486	298.191	-0.135	-0.248
-418.471	-200.000	0.032	-0.264
-417.457	-26.247	-0.009	0.005
-416.442	-88.529	-0.069	0.021
-415.428	361.952	-0.128	-0.257
-414.413	-86.472	-0.225	-0.069
-413.398	-107.246	0.411	-0.090
-412.384	800.000	-0.007	-0.027
-411.369	-61.727	0.225	-0.094
-410.355	92.831	0.281	-0.317
-409.340	-8.820	0.203	-0.136
-408.325	-200.000	-0.027	-0.151
-407.311	-3.965	0.365	-0.252
-406.296	284.306	-0.140	0.252
-405.282	160.536	-0.127	-0.176
-404.267	-95.711	0.058	0.015
-403.252	26.783	0.357	0.299
-402.238	99.348	-0.163	-0.188
-401.223	371.883	-0.122	0.247
-400.209	-48.248	0.437	-0.210
-399.194	79.601	-0.146	-0.156
-398.179	-58.439	0.210	-0.091
-397.165	-104.607	-0.397	-0.091
-396.150	-168.807	-0.110	0.004
-395.136	49.324	0.067	0.063
-394.121	307.506	-0.092	0.171
-393.106	-106.168	-0.240	-0.054
-392.092	439.553	-0.112	-0.244
-391.077	-157.317	0.125	0.008
-390.063	-84.891	-0.141	-0.044
-389.048	63.201	-0.065	-0.065
-388.033	-106.052	-0.360	0.081
-387.019	131.836	0.195	0.250
-386.004	800.000	0.067	-0.190
-384.990	-200.000	-0.015	-0.189
-383.975	-24.070	-0.237	0.141
-382.960	-200.000	0.018	-0.115
-381.946	800.000	0.045	-0.183
-380.931	-138.545	0.271	0.030
-379.917	-94.605	-0.101	-0.027
-378.902	-189.902	-0.131	0.001
-377.888	-148.933	0.101	0.008
-376.873	-200.000	0.010	0.338
-375.858	-200.000	0.005	0.406
-374.844	-21.421	0.089	0.054
-373.829	-137.582	-0.049	0.005
-372.815	-78.842	0.219	-0.074
-371.800	-200.000	0.055	0.307
-370.785	-58.742	-0.137	-0.059
-369.771	-200.000	-0.033	0.181
-368.756	87.329	0.151	-0.167
-367.742	-150.857	-0.065	-0.005
-366.727	543.092	0.174	-0.414
-365.712	800.000	-0.030	0.123
-364.698	-101.462	-0.028	0.007
-363.683	627.880	0.070	-0.175
-362.669	83.550	-0.108	-0.117
-361.654	17.200	0.098	0.077
-360.639	800.000	0.048	0.183
-359.625	-35.406	-0.067	0.036
-358.610	507.711	-0.114	-0.265
-357.596	-85.902	-0.278	0.086
-356.581	78.592	0.094	0.100
-355.566	-200.000	0.031	-0.163
-354.552	800.000	-0.035	-0.121
-353.537	800.000	0.084	0.305
-352.523	-87.164	-0.274	0.083
-351.508	-200.000	-0.031	0.141
-350.493	-87.364	0.187	-0.056
-349.479	539.500	0.048	0.114
-348.464	-200.000	-0.005	0.425
-347.450	-145.661	0.316	-0.028
-346.435	800.000	-0.045	-0.126
-345.420	-200.000	-0.016	-0.076
-344.406	-62.976	-0.349	-0.144
-343.391	63.981	-0.126	-0.126
-342.377	-168.077	0.077	-0.003
-341.362	30.737	0.108	0.092
-340.348	-200.000	0.031	0.271
-339.333	-200.000	-0.004	0.402
-338.318	186.933	-0.034	-0.051
-337.304	16.370	-0.236	-0.185
-336.289	-88.968	-0.520	0.153
-335.275	361.961	-0.050	-0.100
-334.260	-124.801	-0.126	0.019
-333.245	98.693	-0.330	-0.378
-332.231	115.666	0.170	-0.207
-331.216	146.208	0.086	0.115
-330.202	-154.084	-0.249	-0.017
-329.187	-110.993	0.208	0.042
-328.172	62.854	0.134	0.133
-327.158	-159.740	-0.183	0.010
-326.143	-200.000	-0.024	-0.469
-325.129	405.389	-0.131	0.274
-324.114	-200.000	0.025	-0.261
-323.099	-200.000	0.012	-0.115
-322.085	-200.000	-0.001	-0.188
-321.070	180.752	-0.055	-0.081
-320.056	-13.807	-0.070	-0.045
-319.041	800.000	-0.024	-0.077
-318.026	800.000	0.025	-0.076
-317.012	-35.905	-0.154	-0.083
-315.997	-127.346	0.179	-0.026
-314.983	-30.132	0.029	0.016
-313.968	219.893	-0.039	0.063
-312.953	-77.902	-0.428	0.147
-311.939	-72.960	-0.154	-0.056
-310.924	244.141	0.075	-0.126
-309.910	-70.653	0.283	-0.106
-308.895	227.246	0.091	0.148
-307.880	207.010	0.143	0.222
-306.866	29.229	0.125	-0.106
-305.851	-200.000	-0.001	0.101
-304.837	-84.323	0.052	0.016
-303.822	534.693	-0.057	0.134
-302.807	84.490	0.074	0.081
-301.793	271.070	0.071	0.124
-300.778	800.000	-0.050	0.169
-299.764	-137.411	-0.347	-0.039
-298.749	91.559	0.244	-0.272
-297.735	56.635	-0.038	0.037
-296.720	159.662	0.054	-0.075
-295.705	-169.522	0.144	-0.005
-294.691	-200.000	0.006	-0.292
-293.676	-169.725	-0.406	-0.015
-292.662	245.433	0.253	-0.423
-291.647	-116.895	-0.253	0.046
-290.632	76.841	0.160	0.169
-289.618	16.920	0.088	-0.069
-288.603	106.321	-0.212	-0.249
-287.589	-100.736	0.621	0.152
-286.574	-200.000	0.010	0.234
-285.559	67.325	0.287	0.291
-284.545	127.549	0.164	-0.207
-283.530	-200.000	0.007	0.062
-282.516	-118.020	-0.398	0.071
-281.501	-200.000	-0.041	-0.329
-280.486	507.130	-0.109	0.250
-279.472	-114.470	0.146	-0.028
-278.457	-24.063	0.201	-0.119
-277.443	-103.890	-0.288	-0.067
-276.428	166.902	0.248	-0.350
-275.413	800.000	-0.069	-0.242
-274.399	196.036	-0.174	0.263
-273.384	-200.000	0.007	-0.334
-272.370	-88.373	-0.103	-0.031
-271.355	266.361	0.044	0.076
-270.340	185.806	0.143	-0.212
-269.326	-26.706	-0.193	-0.112
-268.311	-200.000	0.041	0.000
-267.297	145.866	-0.111	0.147
-266.282	-86.540	0.171	0.052
-265.267	-46.613	-0.216	-0.105
-264.253	330.260	-0.199	-0.380
-263.238	283.225	-0.060	-0.106
-262.224	-200.000	0.009	-0.081
-261.209	-77.041	0.236	0.082
-260.195	206.618	0.099	0.153
-259.180	53.016	-0.210	-0.200
-258.165	-108.304	0.152	0.032
-257.151	-61.412	-0.243	-0.101
-256.136	169.185	0.030	-0.043
-255.122	-111.474	0.191	0.039
-254.107	-88.265	0.236	0.070
-253.092	-200.000	0.021	0.216
-252.078	-200.000	-0.055	-0.248
-251.063	800.000	-0.111	-0.340
-250.049	45.503	-0.142	0.130
-249.034	53.962	0.169	0.161
-248.019	-73.882	-0.219	-0.079
-247.005	295.116	-0.097	0.176
-245.990	-200.000	0.063	0.275
-244.976	133.207	0.070	0.090
-243.961	-52.683	0.448	-0.205
-242.946	-69.645	-0.147	-0.056
-241.932	-192.192	0.412	-0.004
-240.917	-26.808	0.135	-0.078
-239.903	140.151	0.072	0.095
-238.888	118.710	0.087	-0.107
-237.873	-66.452	0.058	0.023
-236.859	-112.836	0.207	-0.041
-235.844	93.887	-0.090	0.102
-234.830	-78.095	0.056	0.019
-233.815	-17.499	-0.052	0.032
-232.800	-142.177	-0.243	0.024
-231.786	-101.333	-0.152	0.037
-230.771	60.743	0.205	0.202
-229.757	800.000	-0.042	-0.154
-228.742	-2.594	-0.070	-0.049
-227.727	49.505	0.180	0.168
-226.713	307.582	0.250	0.462
-225.698	-200.000	0.018	0.243
-224.684	-133.233	-0.217	0.027
-223.669	-200.000	0.042	0.330
-222.655	-200.000	0.017	0.167
-221.640	332.575	0.219	0.419
-220.625	746.611	0.095	0.254
-219.611	-45.331	0.182	0.090
-218.596	-147.824	-0.196	-0.016
-217.582	373.156	-0.085	0.172
-216.567	-6.313	0.172	-0.116
-215.552	800.000	0.055	0.160
-214.538	-200.000	0.036	-0.257
-213.523	-13.895	-0.258	-0.165
-212.509	-116.362	0.070	-0.013
-211.494	-141.402	-0.124	0.012
-210.479	56.103	0.266	0.256
-209.465	297.781	-0.130	-0.236
-208.450	-170.619	0.367	0.013
-207.436	99.306	-0.114	-0.130
-206.421	7.643	0.232	0.172
-205.406	223.973	0.064	-0.102
-204.392	5.463	0.090	-0.066
-203.377	106.821	-0.079	-0.093
-202.363	-56.000	-0.177	-0.078
-201.348	-200.000	0.003	0.145
-200.333	-89.829	0.263	-0.076
-199.319	-63.594	-0.244	0.099
-198.304	377.168	-0.109	-0.220
-197.290	-84.521	0.383	0.120
-196.275	800.000	-0.042	0.140
-195.260	106.406	0.017	-0.019
-194.246	-200.000	0.012	-0.111
-193.231	-33.221	-0.196	0.107
-192.217	306.897	0.046	-0.085
-191.202	630.401	0.075	0.189
-190.187	60.775	-0.184	-0.181
-189.173	-161.059	-0.250	-0.013
-188.158	-22.260	0.126	-0.076
-187.144	-146.727	0.182	0.016
-186.129	-130.515	0.370	-0.049
-185.114	-105.333	-0.039	0.009
-184.100	42.931	-0.088	-0.080
-183.085	213.672	0.180	-0.281
-182.071	-113.739	-0.185	0.036
-181.056	528.288	-0.133	0.311
-180.042	-103.582	0.072	-0.017
-179.027	82.742	0.054	-0.058
-178.012	-200.000	-0.024	0.203
-176.998	800.000	-0.091	0.315
-175.983	-200.000	0.012	-0.227
-174.969	73.734	-0.275	-0.285
-173.954	195.780	0.154	-0.231
-172.939	-93.281	-0.310	0.085
-171.925	591.439	-0.049	-0.120
-170.910	-200.000	-0.012	-0.129
-169.896	-65.809	0.198	-0.078
-168.881	-113.249	0.222	-0.043
-167.866	154.684	-0.119	0.162
-166.852	-200.000	-0.035	0.268
-165.837	800.000	0.075	0.271
-164.823	-73.319	-0.344	0.125
-163.808	31.214	0.069	0.059
-162.793	-75.503	0.160	-0.056
-161.779	198.910	0.144	0.219
-160.764	110.229	0.204	0.242
-159.750	-111.157	-0.186	0.038
-158.735	-29.241	0.201	0.114
-157.720	214.487	0.252	0.394
-156.706	-18.245	0.252	-0.156
-155.691	-56.814	-0.344	-0.150
-154.677	71.164	0.155	0.159
-153.662	-200.000	-0.004	0.039
-152.647	-200.000	-0.111	0.560
-151.633	227.128	-0.126	-0.202
-150.618	-200.000	0.009	0.339
-149.604	85.201	0.103	0.111
-148.589	-198.904	0.171	-0.001
-147.574	134.557	0.132	0.170
-146.560	22.272	-0.276	-0.223
-145.545	327.149	0.054	0.103
-144.531	740.693	-0.091	0.242
-143.516	-52.198	-0.070	0.032
-142.502	127.613	0.186	0.234
-141.487	87.305	-0.062	-0.068
-140.472	800.000	0.030	0.104
-139.458	800.000	-0.060	0.192
-138.443	-13.018	0.088	-0.056
-137.429	-92.650	0.357	-0.099
-136.414	-54.021	0.423	0.190
-135.399	469.547	-0.163	0.361
-134.385	-123.740	0.144	-0.022
-133.370	-200.000	-0.013	-0.076
-132.356	312.311	0.037	0.068
-131.341	-200.000	0.025	-0.193
-130.326	105.095	0.076	-0.088
-129.312	8.873	-0.452	0.336
-128.297	141.221	-0.346	-0.452
-127.283	-200.000	-0.001	-0.139
-126.268	115.109	0.024	-0.029
-125.253	-29.978	-0.074	-0.042
-124.239	-87.830	-0.218	0.065
-123.224	-71.550	0.386	0.142
-122.210	-48.861	-0.094	0.044
-121.195	209.801	-0.152	0.235
-120.180	-106.700	0.199	0.044
-119.166	77.242	0.275	-0.288
-118.151	-78.876	-0.222	0.075
-117.137	-133.390	-0.130	0.016
-116.122	63.293	-0.139	-0.138
-115.107	88.846	-0.092	-0.101
-114.093	-138.095	-0.351	-0.039
-113.078	15.031	0.036	0.028
-112.064	-81.301	-0.325	-0.106
-111.049	-30.257	0.189	-0.106
-110.034	162.912	-0.027	-0.037
-109.020	-200.000	0.025	-0.132
-108.005	47.186	0.086	0.079
-106.991	-94.200	0.364	-0.098
-105.976	-153.714	-0.216	0.015
-104.962	-200.000	0.047	0.358
-103.947	-4.571	-0.164	-0.112
-102.932	-17.943	-0.053	0.033
-101.918	-200.000	-0.044	0.227
-100.903	696.043	0.040	-0.103
-99.889	-200.000	0.012	-0.064
-98.874	33.995	0.208	-0.179
-97.859	-70.508	0.098	-0.036
-96.845	800.000	0.030	0.123
-95.830	39.764	-0.100	0.088
-94.816	-82.139	-0.456	-0.147
-93.801	195.386	0.084	0.125
-92.786	-200.000	0.028	0.213
-91.772	-200.000	0.065	0.407
-90.757	97.482	-0.087	0.099
-89.743	-76.891	-0.214	0.074
-88.728	-94.123	-0.261	-0.071
-87.713	-95.375	0.075	-0.020
-86.699	384.581	-0.164	-0.334
-85.684	-200.000	-0.029	-0.195
-84.670	-52.220	0.148	-0.068
-83.655	-200.000	-0.004	-0.078
-82.640	137.865	0.272	0.352
-81.626	-18.901	0.150	-0.092
-80.611	-65.610	0.304	0.120
-79.597	-106.828	-0.168	-0.037
-78.582	179.738	0.011	0.016
-77.567	57.056	-0.251	0.242
-76.553	-149.434	-0.306	0.024
-75.538	121.233	-0.075	0.092
-74.524	15.024	-0.289	0.223
-73.509	31.795	0.174	-0.147
-72.494	-200.000	0.010	0.080
-71.480	64.315	-0.177	0.176
-70.465	-66.679	-0.128	0.050
-69.451	-200.000	0.010	-0.193
-68.436	-1.716	0.209	0.145
-67.422	-124.330	-0.140	0.021
-66.407	-3.113	-0.274	0.189
-65.392	47.841	-0.155	-0.143
-64.378	-22.082	0.174	-0.104
-63.363	-197.074	0.310	-0.002
-62.349	-35.556	0.134	-0.072
-61.334	52.316	-0.968	-0.909
-60.319	27.009	0.310	0.256
-59.305	-200.000	-0.132	-0.914
-58.290	296.774	0.652	1.178
-57.276	251.483	0.998	1.672
-56.261	-200.000	95.415	590.037
-55.246	668.259	1370.584	3490.368
-54.232	199.680	2542.458	3840.099
-53.217	121.606	2139.851	2626.103
-52.203	44.430	1605.069	1451.244
-51.188	35.976	1342.678	1163.166
-50.173	32.788	1300.858	1108.199
-49.159	55.035	1347.561	1281.357
-48.144	57.136	1364.138	1309.606
-47.130	36.084	1323.535	1147.043
-46.115	32.620	1306.371	1111.730
-45.100	32.469	1301.221	1106.416
-44.086	32.339	1298.841	1103.587
-43.071	32.245	1296.778	1101.240
-42.057	32.205	1294.825	1099.300
-41.042	32.396	1292.374	1098.294
-40.027	32.379	1290.950	1096.937
-39.013	32.341	1288.952	1094.975
-37.998	32.383	1287.446	1093.901
-36.984	32.413	1285.862	1092.683
-35.969	32.319	1284.464	1090.908
-34.954	32.406	1282.449	1089.655
-33.940	32.579	1280.598	1089.039
-32.925	32.517	1280.131	1088.241
-31.911	32.605	1277.897	1086.810
-30.896	32.487	1276.701	1085.069
-29.881	32.573	1275.298	1084.329
-28.867	32.584	1273.812	1083.083
-27.852	32.587	1272.269	1081.747
-26.838	32.512	1271.259	1080.415
-25.823	32.530	1269.781	1079.219
-24.809	32.530	1268.496	1078.081
-23.794	32.518	1267.180	1076.855
-22.779	32.580	1265.931	1076.102
-21.765	32.519	1264.527	1074.518
-20.750	32.516	1263.241	1073.365
-19.736	32.429	1261.725	1071.540
-18.721	32.392	1260.765	1070.470
-17.706	32.322	1260.062	1069.435
-16.692	32.392	1258.514	1068.476
-15.677	32.397	1257.518	1067.614
-14.663	32.440	1256.083	1066.600
-13.648	32.494	1255.045	1065.983
-12.633	32.421	1254.030	1064.666
-11.619	32.288	1253.936	1063.792
-10.604	32.368	1252.488	1062.971
-9.590	32.384	1251.364	1062.067
-8.575	32.334	1250.507	1061.012
-7.560	32.218	1250.160	1060.022
-6.546	32.360	1249.167	1059.941
-5.531	32.359	1247.994	1058.896
-4.517	32.289	1247.659	1058.178
-3.502	32.280	1246.288	1056.922
-2.487	32.444	1245.352	1057.006
-1.473	32.271	1241.871	1053.039
-0.458	30.964	1226.478	1032.712
0.556	26.543	1209.545	995.468
1.571	22.981	1214.371	979.643
2.586	21.968	1229.008	985.682
3.600	21.311	1218.355	973.389
4.615	16.311	1147.109	890.097
5.629	8.255	1073.648	793.126
6.644	4.866	1054.037	762.014
7.659	4.559	1051.479	758.598
8.673	4.591	1051.047	758.377
9.688	4.695	1049.117	757.423
10.702	4.757	1047.555	756.530
11.717	9.336	1053.551	783.136
12.731	16.574	1064.078	826.370
13.746	19.177	1066.155	840.633
14.761	18.363	1064.598	835.361
15.775	17.157	1062.950	828.117
16.790	16.049	1061.167	821.262
17.804	15.499	1058.816	816.693
18.819	15.039	1058.028	813.779
19.834	14.785	1057.063	811.728
20.848	14.661	1056.152	810.355
21.863	14.554	1055.100	808.958
22.877	14.492	1054.687	808.271
23.892	14.379	1053.617	806.829
24.907	14.327	1053.261	806.237
25.921	14.333	1051.833	805.102
26.936	14.401	1050.675	804.472
27.950	14.333	1049.661	803.294
28.965	14.509	1048.313	803.040
29.980	14.599	1046.356	801.901
30.994	14.713	1045.179	801.479
32.009	14.721	1044.330	800.795
33.023	14.609	1043.597	799.623
34.038	14.548	1042.445	798.381
35.053	14.462	1041.354	797.061
36.067	14.359	1041.052	796.267
37.082	14.404	1040.180	795.747
38.096	14.602	1038.860	795.610
39.111	14.601	1038.556	795.299
40.126	14.471	1036.911	793.354
41.140	14.229	1035.826	791.302
42.155	14.281	1034.692	790.611
43.169	14.232	1033.831	789.650
44.184	14.235	1032.507	788.584
45.199	14.240	1031.580	787.830
46.213	14.256	1030.532	787.035
47.228	14.345	1029.716	786.763
48.242	14.460	1028.311	786.164
49.257	14.471	1027.416	785.459
50.271	14.517	1026.801	785.137
51.286	14.369	1026.296	783.984
52.301	14.576	1024.943	783.854
53.315	14.411	1023.884	782.201
54.330	14.427	1022.689	781.294
55.344	14.299	1022.064	780.148
56.359	14.452	1021.191	780.129
57.374	14.288	1020.405	778.694
58.388	14.219	1019.559	777.657
59.403	14.335	1018.531	777.346
60.417	14.331	1017.609	776.556
61.432	14.273	1017.080	775.812
62.447	14.271	1016.083	774.973
63.461	14.228	1015.395	774.178
64.476	14.112	1014.199	772.660
65.490	14.154	1013.694	772.401
66.505	14.203	1012.983	772.019
67.520	14.163	1012.584	771.460
68.534	14.264	1011.522	771.054
69.549	14.210	1010.582	770.015
70.563	14.140	1010.426	769.504
71.578	14.186	1009.077	768.623
72.593	14.074	1008.440	767.551
73.607	14.170	1007.793	767.436
74.622	13.994	1007.281	766.167
75.636	14.112	1006.502	766.048
76.651	14.142	1006.081	765.797
77.666	13.970	1005.813	764.737
78.680	14.201	1004.464	764.702
79.695	14.087	1004.270	763.964
80.709	14.248	1003.395	763.971
81.724	14.253	1002.905	763.553
82.739	14.317	1002.451	763.433
83.753	14.424	1002.008	763.517
84.768	14.540	1000.903	763.141
85.782	14.745	999.617	763.029
86.797	14.611	998.878	761.783
87.812	14.391	998.212	760.207
88.826	14.556	997.277	760.177
89.841	14.582	996.070	759.312
90.855	14.586	994.951	758.408
91.870	14.598	994.500	758.053
92.884	14.652	993.670	757.596
93.899	14.653	992.971	757.001
94.914	14.587	992.248	756.083
95.928	14.643	991.731	755.875
96.943	14.610	990.655	754.840
97.957	14.584	989.834	754.032
98.972	14.728	988.734	753.776
99.987	14.538	988.159	752.412
101.001	14.751	986.654	752.162
102.016	14.437	986.489	750.555
103.030	14.612	985.546	750.557
104.045	14.490	985.349	749.794
105.060	14.572	983.851	748.955
106.074	14.332	982.823	747.029
107.089	14.292	981.405	745.707
108.103	14.335	980.322	745.009
109.118	14.338	979.727	744.507
110.133	14.263	979.286	743.768
111.147	14.177	978.488	742.714
112.162	14.236	977.398	742.082
113.176	14.368	976.656	742.044
114.191	14.300	976.355	741.446
115.206	14.340	975.418	740.847
116.220	14.490	974.186	740.511
117.235	14.365	973.055	739.032
118.249	14.406	972.115	738.432
119.264	14.331	971.820	737.813
120.279	14.281	970.811	736.762
121.293	14.291	969.758	735.940
122.308	14.210	969.437	735.275
123.322	14.200	968.213	734.237
124.337	14.162	967.305	733.315
125.352	14.210	966.149	732.583
126.366	14.274	964.940	731.885
127.381	14.173	964.142	730.770
128.395	14.200	963.540	730.369
129.410	14.289	962.305	729.759
130.424	14.168	962.340	729.188
131.439	14.325	961.294	729.020
132.454	14.332	960.518	728.397
133.468	14.363	959.556	727.740
134.483	14.496	958.569	727.508
135.497	14.482	957.579	726.628
136.512	14.397	956.643	725.485
137.527	14.500	955.808	725.235
138.541	14.543	955.256	724.938
139.556	14.450	954.816	724.138
140.570	14.560	953.831	723.804
141.585	14.568	953.433	723.472
142.600	14.574	952.665	722.850
143.614	14.686	951.720	722.554
144.629	14.842	950.747	722.429
145.643	14.712	950.042	721.266
146.658	14.520	949.167	719.711
147.673	14.618	948.099	719.259
148.687	14.375	947.784	717.908
149.702	14.479	946.467	717.295
150.716	14.515	945.206	716.432
151.731	14.403	945.398	716.029
152.746	14.550	944.631	716.017
153.760	14.649	943.788	715.741
154.775	14.634	943.352	715.281
155.789	14.564	943.091	714.720
156.804	14.617	941.969	714.033
157.819	14.842	941.058	714.242
158.833	14.745	940.490	713.332
159.848	14.745	939.456	712.488
160.862	14.772	938.386	711.728
161.877	14.565	937.443	710.066
162.892	14.553	936.494	709.233
163.906	14.654	935.398	708.772
164.921	14.453	935.442	707.888
165.935	14.613	934.018	707.428
166.950	14.680	933.435	707.206
167.964	14.712	932.429	706.517
168.979	14.619	931.615	705.445
169.994	14.555	930.892	704.566
171.008	14.765	930.155	704.831
172.023	14.843	929.510	704.606
173.037	14.842	928.764	703.976
174.052	14.746	928.163	703.053
175.067	14.654	927.484	702.091
176.081	14.664	926.911	701.637
177.096	14.547	926.678	700.905
178.110	14.710	925.387	700.550
179.125	14.822	924.660	700.411
180.140	14.789	924.836	700.343
181.154	14.715	924.693	699.861
182.169	14.933	923.646	699.921
183.183	14.957	922.968	699.445
184.198	14.892	922.584	698.819
185.213	14.910	921.827	698.260
186.227	15.066	921.194	698.369
187.242	15.002	920.326	697.384
188.256	15.131	919.525	697.249
189.271	15.061	919.111	696.583
190.286	14.729	918.687	694.821
191.300	14.639	917.419	693.426
192.315	14.642	917.063	693.108
193.329	14.803	915.948	692.870
194.344	14.780	915.883	692.666
195.359	14.710	915.310	691.883
196.373	14.881	914.583	691.978
197.388	15.166	913.778	692.486
198.402	15.135	913.425	692.028
199.417	15.252	912.579	691.809
200.432	15.149	912.587	691.330
201.446	15.351	911.871	691.560
202.461	15.314	911.568	691.114
203.475	15.158	910.914	689.914
204.490	15.181	910.044	689.290
205.504	15.234	909.089	688.724
206.519	15.106	908.805	687.923
207.534	14.939	907.849	686.451
208.548	15.207	906.757	686.664
209.563	15.233	906.321	686.379
210.577	15.302	905.603	686.057
211.592	15.300	904.973	685.514
212.607	15.318	904.315	685.024
213.621	15.349	903.628	684.570
214.636	15.269	903.304	683.939
215.650	15.365	902.268	683.487
216.665	15.431	901.802	683.340
217.680	15.381	901.267	682.670
218.694	15.571	900.366	682.700
219.709	15.471	899.835	681.831
220.723	15.397	899.503	681.218
221.738	15.384	898.735	680.527
222.753	15.358	898.186	679.943
223.767	15.406	897.319	679.420
224.782	15.450	897.339	679.553
225.796	15.620	896.524	679.564
226.811	15.661	895.587	678.959
227.826	15.431	895.083	677.590
228.840	15.426	894.382	676.978
229.855	15.563	892.982	676.408
230.869	15.546	892.648	676.028
231.884	15.445	891.953	675.036
232.899	15.451	891.149	674.393
233.913	15.355	890.901	673.762
234.928	15.406	889.905	673.152
235.942	15.357	889.651	672.703
236.957	15.438	888.712	672.257
237.972	15.420	888.239	671.770
238.986	15.368	887.624	671.036
240.001	15.454	887.263	671.047
241.015	15.534	886.218	670.518
242.030	15.573	885.744	670.255
243.045	15.449	885.456	669.482
244.059	15.528	884.743	669.199
245.074	15.515	884.232	668.701
246.088	15.781	883.183	668.906
247.103	15.692	882.756	668.173
248.117	15.697	882.814	668.178
249.132	15.835	881.901	667.975
250.147	16.000	881.357	668.158
251.161	16.010	880.833	667.740
252.176	16.131	879.701	667.303
253.190	16.133	879.247	666.906
254.205	16.041	878.971	666.274
255.220	16.124	877.751	665.617
256.234	16.137	877.481	665.404
257.249	16.131	877.031	664.983
258.263	16.208	875.498	664.065
259.278	16.105	875.289	663.440
260.293	16.087	875.335	663.347
261.307	16.279	874.580	663.469
262.322	16.227	874.044	662.802
263.336	16.319	873.065	662.362
264.351	16.207	872.507	661.441
265.366	16.373	871.754	661.459
266.380	16.271	871.210	660.591
267.395	16.268	870.682	660.118
268.409	16.276	869.542	659.230
269.424	16.198	868.980	658.438
270.439	16.314	868.236	658.270
271.453	16.135	867.796	657.179
272.468	16.186	867.148	656.831
273.482	16.212	866.816	656.620
274.497	16.116	866.106	655.652
275.512	16.240	865.557	655.662
276.526	16.286	865.010	655.366
277.541	16.235	864.864	654.999
278.555	16.416	864.061	655.034
279.570	16.431	862.951	654.195
280.585	16.407	862.663	653.826
281.599	16.475	861.455	653.114
282.614	16.348	861.286	652.436
283.628	16.319	860.692	651.817
284.643	16.391	859.994	651.511
285.657	16.435	859.405	651.175
286.672	16.505	858.756	650.897
287.687	16.405	858.091	649.949
288.701	16.572	857.305	649.937
289.716	16.389	856.834	648.822
290.730	16.645	856.376	649.399
291.745	16.441	855.771	648.103
292.760	16.709	855.230	648.661
293.774	16.717	854.668	648.208
294.789	16.663	853.919	647.377
295.803	16.543	853.401	646.467
296.818	16.579	852.757	646.061
297.833	16.513	851.766	644.998
298.847	16.491	851.465	644.631
299.862	16.478	851.196	644.322
300.876	16.634	850.725	644.500
301.891	16.765	850.033	644.418
302.906	16.730	849.327	643.692
303.920	16.909	848.841	643.948
304.935	17.012	848.064	643.692
305.949	16.904	847.829	643.047
306.964	16.743	847.072	641.805
307.979	16.794	846.467	641.485
308.993	16.872	845.914	641.302
310.008	16.831	845.663	640.903
311.022	16.760	845.112	640.157
312.037	16.838	844.107	639.634
313.052	16.837	843.165	638.860
314.066	16.706	842.998	638.184
315.081	16.789	842.099	637.762
316.095	16.719	841.650	637.098
317.110	16.815	840.953	636.874
318.125	16.809	840.611	636.540
319.139	16.678	840.605	635.986
320.154	16.706	840.382	635.865
321.168	16.818	839.375	635.469
322.183	16.857	838.698	635.044
323.197	16.872	838.196	634.665
324.212	16.750	838.293	634.226
325.227	16.815	837.409	633.744
326.241	16.975	836.628	633.694
327.256	16.758	836.093	632.421
328.270	16.808	835.643	632.212
329.285	16.863	834.931	631.824
330.300	16.974	833.950	631.439
331.314	16.910	833.553	630.842
332.329	16.847	833.922	630.832
333.343	17.034	832.687	630.539
334.358	17.207	832.113	630.689
335.373	17.070	832.327	630.287
336.387	17.115	831.887	630.065
337.402	17.046	831.898	629.761
338.416	17.109	831.752	629.827
339.431	17.316	830.860	629.864
340.446	17.303	830.422	629.427
341.460	17.195	830.707	629.187
342.475	17.357	830.029	629.221
343.489	17.249	829.706	628.521
344.504	17.445	828.887	628.569
345.519	17.534	828.726	628.717
346.533	17.515	827.779	627.875
347.548	17.349	827.347	626.879
348.562	17.168	827.047	625.931
349.577	17.320	826.232	625.815
350.592	17.165	825.450	624.600
351.606	17.150	824.713	623.930
352.621	17.423	823.772	624.167
353.635	17.316	823.666	623.636
354.650	17.369	822.994	623.269
355.665	17.476	822.465	623.204
356.679	17.454	821.875	622.620
357.694	17.550	821.005	622.258
358.708	17.401	820.415	621.211
359.723	17.345	820.028	620.657
360.738	17.526	819.540	620.896
361.752	17.599	818.598	620.392
362.767	17.676	818.254	620.356
363.781	17.788	817.718	620.304
364.796	17.777	817.417	619.981
365.810	17.822	817.094	619.845
366.825	17.869	816.759	619.707
367.840	17.832	816.287	619.157
368.854	17.787	816.063	618.771
369.869	17.765	815.589	618.277
370.883	17.685	815.015	617.496
371.898	17.708	815.121	617.604
372.913	17.781	814.284	617.181
373.927	17.773	813.822	616.746
374.942	17.757	813.374	616.295
375.956	17.970	813.063	616.775
376.971	17.853	812.632	615.969
377.986	18.088	811.534	615.930
379.000	18.075	811.509	615.809
380.015	18.110	810.577	615.174
381.029	18.067	810.375	614.811
382.044	17.968	809.939	614.071
383.059	18.094	808.960	613.727
384.073	17.899	808.849	612.888
385.088	17.996	808.126	612.635
386.102	17.780	807.541	611.360
387.117	17.998	806.768	611.504
388.132	17.870	806.291	610.628
389.146	17.967	805.616	610.412
390.161	18.048	805.529	610.580
391.175	18.071	804.935	610.158
392.190	17.991	804.763	609.688
393.205	18.146	803.989	609.599
394.219	17.980	803.587	608.650
395.234	17.984	803.264	608.366
396.248	17.885	802.899	607.685
397.263	17.863	801.962	606.842
398.278	17.943	801.754	606.918
399.292	17.838	801.355	606.188
400.307	17.974	800.781	606.183
401.321	17.988	800.496	605.963
402.336	18.031	800.001	605.686
403.350	18.098	799.791	605.713
404.365	18.262	799.011	605.646
405.380	18.297	798.794	605.552
406.394	18.118	798.256	604.460
407.409	18.263	798.013	604.733
408.423	18.528	797.362	605.121
409.438	18.464	796.959	604.537
410.453	18.420	796.724	604.149
411.467	18.393	796.365	603.728
412.482	18.542	795.730	603.720
413.496	18.540	795.294	603.328
414.511	18.571	795.123	603.254
415.526	18.549	794.886	602.943
416.540	18.433	794.326	602.059
417.555	18.438	793.992	601.770
418.569	18.564	793.460	601.755
419.584	18.430	793.362	601.156
420.599	18.682	792.467	601.309
421.613	156.026	1371.379	1792.893
422.628	135.001	1455.756	1793.002
