DTS Sentinel unit serial number:	SN413079Multiplexer serial number:	ORYXHardware model number:	OX4-SRSoftware version number:	ORYX F/W v4.00 Oryx Data Collector v3.7.2.0data status	okinstallation	princeton_trtdifferential loss correction	single-endedforward channel	channel 1reverse channel	N/Adate	2019/09/14time	15:10:35forward acquisition time	60.00reverse acquisition time	0.00gamma	496.2192k internal	0.2294k external	0.2294temperature offset calibration	1.0073default loss term (dB/km)	0.3790temperature slope calibration	1.0000multiplexer offset coefficient	1.0000multiplexer slope coefficient	1.0000fibre end	0.00T internal ref (°C)	39.09T ext. ref 1 (°C)	5.07T ext. ref 2 (°C)	35.22length (m)	temperature (°C)	Stokes	anti-Stokes-747.200	-74.849	0.210	-0.077
-746.185	-129.253	0.206	0.029
-745.171	235.632	0.216	0.365
-744.156	-200.000	-0.011	-0.137
-743.142	-200.000	-0.058	0.328
-742.127	36.044	0.160	0.144
-741.112	-40.796	0.075	-0.040
-740.098	-11.683	-0.273	-0.184
-739.083	376.471	0.137	0.285
-738.069	-118.530	-0.199	0.036
-737.054	149.627	-0.142	-0.196
-736.039	-89.765	0.308	-0.092
-735.025	-200.000	0.067	0.523
-734.010	-200.000	0.039	-0.240
-732.996	426.301	-0.159	-0.350
-731.981	435.594	-0.127	-0.282
-730.966	159.859	0.095	-0.135
-729.952	339.756	-0.088	-0.176
-728.937	75.792	-0.101	-0.109
-727.923	-17.245	-0.059	0.038
-726.908	50.385	-0.099	0.096
-725.894	-200.000	0.072	0.552
-724.879	407.111	0.024	0.051
-723.864	800.000	0.045	-0.165
-722.850	-200.000	-0.004	-0.090
-721.835	-138.666	0.162	-0.018
-720.821	87.266	0.096	-0.108
-719.806	-108.843	0.269	-0.059
-718.791	-88.064	0.223	0.068
-717.777	-104.397	-0.230	0.054
-716.762	120.423	0.099	-0.126
-715.748	139.606	-0.171	-0.230
-714.733	160.391	0.143	0.203
-713.718	-97.573	-0.232	0.062
-712.704	-46.454	-0.121	0.061
-711.689	26.222	0.110	-0.094
-710.675	800.000	-0.080	-0.296
-709.660	189.898	0.161	0.247
-708.645	-200.000	-0.003	0.196
-707.631	23.194	0.104	0.087
-706.616	-19.526	-0.171	-0.108
-705.602	-200.000	0.011	0.136
-704.587	-82.581	-0.186	0.062
-703.572	-103.148	0.483	-0.117
-702.558	-47.740	-0.233	0.116
-701.543	-102.407	-0.380	-0.093
-700.529	19.893	-0.168	0.138
-699.514	-200.000	0.030	-0.249
-698.499	-163.737	-0.285	0.014
-697.485	19.993	-0.237	-0.195
-696.470	-200.000	-0.008	0.144
-695.456	122.555	0.084	-0.108
-694.441	-81.941	0.273	0.091
-693.426	-154.386	0.328	-0.022
-692.412	192.769	-0.104	0.160
-691.397	680.960	0.034	0.089
-690.383	-31.688	-0.166	0.095
-689.368	-87.043	-0.372	-0.116
-688.354	347.842	0.070	-0.142
-687.339	215.729	-0.238	0.386
-686.324	660.340	-0.081	0.213
-685.310	662.546	-0.112	0.295
-684.295	-171.652	-0.207	-0.007
-683.281	-51.237	-0.275	-0.131
-682.266	-101.682	0.152	-0.038
-681.251	426.619	-0.149	0.328
-680.237	16.008	-0.071	0.057
-679.222	-172.349	-0.284	-0.009
-678.208	315.760	-0.081	0.156
-677.193	800.000	-0.152	0.440
-676.178	186.607	-0.091	0.139
-675.164	-103.355	-0.447	-0.107
-674.149	-200.000	-0.001	-0.076
-673.135	800.000	0.026	0.085
-672.120	22.401	-0.139	-0.116
-671.105	-5.908	0.276	0.193
-670.091	0.238	0.085	0.062
-669.076	-127.961	-0.219	-0.032
-668.062	800.000	-0.027	-0.086
-667.047	335.780	-0.076	0.151
-666.032	800.000	0.085	0.373
-665.018	395.845	-0.128	-0.272
-664.003	800.000	0.035	0.100
-662.989	-141.873	-0.395	-0.040
-661.974	-196.990	0.247	-0.002
-660.959	800.000	-0.073	0.282
-659.945	-38.868	0.309	0.166
-658.930	-137.552	-0.153	-0.018
-657.916	-17.726	-0.194	-0.124
-656.901	-107.008	0.047	0.011
-655.886	-130.881	0.182	0.025
-654.872	-70.881	0.242	0.093
-653.857	140.111	0.053	-0.072
-652.843	6.512	-0.263	0.199
-651.828	2.290	0.069	-0.051
-650.814	202.160	-0.120	-0.189
-649.799	-52.558	0.306	-0.144
-648.784	-9.078	-0.076	-0.052
-647.770	121.090	-0.091	0.115
-646.755	-163.953	-0.206	0.010
-645.741	-2.474	0.202	0.144
-644.726	800.000	0.066	0.193
-643.711	-94.220	-0.169	0.047
-642.697	800.000	-0.094	0.342
-641.682	244.696	0.043	-0.073
-640.668	25.006	-0.251	0.212
-639.653	-200.000	-0.017	0.122
-638.638	538.467	0.103	-0.249
-637.624	-59.311	-0.266	0.116
-636.609	800.000	-0.086	-0.269
-635.595	800.000	0.108	-0.315
-634.580	2.368	-0.501	-0.369
-633.565	-200.000	-0.036	0.198
-632.551	361.243	0.139	0.283
-631.536	448.767	-0.109	0.244
-630.522	-200.000	-0.005	-0.129
-629.507	224.533	0.060	0.099
-628.492	800.000	0.063	-0.224
-627.478	793.412	-0.106	-0.297
-626.463	140.408	-0.106	0.142
-625.449	650.454	-0.075	-0.195
-624.434	458.187	-0.075	-0.169
-623.419	-80.969	-0.269	0.091
-622.405	282.585	0.112	-0.204
-621.390	318.330	0.100	-0.192
-620.376	132.101	-0.101	-0.132
-619.361	129.993	0.258	-0.336
-618.346	10.067	-0.183	0.141
-617.332	-200.000	0.038	-0.345
-616.317	-19.884	-0.172	0.108
-615.303	-200.000	-0.069	-0.441
-614.288	18.219	0.143	0.116
-613.273	767.071	0.030	-0.083
-612.259	77.509	0.057	-0.062
-611.244	380.844	0.063	0.132
-610.230	-200.000	0.007	0.114
-609.215	800.000	-0.103	0.449
-608.201	-35.115	0.396	0.219
-607.186	70.334	-0.059	0.062
-606.171	-54.960	-0.138	-0.063
-605.157	494.547	-0.103	-0.240
-604.142	316.224	0.134	0.257
-603.128	-106.586	-0.285	0.064
-602.113	800.000	-0.035	-0.149
-601.098	-43.106	0.114	0.059
-600.084	-152.123	0.313	0.023
-599.069	532.340	0.024	0.057
-598.055	13.047	0.175	0.138
-597.040	-200.000	-0.010	0.112
-596.025	800.000	-0.054	-0.182
-595.011	22.993	-0.194	-0.162
-593.996	51.351	0.282	0.272
-592.982	62.330	0.066	-0.067
-591.967	-32.520	0.159	0.090
-590.952	105.856	0.211	-0.253
-589.938	800.000	-0.068	-0.221
-588.923	-27.852	-0.270	0.159
-587.909	-76.241	0.281	0.101
-586.894	-200.000	-0.004	0.151
-585.879	69.961	-0.129	0.135
-584.865	-86.727	-0.121	0.038
-583.850	445.262	0.045	-0.101
-582.836	-96.136	0.201	-0.054
-581.821	96.299	0.174	0.203
-580.806	127.333	0.338	0.436
-579.792	800.000	0.059	0.191
-578.777	-137.319	-0.359	0.041
-577.763	412.573	-0.106	0.229
-576.748	-200.000	-0.026	-0.203
-575.733	-144.746	0.485	-0.045
-574.719	-144.222	0.215	0.020
-573.704	800.000	0.049	0.165
-572.690	-50.752	0.126	-0.060
-571.675	-136.690	-0.211	0.025
-570.661	800.000	-0.088	-0.338
-569.646	258.970	0.091	-0.160
-568.631	-87.499	0.170	-0.052
-567.617	104.161	0.136	-0.162
-566.602	185.001	-0.126	0.189
-565.588	55.451	-0.135	-0.132
-564.573	-36.099	0.206	0.113
-563.558	334.974	-0.084	0.166
-562.544	-167.789	0.297	-0.012
-561.529	241.710	0.141	-0.239
-560.515	-157.791	-0.545	-0.033
-559.500	-77.606	0.159	-0.056
-558.485	75.610	0.143	0.153
-557.471	800.000	0.080	-0.301
-556.456	-74.126	-0.073	0.027
-555.442	-61.544	0.146	0.062
-554.427	341.508	-0.151	0.300
-553.412	-200.000	-0.002	-0.103
-552.398	-200.000	0.039	-0.189
-551.383	79.327	-0.063	-0.069
-550.369	354.666	0.238	-0.480
-549.354	-200.000	0.000	0.127
-548.339	500.358	0.132	-0.309
-547.325	66.938	-0.063	0.065
-546.310	800.000	0.063	-0.204
-545.296	-26.569	0.138	-0.082
-544.281	-200.000	0.017	0.183
-543.266	70.321	0.069	0.072
-542.252	691.165	0.099	0.263
-541.237	-102.577	0.121	-0.029
-540.223	-149.328	0.371	0.030
-539.208	-136.052	0.103	0.012
-538.193	-29.581	-0.137	0.079
-537.179	-57.819	0.087	0.038
-536.164	39.407	-0.141	0.128
-535.150	-200.000	-0.053	-0.400
-534.135	-24.552	-0.254	0.153
-533.121	41.547	0.190	0.175
-532.106	-200.000	0.007	-0.130
-531.091	-190.206	-0.135	-0.002
-530.077	-200.000	0.026	0.151
-529.062	324.621	0.073	0.142
-528.048	31.577	0.209	0.183
-527.033	-129.933	-0.267	0.037
-526.018	-200.000	0.028	0.212
-525.004	-164.612	-0.253	-0.012
-523.989	205.874	0.110	-0.174
-522.975	-15.076	-0.221	-0.144
-521.960	-200.000	0.023	-0.127
-520.945	-59.490	-0.252	0.110
-519.931	-27.082	-0.156	-0.092
-518.916	106.474	0.190	-0.229
-517.902	561.546	0.046	-0.112
-516.887	-200.000	-0.028	0.132
-515.872	573.567	-0.076	-0.188
-514.858	800.000	0.020	-0.082
-513.843	800.000	0.031	-0.104
-512.829	100.742	-0.345	-0.407
-511.814	414.611	0.044	-0.096
-510.799	-200.000	-0.018	-0.223
-509.785	404.535	0.038	-0.080
-508.770	106.894	-0.057	-0.068
-507.756	494.311	-0.133	-0.309
-506.741	-43.645	0.190	-0.097
-505.726	763.612	-0.055	-0.152
-504.712	-151.721	-0.421	-0.031
-503.697	106.280	0.108	0.130
-502.683	-93.874	-0.299	0.083
-501.668	-9.511	0.087	0.059
-500.653	183.134	0.054	-0.080
-499.639	117.439	0.191	-0.238
-498.624	800.000	-0.057	0.233
-497.610	40.800	-0.195	0.179
-496.595	-67.630	0.127	0.050
-495.581	-200.000	0.011	0.131
-494.566	-126.397	0.134	-0.020
-493.551	67.965	0.172	-0.178
-492.537	-9.003	-0.001	-0.001
-491.522	-16.580	0.219	-0.141
-490.508	427.155	-0.038	0.082
-489.493	-66.668	-0.338	0.136
-488.478	-200.000	0.022	-0.113
-487.464	-114.653	-0.497	0.096
-486.449	-106.358	0.100	-0.023
-485.435	-2.048	-0.237	-0.169
-484.420	-82.824	-0.239	-0.078
-483.405	800.000	0.043	-0.155
-482.391	18.513	0.185	-0.149
-481.376	9.770	-0.137	-0.105
-480.362	74.686	0.022	0.023
-479.347	-200.000	-0.015	0.109
-478.332	107.578	0.042	-0.051
-477.318	413.096	-0.119	0.256
-476.303	602.473	0.011	-0.028
-475.289	800.000	-0.105	0.302
-474.274	312.011	-0.105	-0.198
-473.259	-184.467	-0.207	0.003
-472.245	33.229	0.020	0.018
-471.230	55.752	-0.043	-0.042
-470.216	144.068	-0.113	0.152
-469.201	214.897	0.107	0.172
-468.186	59.493	-0.193	-0.193
-467.172	17.395	0.167	0.134
-466.157	-200.000	0.018	0.253
-465.143	-110.039	0.258	0.055
-464.128	63.140	0.281	0.285
-463.113	-94.078	0.271	0.075
-462.099	-78.932	0.023	-0.008
-461.084	-117.333	0.218	-0.040
-460.070	-175.545	-0.023	-0.001
-459.055	-65.726	-0.109	-0.044
-458.040	800.000	0.080	-0.348
-457.026	-31.456	0.106	0.060
-456.011	-47.264	0.047	0.023
-454.997	19.907	0.208	-0.170
-453.982	256.841	-0.133	0.231
-452.968	-200.000	0.013	0.189
-451.953	-200.000	0.048	-0.516
-450.938	49.800	0.273	-0.260
-449.924	800.000	-0.164	0.507
-448.909	-200.000	-0.032	0.175
-447.895	-117.772	0.460	0.084
-446.880	385.818	0.044	-0.091
-445.865	-200.000	-0.011	0.190
-444.851	-66.872	0.391	0.156
-443.836	539.403	-0.121	-0.292
-442.822	108.057	0.101	-0.122
-441.807	-107.340	-0.362	-0.080
-440.792	53.756	0.123	0.119
-439.778	177.828	-0.118	0.174
-438.763	-200.000	-0.021	0.184
-437.749	480.724	0.101	0.232
-436.734	116.958	0.122	-0.152
-435.719	-200.000	-0.012	-0.419
-434.705	-29.498	-0.196	0.113
-433.690	69.320	-0.110	0.114
-432.676	250.204	-0.152	-0.261
-431.661	800.000	-0.056	0.182
-430.646	24.421	-0.136	0.113
-429.632	117.264	-0.153	0.190
-428.617	423.121	-0.137	0.297
-427.603	401.665	0.211	0.449
-426.588	105.397	0.040	-0.048
-425.573	-200.000	0.015	0.153
-424.559	503.401	0.180	0.421
-423.544	-193.091	-0.184	-0.002
-422.530	-47.114	0.155	0.076
-421.515	-200.000	-0.099	-0.000
-420.500	-200.000	0.050	0.442
-419.486	157.255	-0.169	-0.236
-418.471	-66.969	0.292	0.116
-417.457	189.021	-0.065	-0.098
-416.442	34.971	0.322	-0.284
-415.428	-200.000	0.070	0.345
-414.413	82.820	0.323	-0.354
-413.398	462.893	0.189	-0.426
-412.384	115.673	-0.185	0.229
-411.369	125.630	-0.145	0.184
-410.355	-200.000	-0.003	-0.110
-409.340	70.876	0.191	0.200
-408.325	-61.756	-0.161	0.068
-407.311	61.063	0.134	-0.134
-406.296	-109.100	0.313	0.067
-405.282	50.795	-0.186	-0.178
-404.267	800.000	-0.018	-0.067
-403.252	-87.095	0.449	-0.138
-402.238	19.421	0.191	-0.155
-401.223	-48.824	0.301	0.146
-400.209	131.113	-0.100	-0.130
-399.194	18.717	-0.042	0.034
-398.179	11.291	-0.283	0.219
-397.165	241.874	-0.068	0.114
-396.150	387.688	-0.093	-0.193
-395.136	241.679	0.221	-0.373
-394.121	-150.416	-0.303	-0.023
-393.106	349.853	0.077	-0.153
-392.092	229.670	-0.250	0.412
-391.077	30.572	0.364	-0.314
-390.063	-135.013	0.239	0.029
-389.048	-15.667	-0.031	0.020
-388.033	800.000	0.061	0.208
-387.019	130.384	0.082	0.105
-386.004	322.780	0.055	-0.105
-384.990	800.000	-0.061	-0.236
-383.975	800.000	0.054	0.213
-382.960	-31.540	0.207	0.117
-381.946	-200.000	-0.035	0.224
-380.931	134.669	-0.194	0.253
-379.917	-200.000	0.011	-0.102
-378.902	526.434	-0.056	0.133
-377.888	-200.000	-0.051	0.290
-376.873	800.000	-0.061	-0.203
-375.858	800.000	0.049	-0.142
-374.844	85.712	0.024	-0.027
-373.829	350.552	-0.182	-0.363
-372.815	-200.000	-0.009	-0.074
-371.800	-66.484	-0.393	-0.157
-370.785	-95.705	-0.413	0.111
-369.771	-6.925	-0.193	0.132
-368.756	-200.000	-0.036	0.178
-367.742	800.000	-0.031	0.135
-366.727	112.054	-0.051	0.063
-365.712	-200.000	-0.045	-0.235
-364.698	87.808	-0.025	-0.028
-363.683	3.128	0.148	-0.108
-362.669	800.000	-0.079	0.307
-361.654	17.198	-0.051	-0.041
-360.639	230.649	-0.130	0.215
-359.625	224.265	0.051	0.083
-358.610	724.408	0.111	-0.299
-357.596	185.498	-0.034	-0.051
-356.581	-72.240	-0.214	-0.080
-355.566	-200.000	-0.010	0.182
-354.552	543.808	-0.052	-0.124
-353.537	27.589	0.275	-0.233
-352.523	-100.653	0.078	0.019
-351.508	-200.000	0.007	0.199
-350.493	-147.417	0.152	-0.013
-349.479	-69.196	-0.120	-0.046
-348.464	-132.901	-0.238	-0.030
-347.450	-200.000	-0.018	-0.095
-346.435	610.063	-0.075	0.187
-345.420	-200.000	-0.098	0.438
-344.406	-0.850	0.186	0.133
-343.391	-0.461	0.185	0.132
-342.377	626.997	-0.019	0.048
-341.362	49.982	-0.094	0.089
-340.348	195.901	-0.221	-0.339
-339.333	-27.655	0.050	0.029
-338.318	-59.742	0.308	-0.133
-337.304	-99.790	0.424	-0.107
-336.289	-113.313	-0.305	-0.060
-335.275	-106.434	-0.281	-0.063
-334.260	162.023	0.066	-0.093
-333.245	-136.957	0.126	0.015
-332.231	706.308	0.064	-0.169
-331.216	464.730	-0.032	-0.072
-330.202	-50.482	0.368	0.175
-329.187	200.786	-0.079	-0.122
-328.172	-200.000	-0.036	-0.216
-327.158	-200.000	0.031	0.612
-326.143	31.286	0.094	0.082
-325.129	-140.802	-0.149	-0.015
-324.114	251.567	0.108	0.185
-323.099	207.496	0.048	0.075
-322.085	548.896	0.024	-0.057
-321.070	43.646	-0.191	-0.176
-320.056	244.403	0.074	-0.126
-319.041	76.044	0.112	-0.120
-318.026	73.048	0.141	0.148
-317.012	98.615	-0.119	-0.138
-315.997	-137.391	-0.052	0.006
-314.983	-200.000	-0.015	0.241
-313.968	-60.192	0.155	0.066
-312.953	43.624	0.147	-0.135
-311.939	43.317	0.181	0.167
-310.924	-87.341	-0.027	0.008
-309.910	74.908	0.252	-0.266
-308.895	8.399	0.170	-0.129
-307.880	-153.111	-0.192	-0.014
-306.866	-97.425	0.114	0.030
-305.851	-72.368	-0.212	-0.079
-304.837	70.824	-0.089	-0.092
-303.822	-44.453	-0.165	-0.083
-302.807	-200.000	0.035	-0.259
-301.793	800.000	0.043	0.121
-300.778	800.000	0.025	-0.078
-299.764	186.672	-0.129	-0.193
-298.749	71.229	0.097	0.101
-297.735	25.467	0.099	0.083
-296.720	-198.910	-0.162	-0.001
-295.705	-103.746	0.153	-0.036
-294.691	-200.000	0.020	0.138
-293.676	-68.457	0.037	0.014
-292.662	56.880	-0.089	-0.087
-291.647	-200.000	0.024	-0.134
-290.632	-39.272	0.182	-0.096
-289.618	-11.612	-0.097	0.064
-288.603	279.149	-0.073	0.131
-287.589	-69.386	0.198	-0.077
-286.574	14.858	-0.140	0.110
-285.559	-44.501	-0.265	-0.133
-284.545	152.284	0.089	-0.122
-283.530	-136.546	-0.190	0.022
-282.516	-200.000	-0.027	0.183
-281.501	-200.000	-0.001	-0.013
-280.486	-37.362	-0.190	0.102
-279.472	-35.677	0.150	-0.082
-278.457	-150.884	0.078	-0.006
-277.443	-134.068	-0.396	0.049
-276.428	-70.440	0.331	0.126
-275.413	-133.132	0.098	0.012
-274.399	800.000	-0.050	-0.162
-273.384	494.018	-0.109	-0.252
-272.370	-161.609	-0.127	-0.007
-271.355	15.206	-0.274	-0.216
-270.340	800.000	-0.092	-0.280
-269.326	-68.186	0.153	0.060
-268.311	800.000	0.069	-0.216
-267.297	800.000	-0.110	0.380
-266.282	64.880	-0.127	0.129
-265.267	198.627	0.118	0.181
-264.253	-51.672	0.279	-0.131
-263.238	357.242	0.135	-0.270
-262.224	22.381	-0.186	-0.153
-261.209	-97.354	-0.329	-0.086
-260.195	-102.048	-0.283	0.068
-259.180	-183.741	-0.297	-0.005
-258.165	431.953	-0.073	0.158
-257.151	-52.600	0.298	0.138
-256.136	107.058	-0.245	-0.292
-255.122	51.969	-0.236	0.226
-254.107	-200.000	0.082	0.416
-253.092	-47.623	-0.121	-0.059
-252.078	124.490	-0.234	0.296
-251.063	163.393	-0.042	0.060
-250.049	-17.513	0.266	0.168
-249.034	-78.884	-0.076	-0.026
-248.019	553.296	-0.083	0.199
-247.005	94.559	0.167	0.191
-245.990	800.000	-0.090	-0.328
-244.976	-175.408	0.180	-0.005
-243.961	603.098	-0.065	-0.163
-242.946	-139.766	-0.128	0.014
-241.932	-200.000	0.004	-0.120
-240.917	221.191	-0.056	0.090
-239.903	-108.754	-0.100	-0.021
-238.888	421.764	-0.185	-0.397
-237.873	800.000	0.061	-0.173
-236.859	-200.000	0.030	0.159
-235.844	115.699	-0.136	0.166
-234.830	-200.000	0.032	-0.239
-233.815	-72.637	-0.089	0.033
-232.800	-200.000	0.003	0.405
-231.786	-200.000	0.037	-0.246
-230.771	-66.283	-0.226	0.090
-229.757	139.986	-0.122	0.161
-228.742	-200.000	0.024	0.290
-227.727	-102.964	0.172	-0.041
-226.713	-90.376	-0.298	0.087
-225.698	-4.026	-0.206	-0.143
-224.684	-81.179	0.265	-0.088
-223.669	-200.000	0.010	0.089
-222.655	178.862	0.124	-0.182
-221.640	-114.441	0.166	-0.032
-220.625	-15.962	0.048	0.031
-219.611	-22.857	0.115	0.069
-218.596	-18.579	0.125	-0.078
-217.582	373.041	-0.128	-0.262
-216.567	-37.422	0.121	-0.065
-215.552	-41.338	-0.121	0.063
-214.538	800.000	-0.018	-0.069
-213.523	148.430	0.201	0.272
-212.509	800.000	-0.070	-0.237
-211.494	-154.695	-0.134	0.009
-210.479	-91.254	0.380	0.109
-209.465	-200.000	-0.011	-0.264
-208.450	-200.000	-0.057	0.337
-207.436	575.161	-0.101	-0.246
-206.421	-124.310	-0.268	-0.042
-205.406	143.309	-0.131	-0.175
-204.392	336.015	-0.109	-0.213
-203.377	41.211	0.270	-0.244
-202.363	10.791	0.152	0.116
-201.348	289.465	-0.133	-0.241
-200.333	-41.058	0.234	-0.121
-199.319	499.772	-0.078	-0.180
-198.304	-200.000	0.050	0.321
-197.290	-4.293	0.189	0.131
-196.275	-200.000	-0.282	0.001
-195.260	-200.000	-0.001	0.097
-194.246	-150.099	0.200	0.016
-193.231	106.067	-0.121	0.143
-192.217	-200.000	-0.018	0.163
-191.202	-44.399	0.182	-0.091
-190.187	-200.000	-0.036	0.245
-189.173	-65.376	0.038	0.015
-188.158	54.452	0.164	0.158
-187.144	0.117	0.428	-0.305
-186.129	800.000	0.012	0.047
-185.114	-200.000	0.043	0.189
-184.100	-9.946	-0.268	0.178
-183.085	-93.089	0.140	-0.039
-182.071	-135.010	-0.386	0.047
-181.056	79.619	-0.214	-0.230
-180.042	-23.762	-0.181	-0.108
-179.027	66.418	0.086	0.087
-178.012	-136.223	0.441	0.052
-176.998	-200.000	0.006	-0.252
-175.983	475.606	0.045	0.101
-174.969	391.501	-0.173	0.359
-173.954	67.129	0.295	-0.301
-172.939	70.206	-0.119	-0.123
-171.925	230.973	-0.150	-0.246
-170.910	800.000	-0.082	0.288
-169.896	-29.620	-0.149	-0.085
-168.881	-108.476	-0.353	0.076
-167.866	-137.915	0.258	0.029
-166.852	-200.000	-0.029	0.165
-165.837	455.759	0.056	-0.125
-164.823	45.853	-0.147	0.136
-163.808	20.869	-0.168	-0.136
-162.793	-144.184	-0.178	0.017
-161.779	-200.000	0.016	-0.084
-160.764	244.695	0.096	-0.162
-159.750	739.739	0.084	0.225
-158.735	-68.994	0.154	0.059
-157.720	652.984	0.013	0.033
-156.706	-161.705	-0.434	0.022
-155.691	-200.000	0.006	0.052
-154.677	-79.647	0.316	0.106
-153.662	800.000	0.055	0.155
-152.647	-10.652	0.199	0.132
-151.633	-108.100	-0.023	0.005
-150.618	800.000	-0.044	-0.149
-149.604	800.000	-0.054	0.207
-148.589	-197.502	-0.336	-0.002
-147.574	21.473	0.102	0.083
-146.560	128.221	-0.193	0.246
-145.545	800.000	0.040	-0.154
-144.531	418.602	0.146	0.312
-143.516	-47.299	0.315	0.153
-142.502	-200.000	-0.019	0.114
-141.487	-200.000	-0.035	0.407
-140.472	-200.000	0.074	0.357
-139.458	-200.000	0.007	-0.094
-138.443	-114.618	0.186	-0.036
-137.429	-54.969	0.229	0.103
-136.414	800.000	-0.074	-0.245
-135.399	39.168	0.333	-0.298
-134.385	23.058	0.162	0.132
-133.370	179.143	-0.174	0.254
-132.356	-64.503	-0.337	0.136
-131.341	-85.718	0.164	-0.051
-130.326	-61.285	0.042	-0.018
-129.312	-107.757	0.178	-0.039
-128.297	-200.000	-0.031	-0.170
-127.283	-200.000	0.029	-0.160
-126.268	149.043	0.403	-0.544
-125.253	-57.567	0.205	0.090
-124.239	800.000	0.042	-0.152
-123.224	721.115	0.102	-0.270
-122.210	225.781	0.139	-0.225
-121.195	-116.724	0.253	0.046
-120.180	-200.000	-0.008	0.098
-119.166	-164.234	-0.223	0.010
-118.151	-169.423	-0.227	-0.008
-117.137	-170.137	-0.064	-0.002
-116.122	10.170	0.054	0.041
-115.107	719.264	-0.035	-0.092
-114.093	-14.186	0.270	-0.174
-113.078	800.000	0.035	-0.097
-112.064	568.933	0.042	0.101
-111.049	-28.365	-0.253	-0.145
-110.034	-63.240	0.188	0.077
-109.020	19.947	0.012	0.009
-108.005	118.822	0.129	0.160
-106.991	-115.964	0.010	-0.002
-105.976	-151.147	-0.244	-0.018
-104.962	800.000	0.014	-0.045
-103.947	-200.000	-0.013	0.145
-102.932	800.000	-0.068	0.202
-101.918	-200.000	0.013	0.253
-100.903	-200.000	0.013	0.065
-99.889	37.583	0.159	0.141
-98.874	74.215	0.115	0.120
-97.859	-200.000	0.040	-0.258
-96.845	59.156	0.085	0.083
-95.830	800.000	-0.054	0.152
-94.816	597.377	0.102	0.251
-93.801	800.000	-0.044	-0.158
-92.786	194.342	0.135	0.204
-91.772	249.265	0.093	0.157
-90.757	-93.077	-0.156	-0.043
-89.743	131.434	-0.242	0.310
-88.728	117.871	-0.065	0.079
-87.713	70.056	0.179	0.184
-86.699	3.747	-0.133	-0.097
-85.684	248.182	-0.191	-0.321
-84.670	146.598	0.131	-0.176
-83.655	800.000	-0.089	0.379
-82.640	281.160	0.227	0.406
-81.626	13.633	0.432	0.334
-80.611	137.763	-0.123	-0.160
-79.597	-37.642	0.062	-0.033
-78.582	80.711	0.143	0.154
-77.567	-145.920	0.372	-0.033
-76.553	800.000	0.055	0.211
-75.538	262.694	0.101	-0.175
-74.524	-95.482	0.150	0.040
-73.509	-30.789	0.080	-0.045
-72.494	616.938	0.042	0.106
-71.480	-80.019	-0.232	-0.078
-70.465	-9.575	-0.177	0.118
-69.451	-58.501	-0.356	0.154
-68.436	51.267	0.157	0.148
-67.422	-83.581	-0.115	-0.037
-66.407	-85.571	-0.197	0.061
-65.392	-139.132	-0.229	0.025
-64.378	-127.103	0.258	-0.038
-63.363	-140.891	0.415	-0.042
-62.349	71.117	-0.134	0.139
-61.334	-6.634	-0.751	-0.509
-60.319	-200.000	0.044	0.464
-59.305	-200.000	0.063	-0.423
-58.290	315.101	0.500	0.938
-57.276	800.000	0.552	1.601
-56.261	-200.000	80.881	494.635
-55.246	553.619	1360.893	3257.240
-54.232	183.942	2587.596	3811.486
-53.217	120.241	2238.114	2765.150
-52.203	50.105	1690.850	1588.787
-51.188	42.571	1422.311	1288.339
-50.173	39.187	1378.202	1227.258
-49.159	57.165	1417.529	1376.228
-48.144	62.359	1436.235	1427.139
-47.130	42.878	1396.710	1266.876
-46.115	39.221	1379.943	1228.826
-45.100	38.983	1375.339	1223.191
-44.086	38.835	1373.336	1220.440
-43.071	38.955	1370.848	1218.929
-42.057	38.930	1368.174	1216.349
-41.042	38.908	1366.545	1214.716
-40.027	38.899	1365.382	1213.577
-39.013	38.868	1363.632	1211.781
-37.998	38.912	1362.050	1210.601
-36.984	39.033	1359.792	1209.292
-35.969	39.118	1358.056	1208.220
-34.954	39.200	1355.634	1206.521
-33.940	39.168	1354.257	1205.049
-32.925	39.138	1353.641	1204.269
-31.911	39.318	1351.465	1203.386
-30.896	39.206	1350.171	1201.505
-29.881	39.181	1348.721	1200.015
-28.867	39.194	1347.448	1198.910
-27.852	39.247	1345.660	1197.597
-26.838	39.355	1343.989	1196.719
-25.823	39.176	1342.936	1194.646
-24.809	39.120	1341.628	1193.096
-23.794	39.166	1340.128	1191.995
-22.779	39.222	1338.440	1190.783
-21.765	39.171	1337.454	1189.552
-20.750	39.123	1335.841	1187.775
-19.736	39.116	1334.708	1186.684
-18.721	38.920	1334.024	1184.845
-17.706	39.042	1332.677	1184.337
-16.692	39.111	1331.160	1183.353
-15.677	39.077	1330.044	1182.109
-14.663	39.015	1329.175	1180.919
-13.648	38.991	1327.974	1179.663
-12.633	38.976	1327.014	1178.673
-11.619	39.022	1326.145	1178.127
-10.604	39.011	1325.150	1177.135
-9.590	39.192	1323.382	1176.601
-8.575	39.006	1323.000	1175.100
-7.560	39.049	1322.012	1174.433
-6.546	38.979	1321.201	1173.248
-5.531	39.008	1320.458	1172.715
-4.517	39.077	1319.466	1172.197
-3.502	38.993	1318.685	1170.957
-2.487	39.043	1317.241	1169.928
-1.473	39.179	1313.043	1166.961
-0.458	37.954	1297.958	1146.315
0.556	34.546	1277.747	1102.370
1.571	30.205	1281.550	1080.337
2.586	28.689	1296.527	1083.919
3.600	26.961	1284.124	1063.344
4.615	20.138	1206.842	961.552
5.629	10.073	1125.593	844.409
6.644	5.221	1102.099	801.849
7.659	4.947	1099.372	798.388
8.673	5.049	1098.415	798.145
9.688	5.053	1097.391	797.352
10.702	5.407	1095.600	797.783
11.717	10.901	1104.133	832.108
12.731	19.461	1116.584	885.535
13.746	21.578	1117.978	897.430
14.761	19.808	1114.823	885.762
15.775	18.773	1112.429	878.489
16.790	17.655	1110.600	871.256
17.804	16.843	1108.979	865.757
18.819	16.702	1107.881	864.108
19.834	16.310	1107.121	861.440
20.848	16.084	1106.190	859.484
21.863	15.907	1105.350	857.853
22.877	15.727	1104.679	856.342
23.892	15.646	1103.889	855.239
24.907	15.656	1103.170	854.657
25.921	15.723	1101.730	853.807
26.936	15.722	1100.184	852.530
27.950	15.912	1098.713	852.274
28.965	15.841	1097.766	851.107
29.980	16.078	1095.987	850.851
30.994	15.986	1095.197	849.696
32.009	16.096	1094.201	849.402
33.023	16.103	1092.817	848.287
34.038	15.925	1091.776	846.508
35.053	15.961	1090.434	845.577
36.067	15.899	1089.751	844.662
37.082	15.874	1089.404	844.189
38.096	16.083	1088.078	844.135
39.111	15.965	1087.597	843.100
40.126	15.908	1085.947	841.459
41.140	15.780	1084.971	839.988
42.155	15.629	1083.456	837.991
43.169	15.567	1082.363	836.763
44.184	15.632	1081.376	836.247
45.199	15.767	1080.264	835.987
46.213	15.624	1079.802	834.840
47.228	15.783	1078.758	834.752
48.242	15.783	1077.834	833.962
49.257	15.779	1076.306	832.684
50.271	15.829	1075.681	832.376
51.286	15.999	1074.343	832.106
52.301	15.924	1073.422	830.949
53.315	15.823	1072.924	829.994
54.330	15.687	1071.491	828.141
55.344	15.687	1070.803	827.533
56.359	15.810	1069.806	827.296
57.374	15.740	1069.101	826.332
58.388	15.560	1068.469	824.891
59.403	15.581	1067.351	824.053
60.417	15.557	1066.477	823.190
61.432	15.608	1065.538	822.641
62.447	15.433	1065.286	821.520
63.461	15.570	1064.040	821.155
64.476	15.472	1063.186	819.943
65.490	15.493	1062.195	819.211
66.505	15.663	1061.184	819.185
67.520	15.584	1060.871	818.485
68.534	15.556	1059.735	817.403
69.549	15.447	1059.595	816.690
70.563	15.579	1058.038	816.060
71.578	15.498	1057.342	815.057
72.593	15.465	1056.835	814.433
73.607	15.432	1056.059	813.607
74.622	15.357	1055.693	812.888
75.636	15.455	1054.828	812.625
76.651	15.405	1053.982	811.657
77.666	15.476	1053.056	811.218
78.680	15.432	1052.397	810.423
79.695	15.365	1052.289	809.948
80.709	15.580	1051.581	810.367
81.724	15.632	1050.999	810.097
82.739	15.719	1050.145	809.787
83.753	15.904	1049.096	809.796
84.768	15.945	1048.528	809.481
85.782	16.143	1046.822	809.043
86.797	15.997	1047.036	808.436
87.812	15.845	1045.829	806.706
88.826	15.796	1044.862	805.653
89.841	15.984	1044.016	805.831
90.855	16.001	1042.764	804.873
91.870	16.088	1041.855	804.517
92.884	15.905	1041.480	803.283
93.899	16.047	1040.096	802.819
94.914	16.018	1039.673	802.283
95.928	16.128	1038.396	801.750
96.943	16.046	1037.697	800.753
97.957	16.096	1036.517	800.008
98.972	16.052	1035.735	799.125
99.987	16.003	1035.157	798.376
101.001	15.953	1033.675	796.922
102.016	16.085	1032.536	796.599
103.030	16.032	1032.276	796.077
104.045	15.989	1031.435	795.155
105.060	15.940	1030.397	794.057
106.074	15.814	1029.631	792.799
107.089	15.772	1028.774	791.872
108.103	15.647	1027.409	790.163
109.118	15.571	1026.686	789.180
110.133	15.636	1025.471	788.482
111.147	15.543	1024.891	787.530
112.162	15.652	1024.290	787.511
113.176	15.816	1023.440	787.554
114.191	15.767	1022.193	786.297
115.206	15.755	1021.546	785.672
116.220	15.748	1020.938	785.104
117.235	15.709	1020.066	784.181
118.249	15.668	1019.163	783.227
119.264	15.674	1018.632	782.776
120.279	15.675	1017.379	781.748
121.293	15.610	1016.514	780.713
122.308	15.625	1015.491	779.927
123.322	15.520	1015.021	779.009
124.337	15.676	1013.232	778.292
125.352	15.713	1012.475	777.815
126.366	15.514	1011.481	776.062
127.381	15.558	1010.332	775.315
128.395	15.559	1009.532	774.634
129.410	15.648	1008.711	774.350
130.424	15.626	1007.968	773.607
131.439	15.787	1006.996	773.533
132.454	15.761	1006.228	772.756
133.468	15.886	1005.055	772.360
134.483	15.763	1004.684	771.443
135.497	15.770	1004.058	770.923
136.512	16.024	1002.472	770.803
137.527	15.782	1002.088	769.331
138.541	15.735	1001.280	768.427
139.556	16.020	1000.181	768.815
140.570	16.050	999.865	768.642
141.585	16.085	999.407	768.383
142.600	16.076	998.033	767.215
143.614	16.261	997.199	767.351
144.629	16.049	996.704	765.936
145.643	16.079	996.040	765.494
146.658	16.038	994.491	764.050
147.673	15.980	993.529	762.983
148.687	15.890	992.468	761.692
149.702	15.953	991.569	761.222
150.716	15.883	990.636	760.120
151.731	15.887	989.894	759.500
152.746	15.899	989.152	758.919
153.760	15.907	988.459	758.356
154.775	15.966	988.089	758.273
155.789	16.015	987.283	757.808
156.804	16.000	986.362	756.962
157.819	16.019	986.048	756.742
158.833	16.153	985.564	756.903
159.848	16.271	984.656	756.671
160.862	16.045	983.336	754.578
161.877	15.927	982.422	753.280
162.892	15.917	981.238	752.262
163.906	15.891	980.361	751.408
164.921	15.904	979.415	750.672
165.935	16.051	978.184	750.316
166.950	16.009	977.707	749.698
167.964	16.086	976.653	749.164
168.979	15.966	976.084	748.132
169.994	16.073	974.852	747.596
171.008	15.963	974.410	746.702
172.023	16.200	974.023	747.387
173.037	16.243	973.041	746.758
174.052	16.276	972.020	746.057
175.067	16.057	971.585	744.691
176.081	15.941	970.641	743.389
177.096	16.115	970.510	743.988
178.110	16.101	969.407	743.017
179.125	16.099	968.620	742.336
180.140	16.121	968.268	742.098
181.154	16.158	968.104	742.071
182.169	16.214	967.904	742.097
183.183	16.387	966.832	741.969
184.198	16.322	966.013	740.993
185.213	16.192	965.390	739.879
186.227	16.234	965.156	739.817
187.242	16.460	963.856	739.744
188.256	16.552	963.702	739.964
189.271	16.514	962.920	739.132
190.286	16.180	961.725	736.689
191.300	15.979	961.348	735.459
192.315	15.939	960.368	734.469
193.329	15.949	959.770	733.992
194.344	16.128	959.052	734.157
195.359	16.277	958.354	734.206
196.373	16.308	958.210	734.165
197.388	16.368	957.769	734.021
198.402	16.611	957.440	734.759
199.417	16.497	956.523	733.498
200.432	16.678	955.545	733.465
201.446	16.662	955.709	733.458
202.461	16.577	955.070	732.536
203.475	16.607	954.435	732.113
204.490	16.574	953.325	731.055
205.504	16.654	952.560	730.747
206.519	16.538	951.631	729.473
207.534	16.395	951.026	728.325
208.548	16.510	950.527	728.376
209.563	16.549	949.722	727.861
210.577	16.630	949.111	727.676
211.592	16.704	948.800	727.690
212.607	16.818	947.388	727.036
213.621	16.731	946.529	725.937
214.636	16.659	946.003	725.163
215.650	16.711	945.631	725.033
216.665	16.740	944.827	724.480
217.680	16.945	943.664	724.400
218.694	16.874	943.288	723.743
219.709	16.869	942.519	723.068
220.723	16.927	942.088	722.921
221.738	16.706	941.704	721.621
222.753	16.999	940.553	721.920
223.767	16.788	940.191	720.681
224.782	16.985	939.558	720.971
225.796	17.159	938.695	720.981
226.811	16.913	938.582	719.789
227.826	16.702	937.543	718.033
228.840	16.835	937.021	718.132
229.855	16.629	936.332	716.668
230.869	16.712	935.387	716.235
231.884	16.719	934.503	715.523
232.899	16.724	933.820	714.957
233.913	16.799	932.891	714.501
234.928	16.679	932.410	713.562
235.942	16.653	931.474	712.672
236.957	16.723	931.180	712.680
237.972	16.657	930.565	711.867
238.986	16.730	930.121	711.773
240.001	16.773	929.510	711.422
241.015	16.882	928.596	711.118
242.030	16.902	928.088	710.750
243.045	17.018	927.175	710.472
244.059	16.828	926.822	709.345
245.074	17.071	925.879	709.575
246.088	17.018	925.525	709.020
247.103	17.004	924.892	708.413
248.117	17.212	924.315	708.779
249.132	17.283	924.092	708.839
250.147	17.436	923.438	708.914
251.161	17.430	922.672	708.235
252.176	17.468	922.070	707.870
253.190	17.489	921.631	707.556
254.205	17.482	920.768	706.805
255.220	17.449	920.202	706.167
256.234	17.514	919.435	705.786
257.249	17.608	918.510	705.406
258.263	17.413	918.025	704.165
259.278	17.456	917.253	703.686
260.293	17.554	916.719	703.618
261.307	17.728	916.057	703.767
262.322	17.645	915.565	702.984
263.336	17.692	914.803	702.531
264.351	17.739	913.807	701.896
265.366	17.714	913.189	701.258
266.380	17.722	912.802	700.933
267.395	17.577	911.920	699.595
268.409	17.652	910.811	698.993
269.424	17.761	910.160	698.877
270.439	17.597	909.895	697.937
271.453	17.631	908.807	697.180
272.468	17.501	908.468	696.331
273.482	17.643	907.509	696.113
274.497	17.616	907.262	695.750
275.512	17.617	906.482	695.094
276.526	17.645	906.060	694.824
277.541	17.589	905.706	694.264
278.555	17.784	905.080	694.515
279.570	17.833	904.138	693.932
280.585	17.725	903.697	693.093
281.599	17.782	902.387	692.258
282.614	17.764	901.949	691.789
283.628	17.701	901.270	690.952
284.643	17.761	901.051	690.962
285.657	17.752	900.076	690.117
286.672	17.801	899.678	689.951
287.687	17.789	898.991	689.316
288.701	17.893	898.220	689.082
289.716	17.802	898.077	688.543
290.730	17.639	897.587	687.449
291.745	17.804	896.688	687.366
292.760	18.021	895.990	687.641
293.774	18.095	895.238	687.304
294.789	18.056	894.574	686.577
295.803	17.964	893.844	685.584
296.818	17.881	893.026	684.562
297.833	17.833	892.588	683.976
298.847	17.850	892.291	683.754
299.862	17.944	891.281	683.298
300.876	18.095	890.505	683.244
301.891	18.174	890.117	683.203
302.906	18.093	890.001	682.730
303.920	18.270	889.166	682.735
304.935	18.251	888.856	682.362
305.949	18.248	887.914	681.566
306.964	18.105	887.352	680.505
307.979	18.211	886.723	680.384
308.993	18.321	885.833	680.075
310.008	18.448	884.968	679.856
311.022	18.319	884.703	679.083
312.037	18.163	884.015	677.873
313.052	18.139	883.452	677.288
314.066	18.171	882.850	676.894
315.081	18.076	882.271	676.014
316.095	18.029	881.762	675.378
317.110	18.196	880.899	675.317
318.125	18.147	880.682	674.895
319.139	18.208	880.136	674.661
320.154	18.073	879.815	673.821
321.168	18.290	878.990	673.985
322.183	18.244	878.393	673.285
323.197	18.263	877.787	672.837
324.212	18.378	877.313	672.866
325.227	18.230	876.763	671.804
326.241	18.185	876.170	671.113
327.256	18.218	875.477	670.652
328.270	18.278	874.723	670.252
329.285	18.198	874.584	669.770
330.300	18.269	873.949	669.503
331.314	18.192	873.258	668.613
332.329	18.389	872.973	669.107
333.343	18.422	872.539	668.844
334.358	18.393	872.209	668.417
335.373	18.615	871.351	668.568
336.387	18.592	871.193	668.298
337.402	18.646	870.908	668.229
338.416	18.547	870.886	667.767
339.431	18.738	870.289	667.995
340.446	18.676	869.922	667.413
341.460	18.731	869.093	666.932
342.475	18.811	868.948	667.070
343.489	18.700	868.619	666.330
344.504	18.724	868.262	666.090
345.519	18.738	867.879	665.790
346.533	18.837	866.722	665.226
347.548	18.818	866.472	664.901
348.562	18.739	865.640	663.902
349.577	18.632	864.971	662.916
350.592	18.575	864.266	662.095
351.606	18.607	863.465	661.547
352.621	18.597	863.124	661.188
353.635	18.447	862.586	660.142
354.650	18.745	861.633	660.497
355.665	18.724	861.048	659.910
356.679	18.806	860.320	659.610
357.694	18.775	859.822	659.049
358.708	18.738	859.459	658.573
359.723	18.794	858.658	658.117
360.738	18.827	857.993	657.674
361.752	18.862	857.525	657.392
362.767	18.942	857.011	657.246
363.781	18.952	856.998	657.214
364.796	19.149	856.097	657.217
365.810	19.181	855.731	656.999
366.825	19.273	855.275	656.941
367.840	19.258	854.591	656.303
368.854	19.116	854.335	655.507
369.869	19.185	853.547	655.106
370.883	19.047	853.198	654.255
371.898	19.197	853.261	654.817
372.913	19.207	852.417	654.147
373.927	19.193	851.929	653.664
374.942	19.247	851.599	653.556
375.956	19.092	851.279	652.667
376.971	19.220	850.873	652.780
377.986	19.404	850.283	652.967
379.000	19.435	849.750	652.620
380.015	19.276	849.231	651.560
381.029	19.250	848.703	651.002
382.044	19.445	848.080	651.201
383.059	19.496	847.353	650.778
384.073	19.411	846.559	649.789
385.088	19.379	846.075	649.242
386.102	19.189	845.453	647.990
387.117	19.215	845.186	647.825
388.132	19.243	844.609	647.430
389.146	19.269	843.966	646.980
390.161	19.407	843.465	647.055
391.175	19.427	842.942	646.671
392.190	19.197	842.769	645.621
393.205	19.182	842.060	644.962
394.219	19.233	841.706	644.826
395.234	19.375	841.069	644.812
396.248	19.340	840.385	644.098
397.263	19.160	840.437	643.410
398.278	19.186	839.838	642.993
399.292	19.265	839.485	642.959
400.307	19.219	838.624	642.072
401.321	19.169	838.466	641.707
402.336	19.215	837.892	641.382
403.350	19.322	837.598	641.500
404.365	19.446	837.036	641.472
405.380	19.658	836.449	641.754
406.394	19.753	835.815	641.564
407.409	19.795	835.194	641.187
408.423	19.636	835.194	640.538
409.438	19.571	834.944	640.049
410.453	19.791	834.181	640.222
411.467	19.784	834.258	640.201
412.482	19.857	833.712	639.995
413.496	19.840	833.426	639.654
414.511	19.896	832.825	639.345
415.526	19.839	832.383	638.739
416.540	19.846	831.625	638.127
417.555	19.938	831.204	638.086
418.569	19.971	831.021	638.010
419.584	19.862	830.462	637.122
420.599	19.951	829.728	636.832
421.613	150.110	1365.679	1764.016
422.628	130.993	1443.777	1764.132
