DTS Sentinel unit serial number:	SN413079Multiplexer serial number:	ORYXHardware model number:	OX4-SRSoftware version number:	ORYX F/W v4.00 Oryx Data Collector v3.7.2.0data status	okinstallation	princeton_trtdifferential loss correction	single-endedforward channel	channel 1reverse channel	N/Adate	2019/09/18time	03:18:35forward acquisition time	60.00reverse acquisition time	0.00gamma	496.2192k internal	0.2340k external	0.2340temperature offset calibration	0.9983default loss term (dB/km)	0.3790temperature slope calibration	1.0000multiplexer offset coefficient	1.0000multiplexer slope coefficient	1.0000fibre end	0.00T internal ref (°C)	22.75T ext. ref 1 (°C)	0.17T ext. ref 2 (°C)	16.85length (m)	temperature (°C)	Stokes	anti-Stokes-747.200	556.525	-0.086	-0.209
-746.185	-200.000	0.016	0.255
-745.171	-183.125	-0.055	0.001
-744.156	-142.931	-0.241	0.023
-743.142	106.409	-0.335	0.398
-742.127	495.908	0.063	0.144
-741.112	-95.468	0.208	-0.056
-740.098	212.561	-0.342	0.541
-739.083	53.901	-0.207	0.199
-738.069	154.261	-0.090	-0.124
-737.054	757.941	-0.018	0.049
-736.039	-94.524	-0.280	-0.076
-735.025	2.224	0.254	0.184
-734.010	-99.694	-0.144	-0.036
-732.996	-200.000	0.099	0.000
-731.981	79.362	-0.286	-0.307
-730.966	-8.652	-0.275	-0.185
-729.952	800.000	0.087	-0.308
-728.937	-200.000	-0.017	-0.150
-727.923	16.339	-0.117	-0.093
-726.908	38.746	-0.152	0.136
-725.894	-200.000	0.030	-0.359
-724.879	-104.749	-0.383	-0.088
-723.864	-200.000	0.024	-0.191
-722.850	-11.806	0.083	0.054
-721.835	234.354	0.061	-0.101
-720.821	88.535	0.144	0.160
-719.806	800.000	-0.039	-0.138
-718.791	800.000	0.111	-0.315
-717.777	-48.167	-0.322	0.156
-716.762	800.000	0.128	-0.429
-715.748	-77.064	0.419	-0.146
-714.733	-200.000	0.022	-0.314
-713.718	184.790	0.091	-0.135
-712.704	-152.447	-0.069	-0.005
-711.689	800.000	-0.130	0.382
-710.675	-144.111	0.191	-0.018
-709.660	728.279	0.054	-0.145
-708.645	409.805	0.091	-0.193
-707.631	-200.000	0.013	0.270
-706.616	-200.000	-0.007	0.350
-705.602	133.681	-0.044	0.057
-704.587	-122.993	0.270	-0.043
-703.572	-108.499	-0.139	0.030
-702.558	38.107	-0.226	-0.201
-701.543	800.000	0.060	0.251
-700.529	50.900	-0.139	0.131
-699.514	-114.752	0.306	-0.058
-698.499	149.504	-0.171	-0.232
-697.485	-77.879	0.130	0.045
-696.470	211.667	0.200	-0.315
-695.456	184.241	0.060	-0.089
-694.441	800.000	-0.018	0.069
-693.426	107.594	0.094	-0.112
-692.412	-141.384	0.431	0.044
-691.397	800.000	-0.120	-0.379
-690.383	-200.000	0.000	-0.398
-689.368	253.796	0.165	-0.283
-688.354	-47.920	-0.290	-0.140
-687.339	800.000	0.098	-0.331
-686.324	-101.644	0.323	0.078
-685.310	252.142	-0.200	-0.341
-684.295	10.501	-0.186	0.141
-683.281	-200.000	0.061	-0.365
-682.266	100.592	0.082	-0.095
-681.251	10.488	0.061	-0.046
-680.237	41.920	-0.152	0.138
-679.222	138.910	0.132	0.173
-678.208	-77.830	-0.066	0.023
-677.193	-21.575	-0.419	-0.256
-676.178	-90.220	0.193	-0.056
-675.164	-71.995	0.048	-0.018
-674.149	-172.512	-0.444	0.014
-673.135	-3.521	-0.127	0.088
-672.120	-35.242	0.261	-0.142
-671.105	656.777	0.054	0.138
-670.091	1.152	-0.378	-0.271
-669.076	-200.000	-0.005	-0.049
-668.062	-3.163	0.210	0.146
-667.047	-163.470	-0.399	-0.019
-666.032	-103.533	-0.308	0.072
-665.018	-77.260	-0.254	0.088
-664.003	216.212	0.100	0.158
-662.989	-73.938	-0.221	-0.080
-661.974	-104.187	-0.495	-0.115
-660.959	800.000	-0.039	-0.169
-659.945	-69.587	-0.224	0.086
-658.930	-67.440	0.045	-0.017
-657.916	-81.703	-0.117	0.038
-656.901	800.000	-0.125	0.364
-655.886	800.000	-0.123	-0.366
-654.872	128.129	0.023	-0.029
-653.857	-25.201	0.104	-0.062
-652.843	-151.270	-0.111	-0.008
-651.828	-200.000	-0.102	-0.561
-650.814	31.209	0.108	0.093
-649.799	47.563	-0.072	0.067
-648.784	-200.000	0.015	0.325
-647.770	800.000	-0.043	0.160
-646.755	-200.000	0.029	-0.208
-645.741	-14.266	0.280	0.180
-644.726	-53.217	-0.155	-0.071
-643.711	-159.413	0.391	0.022
-642.697	-65.503	0.056	0.023
-641.682	-85.567	-0.037	0.012
-640.668	800.000	0.101	0.380
-639.653	800.000	0.120	-0.340
-638.638	-200.000	0.015	0.260
-637.624	13.957	-0.281	-0.218
-636.609	-19.621	-0.156	-0.097
-635.595	-4.527	0.232	0.160
-634.580	248.344	0.120	0.203
-633.565	-92.648	0.182	-0.051
-632.551	70.017	0.153	0.157
-631.536	43.861	0.074	0.067
-630.522	279.194	0.112	-0.199
-629.507	-200.000	-0.003	0.346
-628.492	-200.000	0.096	-0.000
-627.478	395.044	-0.092	-0.191
-626.463	-65.139	-0.201	0.081
-625.449	223.965	-0.106	-0.171
-624.434	-62.378	-0.054	0.022
-623.419	406.554	0.055	0.115
-622.405	84.036	0.175	-0.191
-621.390	800.000	-0.036	-0.134
-620.376	44.790	-0.128	-0.118
-619.361	-200.000	-0.005	0.107
-618.346	151.901	0.168	0.228
-617.332	345.304	-0.117	0.229
-616.317	-0.669	-0.113	0.080
-615.303	28.170	0.215	0.181
-614.288	-200.000	-0.028	-0.189
-613.273	800.000	0.114	-0.418
-612.259	591.419	-0.085	0.209
-611.244	112.460	-0.312	-0.377
-610.230	702.153	0.147	-0.387
-609.215	-4.357	-0.154	-0.106
-608.201	166.165	0.134	0.190
-607.186	140.711	0.154	0.203
-606.171	33.572	-0.177	0.153
-605.157	-129.445	-0.152	-0.021
-604.142	-94.077	-0.187	-0.051
-603.128	800.000	0.057	0.185
-602.113	-200.000	-0.057	-0.316
-601.098	279.843	-0.108	-0.192
-600.084	-41.221	-0.092	0.047
-599.069	800.000	-0.079	-0.298
-598.055	111.849	-0.034	0.040
-597.040	42.173	0.171	-0.154
-596.025	0.570	0.120	0.085
-595.011	44.611	-0.130	0.119
-593.996	-200.000	0.016	-0.202
-592.982	206.390	-0.176	0.272
-591.967	323.212	-0.159	0.303
-590.952	196.903	0.033	0.050
-589.938	-200.000	0.001	-0.008
-588.923	6.341	-0.229	-0.169
-587.909	-200.000	-0.006	0.273
-586.894	41.575	-0.383	-0.346
-585.879	-141.745	-0.111	0.011
-584.865	-55.887	-0.200	-0.089
-583.850	-136.363	-0.275	0.032
-582.836	-119.767	0.074	0.013
-581.821	217.416	-0.058	0.092
-580.806	-105.867	-0.115	0.026
-579.792	-34.980	0.420	0.228
-578.777	93.492	-0.215	0.243
-577.763	-106.289	0.097	-0.022
-576.748	-112.093	-0.273	-0.055
-575.733	155.409	-0.033	-0.046
-574.719	312.908	-0.223	0.417
-573.704	-68.434	-0.227	0.088
-572.690	119.211	-0.326	-0.402
-571.675	-200.000	0.009	0.165
-570.661	800.000	0.055	-0.185
-569.646	355.601	-0.083	0.164
-568.631	52.596	0.193	0.183
-567.617	352.533	-0.148	-0.292
-566.602	178.090	0.044	0.065
-565.588	524.032	-0.079	0.186
-564.573	204.905	0.246	0.381
-563.558	-168.414	-0.103	-0.004
-562.544	512.164	0.056	0.129
-561.529	-200.000	0.027	0.219
-560.515	-200.000	0.019	-0.191
-559.500	388.894	-0.124	-0.256
-558.485	-37.316	-0.210	-0.112
-557.471	-191.070	-0.253	-0.003
-556.456	-137.681	0.217	0.024
-555.442	570.036	-0.086	-0.208
-554.427	260.990	0.096	0.165
-553.412	297.141	-0.066	-0.121
-552.398	135.200	-0.166	-0.215
-551.383	402.687	-0.059	-0.124
-550.369	87.449	0.249	-0.274
-549.354	127.058	0.166	-0.210
-548.339	-11.892	0.291	0.190
-547.325	-88.266	0.221	0.066
-546.310	-200.000	-0.233	0.000
-545.296	-90.622	-0.169	0.049
-544.281	132.932	-0.073	0.094
-543.266	-200.000	0.001	0.083
-542.252	800.000	0.059	-0.254
-541.237	293.130	-0.066	-0.119
-540.223	-68.234	-0.058	-0.022
-539.208	511.048	0.076	0.176
-538.193	-39.276	-0.273	0.143
-537.179	-200.000	0.028	-0.307
-536.164	-192.784	-0.154	-0.001
-535.150	-200.000	0.003	0.125
-534.135	208.226	0.247	0.384
-533.121	-200.000	-0.047	-0.206
-532.106	-137.131	-0.107	-0.012
-531.091	40.495	0.216	0.194
-530.077	145.440	0.094	0.125
-529.062	-120.501	-0.200	-0.034
-528.048	-102.847	-0.132	0.031
-527.033	60.095	-0.084	0.083
-526.018	89.348	-0.108	0.120
-525.004	800.000	0.014	-0.045
-523.989	-125.214	0.073	-0.011
-522.975	-73.312	-0.350	-0.127
-521.960	24.935	-0.044	-0.036
-520.945	156.850	0.039	-0.053
-519.931	74.315	0.173	-0.181
-518.916	-14.353	0.247	0.158
-517.902	193.784	0.113	0.170
-516.887	81.949	-0.113	0.122
-515.872	-44.811	-0.280	-0.139
-514.858	67.789	0.037	-0.038
-513.843	127.335	0.066	0.083
-512.829	-74.097	0.250	0.090
-511.814	800.000	0.085	-0.233
-510.799	633.540	0.040	0.100
-509.785	-106.957	0.409	0.090
-508.770	-17.299	-0.212	-0.133
-507.756	-200.000	0.002	-0.218
-506.741	333.624	0.067	0.129
-505.726	64.645	0.036	0.036
-504.712	-5.674	0.284	-0.193
-503.697	57.844	-0.175	0.170
-502.683	47.568	-0.302	0.279
-501.668	-90.096	-0.038	-0.011
-500.653	-52.621	-0.150	0.069
-499.639	252.563	0.250	-0.423
-498.624	800.000	-0.063	-0.202
-497.610	-200.000	0.006	0.214
-496.595	461.349	0.036	-0.080
-495.581	34.571	-0.075	-0.065
-494.566	172.585	0.169	-0.242
-493.551	-200.000	-0.007	-0.307
-492.537	156.590	-0.028	-0.039
-491.522	30.100	0.115	-0.098
-490.508	96.587	0.269	-0.306
-489.493	-18.233	0.488	-0.303
-488.478	120.040	0.192	-0.237
-487.464	-78.214	-0.217	0.074
-486.449	-200.000	-0.081	-0.356
-485.435	-194.640	-0.255	-0.002
-484.420	-47.801	0.153	-0.074
-483.405	470.000	0.158	0.353
-482.391	75.859	0.182	-0.190
-481.376	-63.141	-0.259	0.106
-480.362	-64.017	-0.211	0.085
-479.347	-67.200	-0.395	0.154
-478.332	119.839	-0.051	-0.062
-477.318	800.000	0.035	0.147
-476.303	16.739	0.213	-0.167
-475.289	699.533	-0.020	-0.053
-474.274	-200.000	0.026	-0.129
-473.259	-48.704	-0.255	-0.121
-472.245	-168.547	0.375	0.014
-471.230	76.372	-0.111	0.116
-470.216	299.707	0.092	0.168
-469.201	-29.830	0.027	0.015
-468.186	-18.606	-0.270	-0.167
-467.172	40.932	-0.224	-0.201
-466.157	104.564	-0.133	0.155
-465.143	554.200	0.014	-0.034
-464.128	486.483	-0.055	-0.125
-463.113	-90.024	-0.256	0.074
-462.099	645.689	0.011	0.028
-461.084	-24.114	0.227	0.134
-460.070	-162.085	0.219	0.011
-459.055	-25.362	-0.194	-0.114
-458.040	257.740	-0.168	0.286
-457.026	-76.390	-0.192	0.067
-456.011	-190.542	0.312	0.003
-454.997	29.807	0.117	0.099
-453.982	40.084	0.161	0.143
-452.968	-8.077	0.108	-0.072
-451.953	-116.753	-0.205	0.037
-450.938	800.000	0.055	-0.233
-449.924	-200.000	-0.020	-0.344
-448.909	269.252	-0.101	-0.176
-447.895	-123.173	-0.176	-0.028
-446.880	99.321	-0.291	-0.334
-445.865	-200.000	0.170	0.000
-444.851	113.262	-0.105	-0.126
-443.836	317.964	0.193	-0.361
-442.822	164.830	-0.045	0.062
-441.807	-89.740	0.282	-0.082
-440.792	-200.000	-0.001	-0.029
-439.778	-200.000	-0.063	-0.340
-438.763	-157.929	-0.189	0.011
-437.749	-10.117	-0.251	-0.165
-436.734	-200.000	0.009	0.153
-435.719	-28.666	-0.057	0.032
-434.705	88.651	-0.304	0.335
-433.690	91.375	0.256	0.285
-432.676	-200.000	-0.118	-0.538
-431.661	165.734	0.304	-0.426
-430.646	-65.349	0.228	-0.091
-429.632	-85.561	-0.047	0.014
-428.617	702.944	0.134	0.351
-427.603	800.000	0.176	0.496
-426.588	-149.303	-0.072	-0.006
-425.573	-200.000	-0.226	0.001
-424.559	-37.995	0.031	-0.016
-423.544	22.672	-0.169	0.137
-422.530	800.000	0.122	0.359
-421.515	-22.329	0.212	-0.127
-420.500	-200.000	0.022	-0.108
-419.486	15.339	0.132	0.103
-418.471	-128.526	0.143	-0.020
-417.457	-39.994	-0.071	0.037
-416.442	655.218	-0.078	0.198
-415.428	36.513	0.114	0.100
-414.413	230.476	0.051	0.083
-413.398	-200.000	0.053	-0.353
-412.384	-200.000	-0.004	0.021
-411.369	-125.659	0.217	-0.032
-410.355	-153.428	-0.027	-0.002
-409.340	-200.000	-0.016	0.165
-408.325	-177.635	0.480	0.012
-407.311	-200.000	0.038	-0.229
-406.296	252.557	-0.085	-0.143
-405.282	98.494	0.208	-0.238
-404.267	47.314	-0.078	0.072
-403.252	-106.371	0.277	0.061
-402.238	-91.121	-0.294	-0.084
-401.223	-123.406	-0.329	0.052
-400.209	592.684	0.057	0.140
-399.194	-2.737	0.120	-0.083
-398.179	55.776	-0.242	-0.232
-397.165	31.014	0.113	0.096
-396.150	21.037	0.236	0.189
-395.136	13.912	-0.204	0.157
-394.121	-87.786	0.218	0.065
-393.106	-62.087	0.052	-0.022
-392.092	-121.243	0.440	-0.073
-391.077	-200.000	0.060	-0.271
-390.063	-200.000	-0.047	-0.513
-389.048	-200.000	0.017	0.170
-388.033	56.670	-0.249	-0.240
-387.019	112.732	0.114	0.137
-386.004	156.992	-0.100	-0.137
-384.990	73.601	-0.181	0.187
-383.975	-173.352	0.047	0.001
-382.960	105.375	0.086	-0.100
-381.946	113.925	-0.158	-0.190
-380.931	-104.923	-0.250	0.057
-379.917	-137.850	-0.096	-0.011
-378.902	217.863	-0.192	0.302
-377.888	361.611	0.143	0.283
-376.873	-87.220	0.256	0.077
-375.858	800.000	0.059	-0.219
-374.844	-132.184	-0.214	-0.027
-373.829	-102.395	0.188	0.045
-372.815	78.211	0.231	0.244
-371.800	176.734	-0.063	0.090
-370.785	800.000	-0.078	0.310
-369.771	-71.664	0.078	-0.029
-368.756	-127.871	-0.113	-0.016
-367.742	-141.064	-0.059	-0.006
-366.727	800.000	0.109	0.300
-365.712	-200.000	0.023	0.308
-364.698	712.904	0.024	-0.063
-363.683	395.181	0.005	-0.010
-362.669	-70.276	-0.215	-0.080
-361.654	65.728	-0.176	0.176
-360.639	460.369	0.103	-0.226
-359.625	235.246	0.137	-0.224
-358.610	-200.000	-0.091	0.525
-357.596	-200.000	0.017	-0.194
-356.581	240.842	0.148	0.244
-355.566	800.000	0.104	0.296
-354.552	-98.776	-0.096	0.024
-353.537	-28.662	0.407	-0.231
-352.523	720.286	-0.036	-0.094
-351.508	149.046	0.120	0.160
-350.493	-147.391	-0.220	-0.018
-349.479	-152.134	0.043	0.003
-348.464	-200.000	0.024	-0.487
-347.450	-49.043	-0.409	0.193
-346.435	135.258	0.100	-0.128
-345.420	215.730	-0.105	-0.165
-344.406	-68.026	0.137	-0.053
-343.391	136.721	-0.174	-0.224
-342.377	222.410	0.115	0.182
-341.362	178.995	-0.167	0.241
-340.348	-68.037	0.195	0.075
-339.333	173.633	0.059	-0.084
-338.318	-103.679	0.114	-0.026
-337.304	324.279	-0.063	0.118
-336.289	141.866	-0.217	0.284
-335.275	-200.000	0.016	0.499
-334.260	-51.394	-0.355	-0.164
-333.245	273.546	-0.074	-0.129
-332.231	-29.113	0.171	-0.097
-331.216	-103.681	-0.394	-0.091
-330.202	111.311	0.058	0.069
-329.187	121.455	0.105	-0.129
-328.172	125.687	-0.243	0.303
-327.158	-123.025	0.151	0.024
-326.143	-200.000	-0.052	-0.236
-325.129	-21.418	-0.058	-0.035
-324.114	-32.902	-0.135	0.074
-323.099	-200.000	-0.007	-0.343
-322.085	143.658	0.236	0.310
-321.070	-62.425	-0.084	-0.035
-320.056	487.281	0.059	-0.133
-319.041	535.123	-0.109	-0.256
-318.026	44.394	0.060	0.054
-317.012	230.127	-0.122	-0.197
-315.997	741.073	-0.055	0.146
-314.983	197.298	0.079	0.119
-313.968	119.982	-0.146	0.178
-312.953	352.202	0.200	-0.392
-311.939	244.648	-0.122	-0.201
-310.924	-200.000	-0.011	0.139
-309.910	800.000	-0.041	-0.115
-308.895	-3.520	-0.311	-0.213
-307.880	-200.000	0.002	-0.262
-306.866	-106.925	0.170	-0.037
-305.851	-147.287	0.146	-0.012
-304.837	360.564	0.060	0.119
-303.822	-146.931	-0.176	-0.015
-302.807	-86.021	-0.117	0.036
-301.793	800.000	-0.114	0.351
-300.778	800.000	-0.015	0.057
-299.764	-200.000	0.013	0.109
-298.749	-21.244	0.277	0.167
-297.735	389.683	-0.081	0.165
-296.720	17.809	0.037	-0.029
-295.705	-122.797	0.231	-0.037
-294.691	221.317	0.091	0.144
-293.676	-47.481	-0.124	0.059
-292.662	800.000	0.012	-0.052
-291.647	-29.899	0.214	-0.120
-290.632	-25.439	0.189	-0.110
-289.618	800.000	0.070	0.294
-288.603	-50.860	-0.164	0.076
-287.589	397.194	-0.102	0.209
-286.574	-17.210	0.159	0.099
-285.559	98.456	0.187	-0.212
-284.545	-46.508	0.088	0.043
-283.530	-200.000	-0.060	0.329
-282.516	800.000	-0.030	0.101
-281.501	180.777	0.120	-0.174
-280.486	-146.702	0.261	0.022
-279.472	-107.575	0.238	0.051
-278.457	34.688	-0.154	0.132
-277.443	-7.795	-0.206	-0.137
-276.428	800.000	-0.096	0.299
-275.413	-51.153	0.030	-0.014
-274.399	800.000	0.020	-0.059
-273.384	-200.000	0.017	-0.090
-272.370	-170.637	0.189	-0.006
-271.355	800.000	0.017	0.067
-270.340	800.000	-0.023	-0.071
-269.326	-200.000	0.001	-0.205
-268.311	-45.130	0.265	-0.129
-267.297	336.600	-0.067	-0.128
-266.282	171.807	-0.174	-0.246
-265.267	-200.000	0.032	-0.189
-264.253	-200.000	-0.011	0.237
-263.238	22.671	-0.143	-0.116
-262.224	96.832	-0.088	-0.099
-261.209	-44.072	0.119	-0.059
-260.195	-200.000	-0.004	-0.042
-259.180	-200.000	-0.004	0.076
-258.165	-89.710	0.049	0.014
-257.151	-98.061	0.329	0.083
-256.136	302.366	-0.170	-0.309
-255.122	225.451	-0.120	0.191
-254.107	219.392	0.019	-0.031
-253.092	-68.588	0.067	0.026
-252.078	800.000	0.031	-0.102
-251.063	800.000	-0.031	-0.085
-250.049	44.866	0.084	-0.076
-249.034	132.896	0.091	0.116
-248.019	193.576	0.218	-0.324
-247.005	-118.222	-0.371	0.065
-245.990	193.627	0.058	0.086
-244.976	800.000	-0.032	-0.125
-243.961	60.099	-0.196	-0.191
-242.946	-89.670	-0.115	0.033
-241.932	-200.000	0.054	0.263
-240.917	-40.544	0.200	0.102
-239.903	-200.000	-0.053	0.288
-238.888	-17.780	0.004	0.002
-237.873	-200.000	-0.041	-0.193
-236.859	-7.708	-0.161	0.107
-235.844	-141.075	0.216	-0.022
-234.830	-161.308	0.145	-0.007
-233.815	59.865	0.254	-0.247
-232.800	-175.538	0.192	0.005
-231.786	800.000	0.106	-0.317
-230.771	-9.200	0.076	0.050
-229.757	-83.709	0.220	0.069
-228.742	-43.931	-0.178	-0.088
-227.727	800.000	0.075	0.211
-226.713	281.428	-0.037	0.065
-225.698	108.139	0.158	-0.185
-224.684	-183.771	-0.165	-0.003
-223.669	280.713	0.074	0.130
-222.655	800.000	0.066	-0.180
-221.640	164.606	-0.183	-0.254
-220.625	-78.136	-0.338	0.114
-219.611	113.567	-0.126	0.151
-218.596	9.805	0.173	0.129
-217.582	-97.034	0.063	0.016
-216.567	-8.237	-0.146	0.096
-215.552	800.000	0.040	0.152
-214.538	217.339	0.131	-0.204
-213.523	-51.225	-0.159	-0.073
-212.509	-29.930	-0.165	-0.092
-211.494	24.625	-0.170	-0.138
-210.479	800.000	0.126	0.360
-209.465	8.217	-0.244	-0.180
-208.450	-200.000	-0.037	-0.172
-207.436	-56.625	0.066	0.029
-206.421	623.124	0.057	-0.141
-205.406	223.640	-0.099	-0.157
-204.392	-77.923	-0.264	0.089
-203.377	-195.854	0.179	-0.001
-202.363	-19.207	-0.118	0.072
-201.348	-49.085	0.203	0.095
-200.333	-49.871	-0.282	0.131
-199.319	-200.000	0.037	0.248
-198.304	-149.733	-0.153	-0.012
-197.290	-200.000	-0.002	0.147
-196.275	141.493	0.215	-0.279
-195.260	-42.717	-0.134	0.067
-194.246	800.000	0.027	0.104
-193.231	-158.094	-0.226	0.013
-192.217	-200.000	0.059	-0.308
-191.202	582.988	0.022	0.052
-190.187	49.344	0.150	0.139
-189.173	-23.668	-0.331	-0.195
-188.158	-12.531	0.139	0.089
-187.144	-92.484	0.373	0.103
-186.129	296.120	0.043	0.078
-185.114	-200.000	0.008	0.059
-184.100	-200.000	-0.044	-0.411
-183.085	-108.065	0.365	-0.078
-182.071	-130.917	0.280	0.037
-181.056	-110.174	-0.170	0.035
-180.042	-95.211	-0.184	0.049
-179.027	-200.000	-0.007	0.053
-178.012	-200.000	0.003	-0.310
-176.998	-156.632	0.244	0.015
-175.983	318.877	0.110	-0.204
-174.969	-31.440	0.463	0.255
-173.954	-33.414	0.069	0.038
-172.939	661.982	-0.081	0.205
-171.925	800.000	0.022	-0.062
-170.910	-52.563	-0.136	-0.061
-169.896	78.146	0.035	-0.037
-168.881	191.935	0.131	0.194
-167.866	118.196	-0.044	-0.054
-166.852	464.082	0.036	0.079
-165.837	-149.697	-0.236	0.018
-164.823	-200.000	0.015	0.247
-163.808	-64.528	0.207	0.083
-162.793	-16.066	0.043	0.027
-161.779	301.288	-0.048	0.087
-160.764	-200.000	-0.010	0.126
-159.750	-2.769	0.127	-0.087
-158.735	-79.533	-0.350	0.116
-157.720	-117.801	-0.048	0.009
-156.706	16.871	0.475	0.368
-155.691	-77.304	-0.320	-0.109
-154.677	800.000	0.106	0.332
-153.662	-23.145	-0.126	-0.074
-152.647	254.495	0.187	0.314
-151.633	-124.979	-0.214	-0.032
-150.618	-25.996	-0.487	0.281
-149.604	120.796	0.357	-0.435
-148.589	67.752	-0.091	-0.091
-147.574	-17.273	-0.043	-0.027
-146.560	-52.079	-0.130	-0.059
-145.545	11.064	0.216	-0.162
-144.531	-83.333	-0.078	0.024
-143.516	-170.511	-0.303	-0.010
-142.502	277.391	0.037	0.065
-141.487	-68.742	0.235	0.089
-140.472	-163.006	-0.406	-0.019
-139.458	-24.195	0.226	0.132
-138.443	-108.093	-0.253	0.054
-137.429	-107.825	0.080	0.017
-136.414	270.118	0.237	0.408
-135.399	-52.132	-0.095	0.043
-134.385	-200.000	-0.060	0.405
-133.370	-187.559	0.210	0.003
-132.356	-97.747	-0.251	0.064
-131.341	-155.406	-0.268	0.017
-130.326	215.579	0.105	0.163
-129.312	-36.257	0.031	-0.016
-128.297	-200.000	0.033	0.183
-127.283	-135.776	0.233	0.027
-126.268	34.876	0.165	-0.141
-125.253	137.123	-0.059	-0.076
-124.239	-100.566	0.256	-0.062
-123.224	65.699	-0.134	0.133
-122.210	-200.000	0.068	0.347
-121.195	800.000	-0.063	0.264
-120.180	-67.727	-0.114	0.044
-119.166	-200.000	0.002	0.234
-118.151	-200.000	0.033	-0.266
-117.137	-58.546	0.343	-0.146
-116.122	-110.176	0.316	-0.064
-115.107	339.219	0.036	-0.068
-114.093	-200.000	0.045	0.258
-113.078	-63.567	0.106	-0.043
-112.064	-44.259	-0.127	0.062
-111.049	-46.511	-0.182	0.087
-110.034	184.285	-0.156	-0.225
-109.020	-111.874	0.224	0.044
-108.005	277.959	-0.202	0.351
-106.991	-154.451	0.275	0.018
-105.976	198.679	-0.140	0.210
-104.962	96.309	0.112	-0.125
-103.947	184.758	0.238	-0.345
-102.932	-200.000	0.001	-0.045
-101.918	-119.022	0.213	0.036
-100.903	166.994	0.185	0.257
-99.889	-200.000	-0.037	0.181
-98.874	-150.922	0.166	0.012
-97.859	-200.000	0.021	-0.157
-96.845	-176.355	-0.236	0.006
-95.830	306.786	0.172	0.312
-94.816	-200.000	-0.011	0.302
-93.801	-117.085	0.074	0.013
-92.786	-157.109	0.076	-0.005
-91.772	-79.920	0.049	-0.016
-90.757	-33.749	0.207	0.112
-89.743	159.974	0.118	-0.161
-88.728	45.912	0.175	0.158
-87.713	-58.424	-0.198	0.084
-86.699	51.542	-0.172	-0.160
-85.684	-19.402	-0.166	-0.101
-84.670	493.273	-0.120	-0.268
-83.655	800.000	0.092	0.257
-82.640	-23.119	0.048	-0.028
-81.626	104.682	-0.108	0.124
-80.611	3.537	0.090	0.064
-79.597	-38.588	0.175	-0.090
-78.582	-200.000	0.005	0.059
-77.567	432.845	0.096	-0.204
-76.553	-142.101	0.181	0.018
-75.538	-200.000	-0.053	-0.267
-74.524	-76.884	0.398	-0.136
-73.509	-119.712	-0.086	0.014
-72.494	800.000	-0.010	0.044
-71.480	-200.000	-0.008	0.192
-70.465	800.000	-0.116	-0.361
-69.451	140.710	0.384	0.495
-68.436	-138.334	-0.409	-0.044
-67.422	348.246	0.136	0.262
-66.407	724.249	-0.131	-0.341
-65.392	-32.936	-0.213	0.115
-64.378	-200.000	-0.002	-0.059
-63.363	186.504	-0.213	-0.310
-62.349	-200.000	-0.040	-0.339
-61.334	25.689	-1.074	-0.873
-60.319	238.163	0.557	0.902
-59.305	536.087	-0.631	-1.461
-58.290	19.274	1.170	0.917
-57.276	206.027	1.036	1.573
-56.261	-200.000	126.942	666.533
-55.246	403.977	1610.889	3309.873
-54.232	137.485	2769.572	3536.678
-53.217	95.555	2166.703	2411.472
-52.203	34.429	1594.557	1358.149
-51.188	26.051	1337.670	1088.981
-50.173	23.542	1300.571	1043.990
-49.159	51.673	1371.300	1272.287
-48.144	48.235	1381.990	1261.373
-47.130	26.053	1329.704	1082.339
-46.115	22.961	1310.179	1048.095
-45.100	22.715	1305.017	1042.468
-44.086	22.652	1302.642	1040.157
-43.071	22.575	1300.051	1037.595
-42.057	22.646	1298.565	1036.784
-41.042	22.614	1296.699	1035.070
-40.027	22.776	1295.343	1034.894
-39.013	22.720	1293.099	1032.732
-37.998	22.657	1291.226	1030.825
-36.984	22.699	1290.073	1030.111
-35.969	22.643	1288.538	1028.516
-34.954	22.767	1286.177	1027.317
-33.940	22.770	1284.762	1026.160
-32.925	22.829	1283.339	1025.329
-31.911	22.802	1282.381	1024.364
-30.896	22.901	1280.910	1023.724
-29.881	22.768	1279.989	1022.176
-28.867	22.942	1278.000	1021.550
-27.852	22.879	1276.882	1020.255
-26.838	22.882	1275.422	1019.061
-25.823	22.909	1273.945	1017.999
-24.809	22.856	1273.032	1016.922
-23.794	22.744	1271.911	1015.342
-22.779	22.789	1270.555	1014.481
-21.765	22.816	1268.587	1013.024
-20.750	22.824	1267.496	1012.160
-19.736	22.782	1266.344	1010.957
-18.721	22.750	1265.285	1009.889
-17.706	22.741	1264.372	1009.065
-16.692	22.805	1262.748	1008.098
-15.677	22.662	1261.760	1006.450
-14.663	22.603	1260.841	1005.340
-13.648	22.693	1259.637	1004.855
-12.633	22.669	1258.878	1004.076
-11.619	22.656	1258.376	1003.559
-10.604	22.698	1257.154	1002.781
-9.590	22.705	1256.419	1002.196
-8.575	22.702	1255.142	1001.122
-7.560	22.634	1254.496	1000.182
-6.546	22.647	1253.223	999.200
-5.531	22.781	1252.565	999.392
-4.517	22.707	1252.034	998.512
-3.502	22.706	1251.006	997.650
-2.487	22.764	1249.830	996.999
-1.473	22.684	1245.839	993.325
-0.458	21.214	1231.122	973.365
0.556	16.357	1216.521	937.970
1.571	12.990	1224.510	925.197
2.586	12.430	1240.077	933.694
3.600	12.540	1227.765	924.960
4.615	9.187	1156.467	853.384
5.629	3.136	1085.536	770.724
6.644	0.316	1069.056	745.033
7.659	0.159	1067.062	742.803
8.673	0.108	1066.326	741.970
9.688	0.107	1064.928	740.929
10.702	0.385	1062.548	740.573
11.717	4.003	1066.413	761.010
12.731	11.046	1075.485	802.236
13.746	15.624	1081.707	829.448
14.761	16.865	1082.293	835.949
15.775	16.119	1080.774	831.025
16.790	15.186	1078.580	824.676
17.804	14.441	1077.309	819.967
18.819	14.144	1076.271	817.642
19.834	13.896	1075.512	815.779
20.848	13.714	1074.658	814.163
21.863	13.433	1073.748	812.026
22.877	13.264	1072.962	810.528
23.892	13.221	1072.176	809.655
24.907	13.273	1071.286	809.163
25.921	13.268	1071.174	808.986
26.936	13.243	1070.120	807.992
27.950	13.231	1069.162	807.141
28.965	13.464	1067.829	807.199
29.980	13.421	1066.295	805.760
30.994	13.489	1065.411	805.352
32.009	13.516	1064.272	804.551
33.023	13.353	1063.538	803.131
34.038	13.394	1062.522	802.492
35.053	13.380	1062.301	802.184
36.067	13.364	1061.186	801.195
37.082	13.276	1059.958	799.770
38.096	13.508	1059.178	800.237
39.111	13.374	1058.211	798.786
40.126	13.236	1057.241	797.318
41.140	13.194	1056.415	796.424
42.155	13.256	1055.182	795.722
43.169	13.196	1054.174	794.602
44.184	13.224	1053.153	793.895
45.199	13.325	1052.334	793.691
46.213	13.256	1050.883	792.199
47.228	13.353	1050.130	792.022
48.242	13.418	1048.812	791.273
49.257	13.265	1048.067	789.910
50.271	13.331	1047.071	789.402
51.286	13.345	1046.078	788.651
52.301	13.298	1045.346	787.803
53.315	13.314	1044.350	787.063
54.330	13.420	1043.254	786.671
55.344	13.257	1042.950	785.596
56.359	13.256	1041.505	784.431
57.374	13.292	1040.491	783.769
58.388	13.166	1039.721	782.524
59.403	13.117	1039.410	781.987
60.417	13.150	1038.279	781.226
61.432	13.197	1037.233	780.590
62.447	13.248	1036.313	780.072
63.461	13.148	1035.777	779.128
64.476	13.168	1034.554	778.232
65.490	13.149	1033.725	777.451
66.505	13.148	1033.365	777.105
67.520	13.202	1032.510	776.646
68.534	13.180	1031.866	775.989
69.549	13.159	1031.207	775.330
70.563	13.231	1029.761	774.508
71.578	13.205	1028.979	773.732
72.593	13.053	1028.900	772.890
73.607	13.068	1027.959	772.187
74.622	13.192	1026.896	771.898
75.636	13.170	1026.296	771.276
76.651	13.170	1025.663	770.732
77.666	13.101	1025.103	769.921
78.680	13.000	1024.523	768.949
79.695	13.219	1023.655	769.247
80.709	13.164	1022.947	768.394
81.724	13.213	1022.391	768.133
82.739	13.159	1021.812	767.379
83.753	13.262	1020.792	767.025
84.768	13.241	1020.188	766.407
85.782	13.257	1019.094	765.591
86.797	13.330	1017.965	765.013
87.812	13.367	1017.077	764.446
88.826	13.312	1016.234	763.493
89.841	13.279	1014.977	762.330
90.855	13.414	1014.220	762.314
91.870	13.360	1013.395	761.379
92.884	13.454	1012.515	761.082
93.899	13.397	1011.794	760.213
94.914	13.461	1011.098	759.916
95.928	13.510	1009.903	759.176
96.943	13.442	1008.822	757.981
97.957	13.480	1008.219	757.635
98.972	13.483	1007.442	757.001
99.987	13.526	1006.104	756.122
101.001	13.413	1005.572	755.141
102.016	13.473	1004.770	754.746
103.030	13.433	1003.766	753.740
104.045	13.465	1002.875	753.154
105.060	13.461	1001.717	752.196
106.074	13.386	1001.045	751.284
107.089	13.416	999.673	750.327
108.103	13.188	999.467	749.071
109.118	13.231	998.913	748.783
110.133	13.221	997.919	747.930
111.147	13.351	996.449	747.347
112.162	13.338	995.211	746.295
113.176	13.386	995.224	746.456
114.191	13.477	994.178	746.013
115.206	13.272	993.977	744.876
116.220	13.287	992.318	743.630
117.235	13.399	991.679	743.591
118.249	13.442	990.745	743.019
119.264	13.365	990.135	742.149
120.279	13.393	989.317	741.595
121.293	13.336	988.800	740.889
122.308	13.391	987.258	739.913
123.322	13.275	986.996	739.134
124.337	13.254	985.691	737.994
125.352	13.255	984.421	736.982
126.366	13.364	983.284	736.554
127.381	13.235	982.418	735.264
128.395	13.249	981.751	734.761
129.410	13.307	980.818	734.258
130.424	13.342	979.686	733.501
131.439	13.332	978.857	732.771
132.454	13.433	978.496	732.881
133.468	13.389	977.102	731.577
134.483	13.371	976.593	731.053
135.497	13.411	976.020	730.735
136.512	13.402	974.741	729.677
137.527	13.306	974.058	728.678
138.541	13.256	973.679	728.107
139.556	13.453	972.367	727.928
140.570	13.538	971.544	727.624
141.585	13.491	971.176	727.075
142.600	13.597	969.868	726.496
143.614	13.681	969.449	726.488
144.629	13.698	968.478	725.768
145.643	13.561	967.962	724.721
146.658	13.520	966.584	723.444
147.673	13.444	965.831	722.485
148.687	13.482	964.721	721.755
149.702	13.386	963.859	720.627
150.716	13.579	962.902	720.688
151.731	13.529	962.323	719.975
152.746	13.660	961.573	719.917
153.760	13.567	961.394	719.318
154.775	13.557	960.825	718.783
155.789	13.674	960.044	718.644
156.804	13.708	959.128	718.042
157.819	13.704	958.212	717.275
158.833	13.733	957.962	717.151
159.848	13.718	957.161	716.424
160.862	13.821	955.825	715.801
161.877	13.602	955.230	714.351
162.892	13.712	953.916	713.776
163.906	13.534	953.487	712.628
164.921	13.658	952.638	712.461
165.935	13.683	951.518	711.670
166.950	13.680	951.151	711.320
167.964	13.762	949.796	710.594
168.979	13.626	949.133	709.452
169.994	13.725	948.076	709.026
171.008	13.798	947.615	708.929
172.023	13.694	946.898	707.885
173.037	13.838	946.176	707.899
174.052	13.785	945.449	707.067
175.067	13.719	944.819	706.250
176.081	13.751	944.157	705.830
177.096	13.671	944.090	705.378
178.110	13.701	943.243	704.806
179.125	13.678	942.906	704.398
180.140	13.800	942.078	704.231
181.154	13.834	941.793	704.104
182.169	13.894	941.074	703.756
183.183	13.886	940.336	703.107
184.198	13.850	939.847	702.528
185.213	13.994	938.728	702.239
186.227	13.923	938.130	701.430
187.242	14.035	937.926	701.686
188.256	14.130	936.818	701.195
189.271	14.015	936.032	700.064
190.286	13.857	935.635	699.038
191.300	13.761	934.801	697.951
192.315	13.802	933.939	697.415
193.329	13.792	933.865	697.256
194.344	13.776	933.061	696.529
195.359	13.953	932.171	696.543
196.373	13.977	931.531	696.107
197.388	14.097	930.840	696.031
198.402	14.097	930.728	695.883
199.417	14.164	929.956	695.524
200.432	14.110	929.361	694.793
201.446	14.183	928.862	694.665
202.461	14.228	928.284	694.356
203.475	14.368	927.514	694.303
204.490	14.199	927.178	693.286
205.504	14.226	926.020	692.474
206.519	14.307	925.290	692.200
207.534	14.276	924.681	691.558
208.548	14.236	924.251	691.006
209.563	14.171	923.383	690.029
210.577	14.258	922.594	689.735
211.592	14.355	922.203	689.787
212.607	14.274	921.505	688.868
213.621	14.300	920.853	688.426
214.636	14.349	919.825	687.798
215.650	14.264	919.134	686.871
216.665	14.412	918.363	686.843
217.680	14.644	917.522	687.109
218.694	14.472	916.977	685.931
219.709	14.440	916.562	685.430
220.723	14.281	915.971	684.274
221.738	14.444	914.910	684.089
222.753	14.464	914.676	683.938
223.767	14.487	914.254	683.653
224.782	14.572	913.415	683.315
225.796	14.610	912.849	682.988
226.811	14.560	912.424	682.402
227.826	14.538	911.676	681.694
228.840	14.373	910.944	680.412
229.855	14.469	910.356	680.304
230.869	14.587	909.054	679.754
231.884	14.446	908.710	678.862
232.899	14.598	907.658	678.633
233.913	14.499	907.347	677.938
234.928	14.492	906.490	677.210
235.942	14.509	905.848	676.737
236.957	14.488	905.588	676.399
237.972	14.602	904.370	675.891
238.986	14.581	904.225	675.637
240.001	14.495	903.731	674.863
241.015	14.523	902.978	674.355
242.030	14.687	902.099	674.300
243.045	14.642	901.494	673.606
244.059	14.612	901.340	673.309
245.074	14.788	900.253	673.150
246.088	14.723	899.712	672.422
247.103	14.796	898.796	671.972
248.117	14.793	898.625	671.771
249.132	15.025	897.401	671.730
250.147	14.996	897.204	671.407
251.161	14.912	896.389	670.400
252.176	14.907	895.770	669.859
253.190	14.953	895.057	669.448
254.205	15.102	894.156	669.311
255.220	15.158	893.621	669.076
256.234	15.172	892.785	668.446
257.249	15.178	892.099	667.896
258.263	15.084	891.441	666.971
259.278	15.017	891.172	666.442
260.293	15.106	890.669	666.364
261.307	15.215	889.831	666.110
262.322	15.205	889.143	665.495
263.336	15.153	888.146	664.486
264.351	15.466	887.483	665.170
265.366	15.335	887.304	664.461
266.380	15.220	887.061	663.762
267.395	15.233	886.055	663.004
268.409	15.244	885.112	662.283
269.424	15.436	884.124	662.241
270.439	15.217	883.993	661.221
271.453	15.250	883.025	660.569
272.468	15.264	882.444	660.131
273.482	15.248	881.664	659.428
274.497	15.396	881.102	659.530
275.512	15.235	880.731	658.559
276.526	15.267	880.433	658.405
277.541	15.375	879.769	658.274
278.555	15.415	879.208	657.952
279.570	15.420	878.402	657.310
280.585	15.513	877.661	657.061
281.599	15.379	876.878	655.895
282.614	15.458	875.924	655.431
283.628	15.549	875.671	655.539
284.643	15.421	875.562	654.898
285.657	15.552	874.081	654.243
286.672	15.583	873.774	654.079
287.687	15.654	872.878	653.623
288.701	15.521	872.724	652.936
289.716	15.519	872.174	652.457
290.730	15.631	871.440	652.287
291.745	15.578	870.614	651.406
292.760	15.779	870.060	651.711
293.774	15.634	869.561	650.719
294.789	15.615	869.022	650.183
295.803	15.697	868.114	649.762
296.818	15.575	867.813	649.010
297.833	15.647	866.903	648.550
298.847	15.650	866.111	647.912
299.862	15.703	865.364	647.497
300.876	15.707	865.405	647.489
301.891	15.811	864.625	647.247
302.906	15.725	864.343	646.647
303.920	15.785	864.075	646.622
304.935	15.980	862.922	646.450
305.949	15.982	862.001	645.710
306.964	15.804	862.156	645.087
307.979	15.830	861.117	644.351
308.993	15.855	860.633	644.027
310.008	15.916	860.072	643.785
311.022	15.929	859.640	643.453
312.037	15.915	858.755	642.680
313.052	15.899	858.328	642.242
314.066	15.934	857.704	641.852
315.081	15.906	857.183	641.298
316.095	15.896	856.572	640.749
317.110	15.944	855.951	640.410
318.125	15.989	855.317	640.049
319.139	15.953	854.880	639.528
320.154	15.871	854.816	639.113
321.168	16.029	853.964	639.019
322.183	15.949	853.407	638.243
323.197	15.974	853.063	638.025
324.212	16.133	852.298	637.994
325.227	16.042	851.616	637.084
326.241	16.133	850.892	636.832
327.256	16.107	850.438	636.337
328.270	15.867	850.432	635.369
329.285	16.064	849.508	635.366
330.300	15.884	849.064	634.300
331.314	16.094	848.340	634.494
332.329	16.172	847.874	634.383
333.343	16.060	847.517	633.637
334.358	16.210	847.153	633.873
335.373	16.116	846.715	633.135
336.387	16.194	846.387	633.127
337.402	16.243	846.041	632.996
338.416	16.110	846.060	632.454
339.431	16.247	845.493	632.488
340.446	16.410	844.809	632.531
341.460	16.450	844.537	632.420
342.475	16.441	844.278	632.137
343.489	16.426	843.780	631.654
344.504	16.457	843.386	631.420
345.519	16.570	842.498	631.120
346.533	16.456	841.994	630.259
347.548	16.503	841.374	629.917
348.562	16.310	841.686	629.374
349.577	16.557	840.499	629.350
350.592	16.503	839.990	628.713
351.606	16.436	839.107	627.747
352.621	16.441	838.401	627.182
353.635	16.534	837.881	627.084
354.650	16.479	837.362	626.436
355.665	16.542	836.606	626.047
356.679	16.589	835.949	625.673
357.694	16.477	835.802	625.096
358.708	16.641	834.947	625.005
359.723	16.540	834.167	623.992
360.738	16.604	833.767	623.874
361.752	16.618	833.042	623.328
362.767	16.672	832.430	623.013
363.781	16.521	832.482	622.442
364.796	16.647	831.518	622.132
365.810	16.828	831.349	622.612
366.825	16.825	830.881	622.196
367.840	16.757	830.633	621.707
368.854	16.754	830.114	621.252
369.869	16.913	829.390	621.239
370.883	16.842	829.030	620.653
371.898	16.825	828.445	620.098
372.913	16.960	828.065	620.253
373.927	16.946	827.799	619.949
374.942	16.993	827.148	619.577
375.956	17.091	826.514	619.405
376.971	17.023	826.164	618.840
377.986	17.098	825.696	618.706
379.000	17.156	825.168	618.470
380.015	17.116	824.984	618.131
381.029	17.043	824.189	617.213
382.044	17.124	823.631	617.035
383.059	17.029	823.509	616.544
384.073	17.087	822.749	616.131
385.088	16.988	822.105	615.236
386.102	17.111	821.120	614.890
387.117	17.159	820.693	614.688
388.132	17.117	820.179	614.097
389.146	17.083	819.731	613.585
390.161	17.139	819.667	613.684
391.175	17.208	818.894	613.301
392.190	17.287	818.080	612.923
393.205	17.140	818.266	612.477
394.219	17.193	817.558	612.084
395.234	17.082	817.611	611.671
396.248	17.152	816.715	611.198
397.263	17.112	816.276	610.671
398.278	17.181	815.729	610.457
399.292	17.099	815.550	609.973
400.307	17.034	815.338	609.526
401.321	17.125	814.601	609.250
402.336	17.323	813.804	609.307
403.350	17.271	813.557	608.882
404.365	17.425	812.820	608.829
405.380	17.462	812.324	608.535
406.394	17.443	812.041	608.202
407.409	17.398	811.709	607.740
408.423	17.314	811.750	607.417
409.438	17.468	811.269	607.551
410.453	17.418	810.795	606.966
411.467	17.443	810.286	606.618
412.482	17.475	809.685	606.231
413.496	17.476	809.645	606.150
414.511	17.530	809.322	606.047
415.526	17.710	808.697	606.164
416.540	17.568	808.386	605.373
417.555	17.509	807.795	604.669
418.569	17.642	807.489	604.858
419.584	17.737	806.580	604.460
420.599	17.740	806.239	604.160
421.613	114.278	1299.424	1489.370
422.628	98.700	1371.234	1489.439
