DTS Sentinel unit serial number:	SN413079Multiplexer serial number:	ORYXHardware model number:	OX4-SRSoftware version number:	ORYX F/W v4.00 Oryx Data Collector v3.7.2.0data status	okinstallation	princeton_trtdifferential loss correction	single-endedforward channel	channel 1reverse channel	N/Adate	2019/09/14time	10:18:35forward acquisition time	60.00reverse acquisition time	0.00gamma	496.2192k internal	0.2309k external	0.2309temperature offset calibration	1.0069default loss term (dB/km)	0.3790temperature slope calibration	1.0000multiplexer offset coefficient	1.0000multiplexer slope coefficient	1.0000fibre end	0.00T internal ref (°C)	34.12T ext. ref 1 (°C)	4.11T ext. ref 2 (°C)	32.92length (m)	temperature (°C)	Stokes	anti-Stokes-747.200	800.000	0.070	0.246
-746.185	-200.000	-0.052	0.339
-745.171	-200.000	0.024	0.196
-744.156	-200.000	-0.046	0.299
-743.142	148.934	0.089	-0.122
-742.127	-82.278	0.478	0.158
-741.112	800.000	0.055	0.202
-740.098	800.000	-0.085	0.268
-739.083	-14.224	0.105	-0.069
-738.069	-200.000	-0.033	0.235
-737.054	-70.544	-0.220	0.085
-736.039	-125.453	-0.180	-0.028
-735.025	-50.149	-0.194	0.093
-734.010	-200.000	-0.016	0.174
-732.996	-200.000	-0.052	-0.353
-731.981	-90.324	0.285	-0.084
-730.966	800.000	0.047	-0.172
-729.952	162.077	-0.159	-0.227
-728.937	-41.769	-0.215	0.112
-727.923	800.000	-0.108	-0.374
-726.908	108.679	-0.116	-0.141
-725.894	-200.000	-0.038	-0.200
-724.879	-200.000	-0.061	-0.283
-723.864	10.949	0.118	0.091
-722.850	-25.424	-0.063	-0.038
-721.835	-133.971	-0.188	0.024
-720.821	-99.214	0.149	0.038
-719.806	-66.633	-0.048	-0.019
-718.791	800.000	-0.052	-0.216
-717.777	103.276	0.093	-0.111
-716.762	28.286	-0.234	0.201
-715.748	-200.000	0.048	0.226
-714.733	683.541	-0.209	-0.555
-713.718	159.125	0.084	-0.118
-712.704	-74.753	0.394	0.144
-711.689	248.061	-0.236	-0.404
-710.675	-143.236	0.145	0.014
-709.660	800.000	0.073	0.260
-708.645	-18.404	-0.137	-0.087
-707.631	77.808	-0.040	-0.044
-706.616	-164.585	0.296	-0.014
-705.602	-43.549	0.347	-0.177
-704.587	-113.958	-0.257	0.051
-703.572	-141.917	-0.276	0.028
-702.558	559.151	-0.050	-0.123
-701.543	11.553	-0.240	-0.187
-700.529	26.298	0.258	-0.219
-699.514	58.484	-0.245	0.244
-698.499	-77.533	0.409	-0.144
-697.485	800.000	0.045	-0.130
-696.470	-92.940	0.189	0.053
-695.456	-193.365	0.232	-0.002
-694.441	651.090	-0.091	0.236
-693.426	69.698	-0.054	0.057
-692.412	-114.159	-0.261	0.051
-691.397	-80.509	0.284	-0.096
-690.383	116.251	0.150	0.187
-689.368	-34.722	0.396	0.219
-688.354	264.932	0.105	0.185
-687.339	369.840	-0.104	-0.214
-686.324	-116.500	0.057	-0.011
-685.310	800.000	0.032	-0.106
-684.295	-200.000	0.067	-0.306
-683.281	-51.894	-0.097	-0.046
-682.266	-200.000	0.023	-0.179
-681.251	-15.513	-0.094	-0.061
-680.237	-152.265	-0.165	0.012
-679.222	-164.076	-0.287	-0.013
-678.208	-200.000	-0.032	-0.152
-677.193	642.195	-0.070	-0.182
-676.178	191.439	0.102	0.155
-675.164	-200.000	-0.065	-0.350
-674.149	-21.141	0.285	0.177
-673.135	59.560	0.087	-0.087
-672.120	-135.527	0.363	0.044
-671.105	149.199	-0.081	0.110
-670.091	10.504	-0.165	-0.127
-669.076	399.776	-0.140	0.298
-668.062	216.861	0.334	-0.539
-667.047	-189.223	-0.085	-0.001
-666.032	36.674	0.112	0.100
-665.018	-41.390	-0.160	0.083
-664.003	800.000	-0.083	-0.253
-662.989	800.000	0.082	0.321
-661.974	-200.000	-0.019	-0.256
-660.959	-1.794	-0.112	-0.080
-659.945	-78.923	-0.273	0.094
-658.930	-17.135	0.149	-0.095
-657.916	-68.974	-0.179	-0.070
-656.901	100.427	0.083	0.097
-655.886	421.340	0.089	-0.193
-654.872	-200.000	-0.039	-0.334
-653.857	-34.344	-0.060	-0.034
-652.843	35.138	-0.123	-0.110
-651.828	-200.000	-0.001	-0.161
-650.814	-114.111	0.371	0.073
-649.799	59.991	-0.198	-0.198
-648.784	-77.035	-0.089	-0.031
-647.770	-125.195	0.487	0.075
-646.755	-131.813	0.150	-0.020
-645.741	800.000	0.061	0.221
-644.726	-200.000	0.004	0.024
-643.711	-63.051	0.068	0.028
-642.697	-97.269	-0.214	-0.057
-641.682	-61.781	-0.298	0.126
-640.668	377.697	-0.053	0.110
-639.653	-171.022	0.212	0.007
-638.638	-100.665	0.223	-0.056
-637.624	414.411	0.039	-0.084
-636.609	800.000	-0.010	-0.034
-635.595	-63.708	0.202	-0.084
-634.580	-200.000	-0.017	-0.138
-633.565	-200.000	0.044	0.242
-632.551	275.744	-0.148	0.266
-631.536	-200.000	0.276	-0.000
-630.522	173.497	-0.118	0.173
-629.507	-100.087	-0.177	-0.044
-628.492	-15.195	-0.231	0.150
-627.478	800.000	0.013	0.036
-626.463	129.564	-0.172	-0.222
-625.449	-200.000	0.043	-0.342
-624.434	341.868	-0.048	0.095
-623.419	60.956	0.155	0.156
-622.405	100.897	-0.121	-0.142
-621.390	-200.000	0.020	-0.181
-620.376	-24.686	0.212	0.128
-619.361	-113.687	0.096	-0.019
-618.346	86.193	-0.173	0.193
-617.332	-71.808	0.209	-0.079
-616.317	396.750	-0.065	0.136
-615.303	-197.897	-0.287	-0.002
-614.288	171.850	0.010	-0.014
-613.273	65.749	0.299	-0.306
-612.259	-54.646	-0.107	-0.049
-611.244	54.409	-0.145	-0.141
-610.230	-82.454	0.202	-0.066
-609.215	-33.178	-0.299	0.167
-608.201	-108.085	0.208	-0.046
-607.186	800.000	-0.120	-0.426
-606.171	376.228	-0.099	-0.203
-605.157	761.794	0.094	0.259
-604.142	-200.000	-0.032	0.308
-603.128	757.432	-0.130	-0.356
-602.113	-31.437	-0.108	0.061
-601.098	73.970	-0.043	-0.045
-600.084	-200.000	-0.023	0.192
-599.069	145.580	0.045	0.061
-598.055	-200.000	-0.057	-0.310
-597.040	-161.807	0.291	-0.015
-596.025	410.214	0.135	0.289
-595.011	-158.991	-0.128	0.007
-593.996	-200.000	-0.015	0.087
-592.982	-55.316	0.136	0.062
-591.967	800.000	-0.042	0.132
-590.952	-143.911	-0.031	-0.003
-589.938	800.000	0.108	-0.318
-588.923	628.329	0.096	0.246
-587.909	800.000	0.010	-0.035
-586.894	66.511	0.098	0.101
-585.879	800.000	0.026	-0.105
-584.865	403.587	-0.082	-0.173
-583.850	189.218	0.286	0.433
-582.836	300.058	-0.059	0.109
-581.821	800.000	0.012	0.034
-580.806	-95.716	0.038	0.010
-579.792	-1.864	-0.287	-0.204
-578.777	61.304	-0.149	-0.149
-577.763	18.235	0.260	-0.210
-576.748	-189.170	-0.090	0.001
-575.733	83.529	-0.077	-0.085
-574.719	-89.549	0.085	-0.025
-573.704	-58.927	-0.097	-0.042
-572.690	-149.464	0.314	0.025
-571.675	25.897	-0.099	0.083
-570.661	140.815	-0.146	0.194
-569.646	-200.000	0.006	-0.130
-568.631	28.178	-0.100	-0.085
-567.617	-116.143	-0.394	0.074
-566.602	-200.000	-0.007	-0.032
-565.588	155.167	0.055	-0.076
-564.573	-200.000	0.017	0.083
-563.558	326.024	0.114	-0.220
-562.544	-76.066	-0.234	0.083
-561.529	-3.457	0.170	-0.119
-560.515	-155.386	0.098	0.006
-559.500	800.000	0.043	-0.133
-558.485	800.000	0.064	0.204
-557.471	-91.591	0.400	0.115
-556.456	-158.224	-0.283	0.017
-555.442	647.462	-0.008	-0.020
-554.427	-73.006	0.302	0.112
-553.412	-200.000	0.018	0.223
-552.398	-137.174	-0.230	-0.026
-551.383	-200.000	0.007	-0.157
-550.369	74.626	-0.175	0.186
-549.354	173.407	0.152	0.222
-548.339	-133.125	0.085	-0.011
-547.325	186.807	-0.110	0.165
-546.310	-28.790	0.196	-0.114
-545.296	24.406	-0.319	-0.266
-544.281	800.000	0.105	0.331
-543.266	110.380	-0.197	0.239
-542.252	-200.000	-0.027	-0.227
-541.237	56.753	0.202	0.199
-540.223	11.484	-0.121	-0.093
-539.208	-200.000	-0.041	0.210
-538.193	-87.883	0.372	0.113
-537.179	34.457	-0.015	-0.013
-536.164	-5.466	0.130	-0.090
-535.150	110.889	-0.175	-0.212
-534.135	296.377	0.098	0.182
-533.121	130.326	0.079	0.102
-532.106	476.340	0.044	-0.101
-531.091	-200.000	-0.051	0.382
-530.077	-5.996	-0.197	-0.136
-529.062	-200.000	0.047	0.261
-528.048	154.166	-0.144	0.198
-527.033	348.652	0.129	-0.256
-526.018	-200.000	0.006	0.172
-525.004	186.206	-0.140	-0.210
-523.989	-200.000	-0.040	-0.312
-522.975	-75.155	0.402	-0.145
-521.960	-81.349	0.228	0.076
-520.945	572.329	-0.097	-0.238
-519.931	-140.544	0.417	-0.044
-518.916	223.239	-0.105	0.170
-517.902	-57.750	-0.043	0.019
-516.887	-60.685	0.174	0.074
-515.872	-200.000	0.040	0.226
-514.858	342.329	0.238	0.469
-513.843	309.469	-0.067	0.125
-512.829	61.171	-0.173	-0.173
-511.814	-45.274	0.113	0.056
-510.799	205.552	0.077	0.121
-509.785	-51.017	-0.165	0.078
-508.770	-149.397	0.261	-0.021
-507.756	800.000	-0.080	0.282
-506.741	-9.124	0.013	0.009
-505.726	63.754	-0.227	-0.230
-504.712	-200.000	0.053	-0.270
-503.697	108.711	-0.112	-0.135
-502.683	-200.000	-0.013	-0.184
-501.668	493.275	-0.057	-0.131
-500.653	-126.897	-0.080	-0.012
-499.639	-88.373	0.229	0.069
-498.624	-138.050	0.329	0.037
-497.610	-200.000	-0.011	-0.094
-496.595	78.347	0.154	-0.166
-495.581	56.630	-0.158	0.155
-494.566	-109.677	0.105	-0.022
-493.551	-71.339	-0.313	0.118
-492.537	-64.346	-0.070	0.029
-491.522	216.701	0.134	-0.215
-490.508	112.651	-0.089	-0.108
-489.493	62.639	-0.281	0.282
-488.478	-13.227	-0.260	0.170
-487.464	-93.824	0.165	-0.046
-486.449	-70.056	-0.379	-0.145
-485.435	-177.134	-0.259	-0.006
-484.420	-200.000	-0.040	-0.177
-483.405	800.000	-0.031	-0.132
-482.391	-176.540	-0.367	0.010
-481.376	466.387	0.102	-0.230
-480.362	-103.399	0.105	-0.025
-479.347	-10.800	-0.259	0.172
-478.332	113.673	0.190	0.232
-477.318	112.064	0.171	-0.208
-476.303	-200.000	0.015	-0.104
-475.289	466.141	-0.131	0.295
-474.274	-108.531	-0.021	-0.005
-473.259	231.320	-0.120	-0.198
-472.245	54.145	0.120	-0.116
-471.230	-41.655	0.216	-0.112
-470.216	-91.307	-0.218	-0.063
-469.201	-200.000	0.008	0.130
-468.186	239.108	0.075	0.125
-467.172	800.000	-0.127	-0.372
-466.157	-17.823	-0.142	0.089
-465.143	-200.000	0.064	0.367
-464.128	-200.000	0.009	0.184
-463.113	-86.056	-0.162	-0.050
-462.099	-200.000	-0.046	-0.251
-461.084	800.000	0.101	0.308
-460.070	-200.000	0.013	-0.212
-459.055	-200.000	0.015	0.403
-458.040	-46.020	0.169	-0.084
-457.026	178.737	0.183	-0.269
-456.011	-200.000	0.049	-0.269
-454.997	-27.173	-0.145	-0.085
-453.982	36.886	0.108	-0.096
-452.968	-200.000	0.035	0.461
-451.953	800.000	-0.050	0.214
-450.938	-200.000	0.004	0.396
-449.924	-200.000	0.009	0.227
-448.909	17.249	0.201	0.160
-447.895	192.544	-0.210	0.318
-446.880	-200.000	-0.052	-0.294
-445.865	42.083	0.158	0.144
-444.851	91.101	-0.231	-0.260
-443.836	800.000	-0.061	-0.182
-442.822	170.754	0.046	-0.067
-441.807	123.439	0.192	0.241
-440.792	513.811	0.061	0.142
-439.778	-86.892	0.322	0.099
-438.763	800.000	0.039	-0.113
-437.749	800.000	-0.072	-0.279
-436.734	-200.000	-0.016	0.214
-435.719	-200.000	0.049	0.410
-434.705	137.888	-0.027	0.036
-433.690	-137.584	-0.186	-0.021
-432.676	325.737	-0.139	-0.266
-431.661	800.000	0.015	-0.058
-430.646	110.237	-0.272	-0.328
-429.632	-10.386	-0.118	0.079
-428.617	800.000	0.029	-0.107
-427.603	-79.160	-0.235	0.080
-426.588	39.601	0.124	-0.112
-425.573	10.882	0.221	0.170
-424.559	800.000	-0.086	0.365
-423.544	-200.000	0.025	0.264
-422.530	-10.241	-0.042	-0.028
-421.515	-68.478	0.115	0.045
-420.500	-6.732	-0.187	-0.128
-419.486	70.757	-0.098	0.102
-418.471	-14.094	0.308	-0.199
-417.457	-97.014	0.202	0.053
-416.442	392.221	-0.011	0.023
-415.428	125.861	0.136	-0.173
-414.413	-118.686	-0.022	0.004
-413.398	800.000	-0.033	-0.103
-412.384	-101.655	-0.138	-0.034
-411.369	-86.467	-0.042	0.013
-410.355	-200.000	-0.054	-0.248
-409.340	-69.652	-0.303	-0.116
-408.325	126.916	0.009	-0.011
-407.311	-73.802	-0.190	-0.069
-406.296	105.273	-0.143	-0.169
-405.282	391.067	0.197	-0.410
-404.267	800.000	-0.014	0.055
-403.252	211.924	-0.124	-0.195
-402.238	718.558	-0.059	0.156
-401.223	-70.702	0.122	0.046
-400.209	541.318	-0.098	-0.233
-399.194	-11.386	-0.225	0.148
-398.179	-117.229	0.068	-0.012
-397.165	36.660	-0.133	-0.118
-396.150	-169.674	0.073	-0.003
-395.136	79.433	-0.010	-0.011
-394.121	690.009	0.071	-0.185
-393.106	-196.757	-0.243	-0.002
-392.092	-43.437	-0.211	-0.107
-391.077	-33.218	0.128	0.071
-390.063	-200.000	-0.023	0.103
-389.048	-49.973	0.168	0.080
-388.033	99.872	0.072	-0.084
-387.019	-28.044	0.272	0.158
-386.004	-42.815	-0.307	-0.156
-384.990	-8.390	-0.175	-0.118
-383.975	-39.348	-0.165	-0.087
-382.960	-162.627	-0.271	-0.013
-381.946	800.000	-0.050	0.193
-380.931	33.889	0.094	0.082
-379.917	717.044	-0.075	-0.199
-378.902	-101.247	-0.122	-0.030
-377.888	94.766	-0.210	0.239
-376.873	336.974	-0.039	0.076
-375.858	-117.693	-0.272	0.049
-374.844	496.185	-0.103	0.238
-373.829	-169.737	-0.073	-0.003
-372.815	-4.322	-0.144	-0.100
-371.800	372.462	0.095	0.193
-370.785	373.263	0.111	-0.226
-369.771	-200.000	0.006	-0.183
-368.756	-200.000	-0.040	-0.705
-367.742	800.000	-0.094	-0.312
-366.727	796.397	-0.142	0.392
-365.712	-132.259	0.151	-0.020
-364.698	17.434	-0.110	-0.088
-363.683	194.351	-0.115	-0.174
-362.669	-112.992	-0.107	-0.021
-361.654	-4.375	-0.115	-0.079
-360.639	166.661	0.170	0.241
-359.625	40.858	-0.037	0.033
-358.610	-200.000	-0.049	0.234
-357.596	-57.933	0.259	-0.113
-356.581	-37.644	0.165	0.088
-355.566	-200.000	0.109	-0.503
-354.552	51.503	-0.187	-0.178
-353.537	-76.637	0.334	0.117
-352.523	-73.288	0.242	-0.088
-351.508	157.364	-0.170	0.235
-350.493	800.000	-0.040	0.144
-349.479	-12.346	-0.098	0.064
-348.464	800.000	-0.009	-0.030
-347.450	-125.481	-0.270	0.041
-346.435	202.973	-0.068	0.105
-345.420	-182.674	-0.063	-0.001
-344.406	-118.721	-0.331	0.058
-343.391	39.095	0.204	-0.182
-342.377	-114.571	0.336	-0.064
-341.362	-2.554	-0.176	0.123
-340.348	185.157	-0.103	0.153
-339.333	113.263	0.210	0.255
-338.318	-62.953	0.590	-0.244
-337.304	-89.184	-0.176	-0.052
-336.289	120.111	-0.040	-0.050
-335.275	626.834	0.077	0.195
-334.260	11.905	0.032	0.024
-333.245	122.339	0.122	-0.153
-332.231	-104.853	0.328	-0.075
-331.216	105.983	-0.176	-0.208
-330.202	-39.874	0.312	0.163
-329.187	-200.000	-0.030	0.160
-328.172	-172.218	-0.291	-0.009
-327.158	800.000	0.018	-0.079
-326.143	-53.562	-0.257	0.118
-325.129	110.944	0.099	-0.119
-324.114	-35.587	-0.090	0.049
-323.099	-176.350	-0.173	0.004
-322.085	79.628	-0.042	0.045
-321.070	-40.821	0.196	0.101
-320.056	-103.525	-0.030	0.007
-319.041	41.894	0.131	0.118
-318.026	-163.255	0.266	-0.013
-317.012	-43.080	-0.136	-0.069
-315.997	-60.508	-0.161	-0.068
-314.983	236.732	-0.092	-0.153
-313.968	286.509	0.143	0.259
-312.953	-69.197	-0.144	-0.055
-311.939	-200.000	-0.077	-0.373
-310.924	73.897	-0.201	0.211
-309.910	-42.288	-0.153	-0.078
-308.895	-90.395	-0.023	-0.007
-307.880	800.000	0.109	-0.382
-306.866	-167.721	-0.247	-0.010
-305.851	360.748	-0.100	-0.201
-304.837	34.101	-0.214	0.187
-303.822	-132.613	0.181	-0.023
-302.807	800.000	-0.014	0.051
-301.793	-126.005	0.113	-0.017
-300.778	422.521	0.142	-0.303
-299.764	-84.868	-0.159	0.050
-298.749	291.646	0.199	0.362
-297.735	-43.230	0.203	0.103
-296.720	-200.000	0.035	-0.374
-295.705	400.263	0.219	-0.458
-294.691	6.667	0.115	-0.086
-293.676	-103.277	-0.545	-0.128
-292.662	726.336	0.042	-0.111
-291.647	-169.731	0.460	-0.017
-290.632	11.759	-0.114	0.088
-289.618	800.000	-0.011	0.039
-288.603	800.000	-0.095	0.337
-287.589	359.153	-0.144	-0.287
-286.574	196.735	0.052	-0.078
-285.559	-7.440	0.191	0.129
-284.545	446.027	0.078	0.170
-283.530	-92.750	-0.098	-0.027
-282.516	527.494	-0.147	0.346
-281.501	-200.000	0.032	-0.284
-280.486	-58.645	0.335	0.145
-279.472	331.864	-0.223	0.429
-278.457	-200.000	0.074	0.391
-277.443	647.869	-0.068	0.174
-276.428	-107.757	0.220	0.048
-275.413	-55.445	-0.042	0.019
-274.399	-200.000	-0.019	-0.182
-273.384	-116.057	0.129	-0.024
-272.370	93.335	-0.088	-0.099
-271.355	241.632	-0.160	0.266
-270.340	-70.879	0.145	0.055
-269.326	239.540	-0.171	0.284
-268.311	-200.000	-0.033	-0.145
-267.297	285.467	0.051	0.092
-266.282	195.500	-0.062	-0.094
-265.267	73.467	-0.068	-0.071
-264.253	-200.000	0.027	0.199
-263.238	-37.909	0.514	0.272
-262.224	-200.000	-0.014	-0.126
-261.209	-200.000	-0.030	-0.275
-260.195	-66.022	0.477	-0.190
-259.180	-3.554	0.105	0.073
-258.165	175.012	-0.218	0.315
-257.151	104.651	-0.087	0.102
-256.136	-172.623	0.219	0.007
-255.122	-66.002	0.142	-0.057
-254.107	280.940	-0.119	-0.212
-253.092	74.674	-0.081	0.084
-252.078	415.665	0.014	-0.029
-251.063	800.000	-0.084	-0.360
-250.049	-70.268	-0.226	-0.085
-249.034	192.930	0.022	-0.034
-248.019	100.448	0.083	-0.096
-247.005	-200.000	0.010	-0.051
-245.990	-200.000	-0.011	-0.230
-244.976	-152.720	-0.113	0.008
-243.961	800.000	0.113	0.358
-242.946	-65.345	0.205	0.082
-241.932	-200.000	-0.025	0.245
-240.917	369.185	0.112	-0.226
-239.903	16.642	-0.148	0.117
-238.888	-119.218	0.141	0.025
-237.873	-71.802	0.266	0.099
-236.859	-144.276	0.190	0.018
-235.844	-57.833	0.176	-0.077
-234.830	-200.000	0.031	-0.305
-233.815	-200.000	0.068	0.350
-232.800	-96.854	-0.360	0.094
-231.786	-77.018	0.116	-0.040
-230.771	-104.182	0.424	-0.098
-229.757	800.000	0.047	0.150
-228.742	-125.171	-0.365	-0.056
-227.727	179.358	0.098	0.143
-226.713	724.540	0.189	-0.502
-225.698	-72.168	-0.251	-0.093
-224.684	-156.425	-0.172	0.011
-223.669	185.414	-0.216	-0.319
-222.655	-120.866	-0.216	0.036
-221.640	-34.612	0.405	-0.221
-220.625	174.146	0.145	0.209
-219.611	-160.461	-0.272	-0.015
-218.596	298.084	-0.138	0.252
-217.582	26.898	0.425	-0.355
-216.567	289.488	-0.110	0.199
-215.552	-200.000	-0.048	0.384
-214.538	349.316	0.134	0.263
-213.523	800.000	-0.038	-0.120
-212.509	800.000	-0.097	-0.314
-211.494	56.343	0.293	-0.283
-210.479	7.523	0.068	-0.050
-209.465	162.199	-0.193	-0.269
-208.450	-16.224	-0.238	0.151
-207.436	800.000	-0.025	-0.072
-206.421	103.361	-0.085	-0.100
-205.406	-154.149	0.327	0.022
-204.392	33.841	-0.151	0.131
-203.377	58.636	0.144	0.140
-202.363	141.071	0.253	-0.333
-201.348	800.000	0.006	-0.023
-200.333	577.755	0.092	0.223
-199.319	-200.000	0.014	0.258
-198.304	-124.366	-0.250	0.039
-197.290	424.559	-0.107	-0.229
-196.275	-200.000	0.001	-0.067
-195.260	-51.289	-0.127	0.059
-194.246	10.961	-0.330	0.251
-193.231	800.000	0.017	0.072
-192.217	72.345	-0.194	0.201
-191.202	-78.005	0.213	0.073
-190.187	335.641	0.070	-0.135
-189.173	-200.000	0.027	-0.217
-188.158	-87.725	-0.386	-0.116
-187.144	-200.000	0.019	-0.237
-186.129	80.304	0.156	0.167
-185.114	-123.916	-0.195	0.031
-184.100	59.278	-0.041	-0.040
-183.085	-200.000	-0.060	0.313
-182.071	63.505	0.127	0.127
-181.056	800.000	0.042	-0.121
-180.042	-85.312	0.379	-0.118
-179.027	-200.000	-0.031	-0.191
-178.012	800.000	0.014	-0.052
-176.998	22.220	0.226	-0.183
-175.983	53.529	-0.203	-0.194
-174.969	-200.000	0.008	0.251
-173.954	179.021	0.098	0.142
-172.939	-85.372	-0.479	0.148
-171.925	800.000	0.157	0.440
-170.910	-200.000	-0.004	0.087
-169.896	-185.292	0.330	0.005
-168.881	-29.123	0.168	-0.096
-167.866	-48.200	0.214	0.102
-166.852	287.284	0.060	-0.108
-165.837	535.549	-0.038	-0.089
-164.823	57.621	-0.003	-0.003
-163.808	686.267	-0.059	0.154
-162.793	-200.000	0.002	0.267
-161.779	-154.964	0.297	-0.019
-160.764	577.438	-0.117	-0.283
-159.750	91.207	0.133	-0.148
-158.735	177.665	-0.179	0.259
-157.720	-200.000	-0.079	-0.636
-156.706	-170.604	0.475	0.016
-155.691	52.587	0.187	0.178
-154.677	-200.000	-0.014	0.238
-153.662	-20.325	-0.200	-0.122
-152.647	7.919	-0.187	0.139
-151.633	-92.072	-0.218	-0.061
-150.618	48.899	0.139	-0.130
-149.604	-138.256	0.200	0.022
-148.589	800.000	0.160	-0.460
-147.574	-54.104	0.179	0.081
-146.560	-200.000	-0.034	-0.189
-145.545	-200.000	-0.085	-0.386
-144.531	-126.646	-0.166	-0.024
-143.516	800.000	-0.035	-0.100
-142.502	-187.651	0.110	-0.001
-141.487	-200.000	-0.031	0.292
-140.472	-39.081	-0.311	0.162
-139.458	25.352	-0.146	-0.121
-138.443	484.031	0.032	-0.072
-137.429	-117.035	-0.145	-0.026
-136.414	-84.581	0.134	-0.042
-135.399	-200.000	0.005	-0.100
-134.385	-200.000	0.008	0.197
-133.370	-67.685	-0.260	-0.101
-132.356	-118.999	0.141	-0.024
-131.341	304.779	-0.078	-0.145
-130.326	-53.929	0.105	0.048
-129.312	31.932	0.140	-0.120
-128.297	-56.652	0.237	-0.104
-127.283	-65.343	-0.264	-0.105
-126.268	79.911	-0.097	0.103
-125.253	217.807	-0.240	0.380
-124.239	800.000	-0.052	-0.176
-123.224	244.813	0.189	0.316
-122.210	-6.378	-0.274	0.186
-121.195	548.226	0.122	-0.290
-120.180	-200.000	-0.057	0.340
-119.166	800.000	0.101	0.287
-118.151	-200.000	0.012	-0.187
-117.137	-51.288	-0.201	0.093
-116.122	-87.176	0.114	-0.034
-115.107	800.000	0.092	-0.301
-114.093	800.000	0.009	-0.036
-113.078	279.480	-0.250	0.442
-112.064	57.034	-0.335	-0.323
-111.049	15.845	0.177	-0.138
-110.034	539.229	0.094	0.221
-109.020	-47.326	-0.146	0.070
-108.005	98.249	-0.132	0.151
-106.991	274.310	0.021	0.037
-105.976	651.684	0.077	0.194
-104.962	37.399	-0.331	-0.291
-103.947	-200.000	-0.015	0.102
-102.932	96.964	-0.018	-0.020
-101.918	109.302	0.095	-0.113
-100.903	101.509	-0.062	0.071
-99.889	-200.000	-0.070	0.437
-98.874	-200.000	-0.002	-0.065
-97.859	-65.261	0.234	0.093
-96.845	-200.000	-0.061	-0.277
-95.830	-49.184	-0.622	0.295
-94.816	-200.000	0.000	0.028
-93.801	800.000	0.019	-0.064
-92.786	800.000	-0.032	0.105
-91.772	-1.692	0.130	-0.090
-90.757	270.141	-0.126	0.220
-89.743	-44.544	0.171	0.085
-88.728	169.381	-0.249	0.351
-87.713	-18.475	0.288	-0.178
-86.699	-17.177	0.130	-0.081
-85.684	34.970	0.170	-0.148
-84.670	-79.651	0.341	0.114
-83.655	-61.714	0.122	0.051
-82.640	95.279	0.188	0.213
-81.626	-8.164	-0.079	-0.053
-80.611	-200.000	-0.082	0.000
-79.597	800.000	-0.014	-0.041
-78.582	153.808	-0.161	0.219
-77.567	-130.108	-0.107	-0.015
-76.553	-200.000	-0.257	-0.001
-75.538	-156.199	-0.301	0.019
-74.524	-50.842	0.134	-0.062
-73.509	-200.000	-0.026	-0.202
-72.494	-48.203	-0.103	-0.049
-71.480	-28.073	0.233	0.133
-70.465	-35.058	0.287	0.155
-69.451	39.750	-0.248	0.220
-68.436	144.647	0.114	-0.151
-67.422	-200.000	-0.035	0.401
-66.407	-200.000	-0.021	0.179
-65.392	800.000	0.055	0.156
-64.378	-124.131	0.299	0.046
-63.363	-19.281	0.018	0.011
-62.349	800.000	0.068	0.259
-61.334	64.367	-0.712	-0.710
-60.319	145.690	0.271	0.359
-59.305	-200.000	-0.186	-1.033
-58.290	259.732	0.389	0.664
-57.276	800.000	0.448	1.345
-56.261	-200.000	94.472	539.847
-55.246	594.729	1393.499	3409.422
-54.232	182.489	2629.535	3835.086
-53.217	118.109	2215.668	2701.207
-52.203	45.891	1657.160	1516.078
-51.188	37.585	1388.165	1218.220
-50.173	34.330	1344.374	1159.968
-49.159	54.537	1392.553	1327.207
-48.144	58.361	1410.995	1368.426
-47.130	37.974	1365.010	1200.103
-46.115	34.300	1347.170	1162.012
-45.100	34.133	1342.168	1156.637
-44.086	34.028	1339.750	1153.870
-43.071	33.886	1338.041	1151.493
-42.057	33.968	1335.680	1149.910
-41.042	33.962	1334.041	1148.415
-40.027	34.001	1332.362	1147.162
-39.013	33.976	1330.205	1145.105
-37.998	34.016	1328.044	1143.443
-36.984	34.207	1326.064	1142.841
-35.969	34.175	1324.526	1141.275
-34.954	34.157	1323.030	1139.836
-33.940	34.270	1321.795	1139.402
-32.925	34.172	1320.378	1137.545
-31.911	34.153	1318.605	1135.863
-30.896	34.208	1317.645	1135.318
-29.881	34.289	1315.821	1134.181
-28.867	34.247	1314.060	1132.372
-27.852	34.242	1312.969	1131.355
-26.838	34.191	1311.857	1130.049
-25.823	34.224	1310.441	1128.983
-24.809	34.184	1308.650	1127.157
-23.794	34.258	1307.090	1126.204
-22.779	34.190	1306.244	1125.031
-21.765	34.154	1305.093	1123.784
-20.750	34.089	1303.842	1122.277
-19.736	34.134	1302.212	1121.092
-18.721	34.106	1301.082	1119.909
-17.706	34.071	1299.951	1118.688
-16.692	34.135	1298.319	1117.617
-15.677	34.074	1297.609	1116.600
-14.663	34.012	1296.475	1115.219
-13.648	34.059	1295.047	1114.219
-12.633	34.204	1293.749	1113.910
-11.619	34.102	1293.268	1112.852
-10.604	33.987	1292.808	1111.738
-9.590	33.975	1291.497	1110.499
-8.575	34.035	1290.674	1110.097
-7.560	34.033	1289.675	1109.182
-6.546	34.150	1288.488	1108.800
-5.531	34.012	1287.977	1107.515
-4.517	34.038	1286.427	1106.289
-3.502	34.117	1286.062	1106.389
-2.487	34.046	1284.986	1105.006
-1.473	34.154	1281.263	1102.384
-0.458	33.448	1267.367	1086.340
0.556	31.065	1249.676	1052.048
1.571	27.595	1255.263	1036.953
2.586	26.415	1270.889	1042.970
3.600	24.811	1257.723	1022.912
4.615	18.082	1181.892	924.871
5.629	8.684	1102.535	815.047
6.644	4.274	1081.068	777.049
7.659	4.016	1078.061	773.531
8.673	4.051	1077.402	773.166
9.688	4.090	1076.018	772.297
10.702	4.222	1074.673	771.921
11.717	9.691	1082.778	805.045
12.731	18.252	1094.846	857.000
13.746	20.871	1097.267	871.946
14.761	19.873	1094.707	864.847
15.775	18.819	1092.587	857.835
16.790	17.682	1090.508	850.457
17.804	16.901	1089.802	845.940
18.819	16.619	1088.631	843.548
19.834	16.434	1087.461	841.648
20.848	16.172	1086.958	839.876
21.863	15.939	1085.636	837.622
22.877	15.912	1085.095	836.998
23.892	15.968	1083.700	836.125
24.907	15.947	1083.208	835.570
25.921	15.857	1082.062	834.164
26.936	15.929	1081.040	833.658
27.950	15.957	1079.297	832.381
28.965	16.031	1078.052	831.710
29.980	16.186	1076.209	830.981
30.994	16.187	1075.476	830.345
32.009	16.244	1074.298	829.641
33.023	16.165	1073.359	828.454
34.038	16.048	1072.315	827.001
35.053	16.020	1071.581	826.225
36.067	15.886	1070.858	824.940
37.082	16.028	1069.916	824.837
38.096	16.033	1068.948	824.039
39.111	16.072	1068.354	823.700
40.126	16.024	1066.594	822.037
41.140	15.939	1064.815	820.180
42.155	15.902	1063.615	818.999
43.169	15.716	1062.942	817.509
44.184	15.708	1062.002	816.672
45.199	15.757	1060.934	816.018
46.213	15.834	1060.199	815.753
47.228	15.913	1059.308	815.379
48.242	16.011	1058.016	814.783
49.257	16.008	1057.032	813.942
50.271	16.007	1056.274	813.278
51.286	16.197	1055.032	813.168
52.301	16.003	1054.342	811.627
53.315	15.854	1053.592	810.260
54.330	15.871	1051.867	808.948
55.344	15.808	1051.651	808.407
56.359	15.953	1050.329	808.015
57.374	15.792	1049.576	806.592
58.388	15.668	1048.801	805.329
59.403	15.712	1047.718	804.637
60.417	15.755	1046.784	804.057
61.432	15.784	1046.340	803.780
62.447	15.613	1045.600	802.325
63.461	15.638	1044.301	801.375
64.476	15.631	1043.069	800.329
65.490	15.638	1042.767	800.056
66.505	15.617	1042.188	799.445
67.520	15.761	1041.112	799.229
68.534	15.724	1040.233	798.312
69.549	15.664	1039.723	797.563
70.563	15.626	1038.555	796.417
71.578	15.583	1037.556	795.377
72.593	15.488	1036.928	794.375
73.607	15.521	1036.216	793.915
74.622	15.637	1035.950	794.189
75.636	15.531	1035.203	793.045
76.651	15.504	1034.751	792.504
77.666	15.585	1034.229	792.414
78.680	15.478	1033.400	791.207
79.695	15.569	1032.634	790.975
80.709	15.761	1032.048	791.360
81.724	15.697	1032.058	790.999
82.739	15.797	1030.593	790.277
83.753	16.000	1029.863	790.598
84.768	16.082	1029.336	790.505
85.782	16.179	1028.673	790.384
86.797	16.153	1027.718	789.458
87.812	16.019	1026.942	788.164
88.826	15.992	1025.643	786.971
89.841	16.096	1024.533	786.534
90.855	16.123	1024.042	786.217
91.870	16.302	1023.129	786.277
92.884	16.122	1022.234	784.682
93.899	16.172	1021.287	784.119
94.914	16.298	1020.036	783.673
95.928	16.281	1019.215	782.897
96.943	16.232	1018.079	781.728
97.957	16.054	1017.554	780.429
98.972	16.113	1017.098	780.286
99.987	16.127	1016.103	779.516
101.001	16.119	1015.021	778.581
102.016	16.128	1013.866	777.670
103.030	16.181	1013.138	777.284
104.045	16.163	1012.457	776.610
105.060	16.083	1011.640	775.546
106.074	15.952	1010.276	773.831
107.089	15.946	1008.826	772.624
108.103	15.697	1008.336	771.040
109.118	15.675	1007.474	770.211
110.133	15.578	1006.662	769.077
111.147	15.644	1005.736	768.607
112.162	15.724	1004.974	768.319
113.176	15.893	1003.786	768.117
114.191	15.810	1003.605	767.529
115.206	15.933	1002.440	767.133
116.220	15.934	1001.526	766.370
117.235	15.831	1000.265	764.867
118.249	15.886	999.653	764.581
119.264	15.864	998.833	763.788
120.279	15.738	998.138	762.616
121.293	15.730	997.928	762.355
122.308	15.623	996.917	761.029
123.322	15.718	995.510	760.318
124.337	15.626	994.125	758.776
125.352	15.676	993.185	758.217
126.366	15.737	992.036	757.550
127.381	15.679	991.355	756.699
128.395	15.731	990.477	756.197
129.410	15.793	989.482	755.646
130.424	15.722	988.604	754.592
131.439	15.873	987.902	754.665
132.454	15.863	987.406	754.178
133.468	15.930	987.026	754.121
134.483	15.924	985.910	753.174
135.497	15.964	984.790	752.427
136.512	16.051	983.783	751.983
137.527	15.871	983.234	750.695
138.541	16.004	982.312	750.515
139.556	15.986	981.780	749.963
140.570	15.979	981.242	749.454
141.585	16.209	980.205	749.618
142.600	16.226	979.228	748.880
143.614	16.352	978.570	748.868
144.629	16.332	977.960	748.248
145.643	16.262	976.938	747.090
146.658	16.190	975.480	745.591
147.673	16.152	974.708	744.765
148.687	16.062	973.935	743.714
149.702	16.051	972.770	742.709
150.716	15.940	972.403	741.874
151.731	15.976	971.431	741.226
152.746	16.016	970.775	740.834
153.760	16.013	970.063	740.212
154.775	16.046	969.906	740.173
155.789	16.226	968.683	739.961
156.804	16.250	968.221	739.649
157.819	16.278	967.446	739.116
158.833	16.343	966.552	738.652
159.848	16.436	965.714	738.350
160.862	16.266	964.779	736.829
161.877	16.090	964.001	735.400
162.892	16.055	963.035	734.446
163.906	15.998	962.111	733.428
164.921	16.086	961.183	733.041
165.935	16.245	960.129	732.860
166.950	16.186	959.340	731.937
167.964	16.174	958.300	731.030
168.979	16.137	957.220	729.979
169.994	16.081	956.873	729.409
171.008	16.144	956.027	728.970
172.023	16.237	955.552	728.947
173.037	16.403	954.667	728.922
174.052	16.259	953.860	727.623
175.067	16.129	953.034	726.367
176.081	16.102	952.851	726.046
177.096	16.133	952.100	725.545
178.110	16.089	951.458	724.799
179.125	16.187	950.438	724.381
180.140	16.223	950.296	724.363
181.154	16.356	949.556	724.306
182.169	16.421	949.249	724.287
183.183	16.431	948.684	723.835
184.198	16.530	947.540	723.318
185.213	16.470	946.875	722.491
186.227	16.499	946.242	722.068
187.242	16.635	945.733	722.197
188.256	16.653	944.929	721.596
189.271	16.474	944.779	720.656
190.286	16.227	943.784	718.781
191.300	16.226	942.408	717.662
192.315	15.949	942.235	716.292
193.329	16.137	941.649	716.580
194.344	16.160	941.026	716.140
195.359	16.394	940.088	716.355
196.373	16.438	939.586	716.097
197.388	16.495	939.603	716.287
198.402	16.645	939.095	716.471
199.417	16.786	937.835	716.043
200.432	16.612	937.843	715.249
201.446	16.830	937.369	715.746
202.461	16.964	936.669	715.714
203.475	16.742	936.043	714.236
204.490	16.686	935.069	713.196
205.504	16.560	934.319	712.029
206.519	16.673	933.200	711.586
207.534	16.588	932.600	710.711
208.548	16.675	932.141	710.663
209.563	16.634	931.547	709.976
210.577	16.656	930.845	709.472
211.592	16.857	930.026	709.623
212.607	16.881	929.316	709.120
213.621	16.863	928.303	708.211
214.636	16.858	927.669	707.641
215.650	16.785	927.291	706.986
216.665	16.988	925.952	706.750
217.680	16.942	925.921	706.470
218.694	17.071	925.140	706.351
219.709	17.058	924.384	705.658
220.723	16.928	923.879	704.666
221.738	16.961	922.973	704.051
222.753	16.987	922.456	703.701
223.767	17.054	921.980	703.554
224.782	17.249	921.603	704.013
225.796	17.151	921.305	703.316
226.811	16.947	920.368	701.694
227.826	17.004	919.652	701.324
228.840	16.854	918.755	699.957
229.855	17.002	917.816	699.792
230.869	16.997	917.199	699.239
231.884	16.978	916.274	698.392
232.899	16.859	915.730	697.425
233.913	16.840	914.946	696.688
234.928	16.893	914.349	696.390
235.942	16.852	913.913	695.829
236.957	16.731	913.430	694.903
237.972	16.986	912.418	695.117
238.986	16.985	911.298	694.200
240.001	16.841	911.439	693.654
241.015	16.938	910.327	693.144
242.030	16.925	910.274	692.990
243.045	17.165	909.473	693.299
244.059	17.057	908.437	692.006
245.074	17.093	908.252	691.949
246.088	17.210	907.708	691.952
247.103	17.185	907.100	691.324
248.117	17.317	906.525	691.364
249.132	17.613	906.021	692.119
250.147	17.452	905.788	691.227
251.161	17.632	904.776	691.124
252.176	17.706	904.209	690.930
253.190	17.714	903.500	690.360
254.205	17.768	903.126	690.229
255.220	17.681	902.344	689.220
256.234	17.717	901.324	688.524
257.249	17.577	900.939	687.604
258.263	17.590	900.196	687.028
259.278	17.737	899.553	687.072
260.293	17.750	899.114	686.726
261.307	17.785	898.717	686.504
262.322	17.893	898.023	686.348
263.336	17.863	896.733	685.181
264.351	17.808	896.223	684.510
265.366	17.922	895.779	684.567
266.380	17.938	894.749	683.782
267.395	17.918	894.098	683.145
268.409	17.644	893.525	681.552
269.424	17.757	892.921	681.482
270.439	17.810	892.097	681.005
271.453	17.840	891.154	680.342
272.468	17.771	890.863	679.785
273.482	17.679	890.552	679.121
274.497	17.744	889.760	678.716
275.512	17.737	889.001	678.048
276.526	17.716	888.771	677.731
277.541	17.945	888.271	678.198
278.555	18.058	887.466	677.973
279.570	17.964	887.085	677.248
280.585	18.014	885.993	676.551
281.599	17.876	885.478	675.552
282.614	17.870	884.486	674.715
283.628	17.914	884.268	674.661
284.643	17.998	883.351	674.234
285.657	17.870	882.506	673.024
286.672	17.893	882.371	672.951
287.687	17.942	881.738	672.604
288.701	17.973	880.944	672.059
289.716	18.060	880.297	671.849
290.730	18.030	880.162	671.569
291.745	18.050	879.432	671.031
292.760	18.225	878.657	671.068
293.774	18.250	878.048	670.639
294.789	18.200	877.526	669.987
295.803	18.015	876.570	668.471
296.818	18.122	875.791	668.239
297.833	18.101	875.675	668.008
298.847	17.928	875.184	666.898
299.862	18.143	874.347	667.043
300.876	18.057	873.761	666.200
301.891	18.258	873.322	666.589
302.906	18.361	872.714	666.468
303.920	18.334	872.592	666.211
304.935	18.464	871.753	666.016
305.949	18.377	871.415	665.361
306.964	18.236	870.480	664.039
307.979	18.331	870.002	663.985
308.993	18.466	869.445	664.025
310.008	18.438	868.954	663.482
311.022	18.374	868.099	662.522
312.037	18.382	867.462	662.010
313.052	18.220	866.780	660.807
314.066	18.195	866.576	660.495
315.081	18.115	865.883	659.599
316.095	18.114	865.065	658.914
317.110	18.200	864.467	658.730
318.125	18.369	863.802	658.815
319.139	18.358	863.219	658.270
320.154	18.203	863.341	657.711
321.168	18.312	862.358	657.323
322.183	18.280	862.025	656.886
323.197	18.263	861.960	656.713
324.212	18.411	860.914	656.426
325.227	18.366	860.175	655.631
326.241	18.339	859.646	655.067
327.256	18.295	859.406	654.658
328.270	18.364	858.663	654.298
329.285	18.267	858.115	653.453
330.300	18.281	857.489	652.971
331.314	18.432	857.038	653.147
332.329	18.510	856.544	653.009
333.343	18.465	856.139	652.471
334.358	18.622	855.389	652.439
335.373	18.484	855.628	652.038
336.387	18.550	854.958	651.722
337.402	18.517	854.934	651.520
338.416	18.746	854.627	652.095
339.431	18.697	854.053	651.416
340.446	18.884	853.612	651.729
341.460	18.929	853.175	651.511
342.475	18.932	852.792	651.170
343.489	18.931	852.270	650.713
344.504	18.990	851.726	650.463
345.519	19.042	851.523	650.445
346.533	19.006	851.017	649.865
347.548	18.859	850.520	648.873
348.562	18.771	849.418	647.642
349.577	18.719	849.059	647.115
350.592	18.707	848.056	646.248
351.606	18.725	847.485	645.827
352.621	18.669	846.923	645.127
353.635	18.707	846.292	644.734
354.650	18.785	845.705	644.522
355.665	18.972	844.895	644.550
356.679	18.962	844.321	644.016
357.694	18.941	843.722	643.425
358.708	18.907	843.040	642.720
359.723	18.984	842.669	642.668
360.738	19.076	841.948	642.404
361.752	19.089	841.443	642.011
362.767	19.099	840.802	641.504
363.781	19.204	840.718	641.772
364.796	19.133	840.345	641.167
365.810	19.258	839.568	640.983
366.825	19.261	839.124	640.598
367.840	19.301	838.638	640.317
368.854	19.146	838.304	639.430
369.869	19.157	837.889	639.098
370.883	19.262	837.190	638.899
371.898	19.292	837.162	638.933
372.913	19.291	836.650	638.480
373.927	19.242	836.132	637.847
374.942	19.326	835.758	637.818
375.956	19.360	834.903	637.235
376.971	19.453	834.873	637.499
377.986	19.557	834.398	637.463
379.000	19.589	833.824	637.087
380.015	19.622	833.107	636.603
381.029	19.535	832.605	635.844
382.044	19.609	831.760	635.414
383.059	19.499	831.726	634.928
384.073	19.484	831.027	634.283
385.088	19.355	829.928	632.915
386.102	19.480	829.507	632.995
387.117	19.528	828.718	632.514
388.132	19.376	828.686	631.876
389.146	19.333	828.195	631.287
390.161	19.545	827.769	631.683
391.175	19.721	826.706	631.459
392.190	19.542	826.615	630.680
393.205	19.383	826.213	629.735
394.219	19.495	825.504	629.548
395.234	19.332	825.537	628.926
396.248	19.173	825.070	627.935
397.263	19.320	824.480	627.965
398.278	19.367	823.968	627.691
399.292	19.377	823.473	627.292
400.307	19.493	822.600	626.993
401.321	19.450	822.541	626.739
402.336	19.263	822.146	625.701
403.350	19.471	821.557	625.951
404.365	19.633	820.910	625.991
405.380	19.792	820.673	626.331
406.394	19.819	820.157	625.982
407.409	19.682	820.162	625.434
408.423	19.933	819.557	625.822
409.438	19.979	819.287	625.728
410.453	19.867	818.653	624.783
411.467	19.849	818.436	624.498
412.482	20.020	818.005	624.730
413.496	20.056	817.713	624.583
414.511	20.054	817.200	624.128
415.526	20.076	816.590	623.685
416.540	20.152	815.961	623.424
417.555	19.945	815.624	622.368
418.569	20.117	815.292	622.677
419.584	20.110	814.891	622.291
420.599	20.093	814.385	621.788
421.613	155.763	1371.022	1787.628
422.628	135.514	1452.137	1787.746
