DTS Sentinel unit serial number:	SN413079Multiplexer serial number:	ORYXHardware model number:	OX4-SRSoftware version number:	ORYX F/W v4.00 Oryx Data Collector v3.7.2.0data status	okinstallation	princeton_trtdifferential loss correction	single-endedforward channel	channel 1reverse channel	N/Adate	2019/09/13time	14:46:35forward acquisition time	60.00reverse acquisition time	0.00gamma	496.2192k internal	0.2299k external	0.2299temperature offset calibration	1.0159default loss term (dB/km)	0.3790temperature slope calibration	1.0000multiplexer offset coefficient	1.0000multiplexer slope coefficient	1.0000fibre end	0.00T internal ref (°C)	35.50T ext. ref 1 (°C)	4.67T ext. ref 2 (°C)	32.53length (m)	temperature (°C)	Stokes	anti-Stokes-747.200	-200.000	0.016	0.090
-746.185	-200.000	-0.074	0.540
-745.171	-45.074	-0.294	-0.149
-744.156	-200.000	-0.069	0.374
-743.142	-200.000	-0.017	-0.084
-742.127	196.093	-0.045	0.069
-741.112	-44.069	-0.208	0.107
-740.098	-200.000	-0.046	0.291
-739.083	-92.938	0.203	0.058
-738.069	221.966	0.096	0.157
-737.054	-0.691	-0.206	0.149
-736.039	-40.994	-0.160	0.085
-735.025	14.407	0.188	0.149
-734.010	-33.355	0.191	-0.108
-732.996	526.091	0.063	-0.152
-731.981	292.218	-0.211	-0.392
-730.966	-126.322	0.316	-0.048
-729.952	249.976	-0.048	0.083
-728.937	-200.000	-0.002	-0.253
-727.923	-42.639	-0.419	0.217
-726.908	222.577	-0.060	0.098
-725.894	-172.564	-0.190	-0.006
-724.879	137.356	-0.323	-0.430
-723.864	250.714	-0.081	0.141
-722.850	-200.000	-0.003	0.225
-721.835	-140.953	0.231	0.024
-720.821	-82.472	-0.258	0.085
-719.806	-200.000	0.007	-0.076
-718.791	-86.331	-0.187	-0.059
-717.777	-200.000	0.058	0.369
-716.762	15.099	0.301	0.240
-715.748	-24.856	-0.299	0.181
-714.733	-36.260	0.366	-0.201
-713.718	130.366	0.179	-0.234
-712.704	-165.875	0.203	0.009
-711.689	800.000	-0.114	-0.341
-710.675	375.060	-0.097	-0.202
-709.660	226.528	-0.093	0.153
-708.645	480.957	0.076	0.176
-707.631	188.438	-0.040	-0.061
-706.616	562.004	0.064	-0.158
-705.602	-136.760	-0.217	0.025
-704.587	-200.000	-0.015	0.127
-703.572	-44.839	0.354	0.180
-702.558	-46.650	0.124	0.062
-701.543	-6.161	-0.157	0.110
-700.529	-96.485	0.115	-0.031
-699.514	-200.000	0.004	-0.100
-698.499	-19.898	0.150	-0.094
-697.485	-41.849	-0.120	-0.062
-696.470	282.917	0.081	-0.147
-695.456	-28.052	-0.225	0.133
-694.441	-111.063	-0.052	-0.011
-693.426	67.455	0.224	-0.233
-692.412	111.472	-0.232	-0.285
-691.397	800.000	-0.103	-0.303
-690.383	1.436	-0.046	-0.034
-689.368	-200.000	0.001	-0.214
-688.354	-144.926	0.255	0.024
-687.339	800.000	-0.141	-0.433
-686.324	-125.953	-0.152	0.023
-685.310	104.953	-0.123	0.147
-684.295	65.153	-0.087	0.090
-683.281	-41.135	0.035	0.018
-682.266	362.426	-0.087	-0.178
-681.251	51.495	-0.022	0.021
-680.237	-91.542	-0.179	-0.052
-679.222	125.724	-0.140	0.180
-678.208	-200.000	0.047	0.234
-677.193	-160.423	0.131	-0.007
-676.178	-200.000	-0.033	-0.274
-675.164	-200.000	-0.038	-0.221
-674.149	-108.490	0.397	-0.087
-673.135	-71.275	-0.142	0.054
-672.120	-42.238	-0.167	0.087
-671.105	18.530	0.006	-0.005
-670.091	-56.597	0.282	-0.127
-669.076	-5.059	-0.147	0.103
-668.062	746.704	0.090	0.247
-667.047	-29.156	-0.323	0.189
-666.032	800.000	0.040	-0.177
-665.018	-36.301	0.058	0.032
-664.003	431.126	-0.180	0.397
-662.989	-81.659	0.060	0.020
-661.974	-200.000	-0.000	-0.195
-660.959	-32.207	-0.097	0.055
-659.945	-172.845	-0.286	-0.009
-658.930	39.545	-0.288	0.263
-657.916	219.002	0.082	-0.133
-656.901	247.797	0.124	-0.214
-655.886	2.314	0.162	-0.119
-654.872	44.001	-0.117	0.109
-653.857	-3.659	-0.329	0.232
-652.843	-2.432	-0.271	-0.193
-651.828	-21.438	-0.161	-0.100
-650.814	69.548	-0.163	-0.170
-649.799	368.668	0.023	0.047
-648.784	227.778	-0.175	-0.289
-647.770	-96.325	-0.047	-0.013
-646.755	-59.825	0.361	0.157
-645.741	-178.094	-0.079	0.002
-644.726	-42.577	-0.029	0.015
-643.711	-200.000	0.001	0.305
-642.697	-108.640	-0.309	-0.067
-641.682	175.943	0.233	-0.344
-640.668	7.649	0.162	0.123
-639.653	-115.326	0.194	0.037
-638.638	-129.534	0.175	0.025
-637.624	206.431	-0.047	0.075
-636.609	-200.000	0.045	0.214
-635.595	-63.258	-0.135	0.057
-634.580	-55.448	0.139	0.063
-633.565	305.647	-0.165	0.312
-632.551	-52.804	0.341	0.160
-631.536	-50.931	-0.199	0.095
-630.522	-16.394	0.042	0.027
-629.507	-26.551	0.265	0.158
-628.492	-123.851	0.343	-0.055
-627.478	800.000	-0.106	-0.352
-626.463	800.000	0.027	-0.077
-625.449	-128.831	-0.204	-0.029
-624.434	7.871	0.242	0.184
-623.419	-200.000	0.020	0.298
-622.405	61.283	0.175	-0.176
-621.390	-144.784	-0.111	0.010
-620.376	-12.820	0.125	-0.082
-619.361	77.208	0.141	0.153
-618.346	-37.209	-0.048	-0.026
-617.332	-200.000	-0.008	-0.131
-616.317	113.084	-0.086	0.106
-615.303	157.138	-0.227	-0.319
-614.288	-200.000	-0.043	0.199
-613.273	64.981	-0.123	0.126
-612.259	153.834	0.219	-0.304
-611.244	-200.000	0.029	-0.162
-610.230	597.589	0.086	0.216
-609.215	-122.291	0.306	-0.051
-608.201	800.000	-0.027	0.093
-607.186	-107.595	0.521	-0.116
-606.171	172.942	-0.094	-0.138
-605.157	-47.286	0.223	0.110
-604.142	-200.000	0.013	-0.654
-603.128	-113.976	-0.069	-0.014
-602.113	160.119	0.082	0.117
-601.098	453.529	0.106	-0.238
-600.084	-200.000	0.035	-0.255
-599.069	114.152	-0.074	0.091
-598.055	407.631	0.057	0.123
-597.040	-95.304	0.165	0.045
-596.025	346.994	-0.020	0.040
-595.011	-140.331	-0.203	0.021
-593.996	376.178	0.153	-0.317
-592.982	-200.000	0.014	0.241
-591.967	-138.383	0.087	-0.010
-590.952	137.855	-0.186	0.248
-589.938	-127.394	0.333	0.049
-588.923	126.860	0.195	-0.251
-587.909	-200.000	-0.028	-0.277
-586.894	-102.546	-0.040	0.010
-585.879	-3.781	-0.065	0.046
-584.865	-75.080	-0.224	0.081
-583.850	195.798	0.214	0.330
-582.836	119.695	-0.130	0.164
-581.821	-85.401	-0.107	0.034
-580.806	316.617	0.088	-0.169
-579.792	172.473	0.110	0.160
-578.777	800.000	0.076	-0.220
-577.763	-80.806	0.159	0.054
-576.748	-73.702	-0.086	-0.032
-575.733	13.971	0.108	-0.085
-574.719	104.007	-0.063	0.075
-573.704	800.000	-0.080	-0.292
-572.690	100.943	0.072	0.085
-571.675	6.155	0.242	-0.182
-570.661	174.487	0.030	0.043
-569.646	295.371	0.145	-0.269
-568.631	-65.247	-0.111	-0.045
-567.617	48.317	-0.172	0.164
-566.602	-200.000	-0.021	0.144
-565.588	-200.000	0.002	-0.009
-564.573	160.076	0.193	0.273
-563.558	29.756	0.076	0.066
-562.544	7.932	-0.218	0.166
-561.529	282.169	0.219	0.398
-560.515	-69.406	0.146	0.057
-559.500	85.891	0.206	-0.229
-558.485	-136.455	0.277	-0.033
-557.471	-200.000	0.002	0.365
-556.456	-62.064	-0.253	-0.107
-555.442	-71.623	-0.302	0.114
-554.427	-137.348	0.466	0.054
-553.412	-70.229	0.102	0.039
-552.398	119.399	-0.314	-0.394
-551.383	-87.551	-0.106	0.033
-550.369	26.721	-0.107	-0.091
-549.354	-200.000	-0.000	0.033
-548.339	-9.261	0.085	0.058
-547.325	-93.562	-0.266	-0.074
-546.310	36.986	0.373	0.334
-545.296	93.964	-0.026	0.030
-544.281	-39.388	-0.083	0.044
-543.266	563.565	-0.051	0.125
-542.252	-200.000	0.054	-0.335
-541.237	-114.424	-0.156	-0.030
-540.223	-200.000	-0.041	0.208
-539.208	-200.000	0.040	0.184
-538.193	69.474	-0.106	-0.111
-537.179	-200.000	-0.001	-0.161
-536.164	800.000	0.057	0.170
-535.150	-22.802	-0.107	-0.065
-534.135	151.816	0.091	0.125
-533.121	-51.171	0.196	-0.093
-532.106	-88.879	-0.466	-0.140
-531.091	43.085	-0.101	-0.093
-530.077	460.251	-0.053	-0.120
-529.062	-200.000	0.055	-0.404
-528.048	-200.000	0.029	0.376
-527.033	-71.606	-0.051	0.019
-526.018	188.612	-0.150	-0.227
-525.004	271.905	-0.143	-0.255
-523.989	-28.940	-0.152	-0.088
-522.975	-82.530	0.189	-0.062
-521.960	471.799	-0.062	0.140
-520.945	-22.213	-0.190	-0.117
-519.931	517.929	-0.051	0.121
-518.916	42.249	0.075	-0.069
-517.902	150.276	-0.355	-0.487
-516.887	33.471	0.089	0.078
-515.872	28.067	-0.234	-0.200
-514.858	-174.296	0.387	-0.011
-513.843	65.993	-0.151	-0.155
-512.829	-200.000	0.001	0.239
-511.814	-29.297	-0.174	0.101
-510.799	-30.490	0.241	-0.138
-509.785	-76.810	-0.144	0.051
-508.770	800.000	0.080	0.319
-507.756	548.645	0.098	0.237
-506.741	-132.885	0.140	-0.018
-505.726	-200.000	-0.062	-0.333
-504.712	-166.779	-0.088	0.004
-503.697	86.108	-0.315	0.351
-502.683	-5.596	-0.170	0.118
-501.668	-200.000	0.003	0.038
-500.653	226.746	-0.131	-0.214
-499.639	-32.162	0.030	0.017
-498.624	800.000	-0.140	-0.469
-497.610	5.114	-0.165	-0.123
-496.595	73.224	0.211	-0.223
-495.581	-200.000	-0.057	-0.267
-494.566	18.007	0.184	-0.148
-493.551	-121.287	-0.178	0.030
-492.537	-200.000	0.001	0.211
-491.522	-200.000	-0.019	-0.139
-490.508	-44.298	0.047	0.024
-489.493	-200.000	0.001	-0.044
-488.478	800.000	0.122	0.382
-487.464	392.997	-0.037	-0.078
-486.449	24.274	-0.108	0.090
-485.435	522.280	-0.048	0.115
-484.420	800.000	0.090	0.329
-483.405	109.353	0.071	-0.086
-482.391	-80.047	0.286	0.097
-481.376	-1.903	-0.245	-0.174
-480.362	99.544	-0.405	-0.473
-479.347	-115.701	-0.223	0.042
-478.332	800.000	-0.084	0.245
-477.318	-112.382	0.239	0.048
-476.303	-146.204	0.426	0.038
-475.289	-48.166	-0.218	-0.106
-474.274	22.801	-0.191	0.158
-473.259	22.805	-0.289	-0.239
-472.245	-200.000	0.019	-0.315
-471.230	-185.319	0.247	0.004
-470.216	-20.160	-0.144	-0.089
-469.201	45.146	0.026	0.024
-468.186	-200.000	0.002	0.056
-467.172	-181.207	-0.082	-0.002
-466.157	49.113	-0.037	0.035
-465.143	-132.116	0.240	0.031
-464.128	22.970	0.278	-0.230
-463.113	19.022	0.238	0.193
-462.099	-48.225	-0.206	0.100
-461.084	31.499	0.033	-0.028
-460.070	73.434	0.223	-0.236
-459.055	-25.238	0.093	-0.055
-458.040	197.939	0.027	0.041
-457.026	-73.974	-0.054	-0.020
-456.011	-200.000	-0.025	0.298
-454.997	95.655	0.118	0.136
-453.982	-86.662	-0.074	0.023
-452.968	-95.583	0.024	-0.007
-451.953	-57.539	-0.284	-0.126
-450.938	-72.275	0.102	-0.038
-449.924	-193.329	0.106	-0.001
-448.909	24.899	0.139	0.116
-447.895	160.466	-0.055	-0.077
-446.880	-142.785	-0.142	0.014
-445.865	-177.900	0.367	0.009
-444.851	-143.480	-0.142	0.014
-443.836	-200.000	0.039	0.406
-442.822	-84.505	0.177	0.056
-441.807	-157.530	0.249	-0.015
-440.792	589.522	-0.120	-0.299
-439.778	-200.000	-0.042	0.484
-438.763	283.199	0.159	0.287
-437.749	-200.000	-0.020	-0.098
-436.734	-138.496	0.393	0.044
-435.719	-49.727	0.434	-0.208
-434.705	-47.222	0.325	0.160
-433.690	-167.769	0.215	0.009
-432.676	-48.539	-0.259	-0.126
-431.661	174.051	-0.139	-0.203
-430.646	-200.000	0.014	0.242
-429.632	40.965	-0.085	0.078
-428.617	-200.000	-0.028	0.146
-427.603	454.672	-0.064	-0.144
-426.588	217.152	0.182	0.293
-425.573	-3.157	-0.225	0.158
-424.559	-96.977	0.590	-0.156
-423.544	195.848	0.039	-0.060
-422.530	-19.565	0.078	0.049
-421.515	341.381	0.022	-0.044
-420.500	-86.165	0.356	0.111
-419.486	205.994	-0.052	-0.081
-418.471	-103.747	-0.130	-0.031
-417.457	800.000	-0.108	0.402
-416.442	292.558	0.128	0.235
-415.428	-200.000	-0.009	0.180
-414.413	-84.016	0.169	-0.054
-413.398	-200.000	0.051	-0.252
-412.384	10.180	0.285	0.218
-411.369	-101.640	0.265	-0.065
-410.355	-200.000	-0.013	-0.227
-409.340	-200.000	-0.007	-0.242
-408.325	-175.726	0.247	-0.007
-407.311	-38.125	0.143	-0.076
-406.296	-161.990	-0.065	-0.003
-405.282	65.914	-0.106	0.109
-404.267	155.632	-0.201	-0.279
-403.252	12.081	-0.211	0.164
-402.238	111.021	0.116	-0.140
-401.223	-200.000	0.005	0.072
-400.209	-18.185	0.100	-0.063
-399.194	-170.913	0.378	0.013
-398.179	-111.170	-0.386	0.080
-397.165	77.056	0.133	0.142
-396.150	-128.026	0.104	-0.015
-395.136	-200.000	-0.018	0.178
-394.121	-200.000	-0.013	0.086
-393.106	-87.827	0.088	-0.027
-392.092	800.000	-0.090	0.333
-391.077	800.000	-0.061	-0.235
-390.063	-200.000	-0.009	-0.157
-389.048	-200.000	0.020	-0.135
-388.033	42.679	0.342	-0.313
-387.019	-70.159	-0.209	0.080
-386.004	-200.000	-0.094	-0.416
-384.990	-148.138	-0.334	0.028
-383.975	-200.000	0.084	-0.502
-382.960	-200.000	-0.065	-0.308
-381.946	166.712	0.261	-0.373
-380.931	-179.700	0.059	0.001
-379.917	392.964	-0.083	0.175
-378.902	-200.000	0.006	-0.250
-377.888	-177.008	-0.312	-0.008
-376.873	-101.815	0.077	0.019
-375.858	351.555	-0.046	-0.092
-374.844	-157.409	-0.325	0.020
-373.829	-169.123	0.202	0.008
-372.815	-200.000	-0.001	-0.391
-371.800	-4.946	-0.027	0.018
-370.785	-200.000	0.051	-0.339
-369.771	-200.000	0.057	0.383
-368.756	800.000	-0.019	-0.054
-367.742	-135.613	0.327	0.039
-366.727	48.843	-0.294	0.277
-365.712	-200.000	-0.055	-0.341
-364.698	800.000	0.077	-0.214
-363.683	-200.000	-0.022	0.292
-362.669	44.919	-0.095	0.088
-361.654	412.410	-0.136	0.290
-360.639	-200.000	-0.009	-0.093
-359.625	-200.000	-0.013	-0.136
-358.610	17.443	-0.210	0.167
-357.596	340.526	-0.081	0.159
-356.581	569.564	-0.079	0.192
-355.566	-24.325	-0.211	-0.126
-354.552	175.363	0.201	0.293
-353.537	-68.880	-0.198	-0.077
-352.523	556.927	0.034	-0.082
-351.508	-200.000	0.010	-0.126
-350.493	204.846	-0.301	0.469
-349.479	800.000	-0.053	-0.213
-348.464	-200.000	0.001	-0.133
-347.450	14.119	0.214	-0.168
-346.435	114.160	-0.076	-0.093
-345.420	-54.427	0.201	-0.092
-344.406	-200.000	-0.006	0.089
-343.391	-132.884	-0.132	0.017
-342.377	-171.881	-0.535	-0.018
-341.362	-57.988	0.221	0.097
-340.348	-123.649	0.386	-0.061
-339.333	800.000	-0.117	-0.352
-338.318	-159.723	-0.260	-0.014
-337.304	64.708	0.214	-0.217
-336.289	800.000	0.005	-0.020
-335.275	-93.883	0.219	-0.061
-334.260	-163.097	-0.244	0.012
-333.245	-1.001	-0.331	-0.235
-332.231	59.671	-0.108	0.107
-331.216	-79.008	-0.321	0.109
-330.202	-200.000	-0.028	0.295
-329.187	-15.243	-0.197	0.127
-328.172	89.633	0.153	-0.171
-327.158	-200.000	-0.023	-0.191
-326.143	33.973	-0.066	-0.058
-325.129	33.996	0.339	-0.296
-324.114	800.000	0.096	-0.362
-323.099	800.000	0.042	0.154
-322.085	800.000	0.021	0.068
-321.070	-155.215	0.070	0.005
-320.056	110.579	0.091	-0.110
-319.041	228.919	-0.068	-0.111
-318.026	253.115	0.061	-0.104
-317.012	236.088	-0.097	-0.160
-315.997	-200.000	0.044	-0.301
-314.983	151.951	-0.096	-0.131
-313.968	-40.362	-0.137	-0.072
-312.953	800.000	0.036	0.134
-311.939	89.833	-0.161	-0.180
-310.924	800.000	0.023	-0.078
-309.910	18.146	0.090	0.072
-308.895	102.207	0.063	0.074
-307.880	-200.000	0.003	-0.047
-306.866	116.162	0.230	0.283
-305.851	-124.244	-0.326	0.051
-304.837	-200.000	0.014	-0.156
-303.822	20.961	-0.169	0.137
-302.807	65.285	0.072	-0.073
-301.793	-200.000	0.049	0.251
-300.778	-60.615	-0.488	0.208
-299.764	236.895	-0.077	-0.129
-298.749	-162.658	0.181	-0.009
-297.735	800.000	0.032	-0.108
-296.720	220.787	-0.059	-0.095
-295.705	-200.000	-0.047	0.220
-294.691	-82.750	0.158	-0.051
-293.676	-116.236	-0.412	-0.077
-292.662	800.000	-0.103	0.307
-291.647	447.219	0.170	0.375
-290.632	-200.000	0.072	-0.333
-289.618	-96.379	0.074	0.020
-288.603	-29.740	0.075	0.043
-287.589	800.000	0.062	-0.192
-286.574	-121.363	-0.046	-0.008
-285.559	-200.000	0.012	-0.107
-284.545	-53.670	-0.100	0.046
-283.530	12.846	-0.225	-0.174
-282.516	-111.010	-0.295	0.061
-281.501	95.388	0.202	0.231
-280.486	-2.046	0.145	0.102
-279.472	211.178	0.233	0.367
-278.457	-55.717	-0.395	0.177
-277.443	-135.177	0.167	0.020
-276.428	59.132	0.163	0.160
-275.413	312.490	0.093	0.175
-274.399	-10.748	-0.130	0.086
-273.384	-33.589	-0.126	-0.069
-272.370	139.936	-0.100	-0.132
-271.355	38.773	-0.103	-0.092
-270.340	-200.000	-0.002	0.231
-269.326	-103.591	-0.109	-0.026
-268.311	-200.000	-0.021	0.173
-267.297	-48.462	-0.058	-0.028
-266.282	-110.400	-0.150	-0.031
-265.267	110.896	0.038	0.046
-264.253	159.450	-0.052	-0.073
-263.238	-200.000	0.005	-0.041
-262.224	-70.192	-0.212	0.081
-261.209	147.514	-0.278	-0.375
-260.195	-200.000	-0.040	0.260
-259.180	49.197	-0.201	0.189
-258.165	-95.557	0.352	-0.095
-257.151	370.896	0.063	0.128
-256.136	-200.000	0.002	-0.010
-255.122	19.443	-0.053	-0.042
-254.107	86.842	0.057	0.063
-253.092	-55.085	-0.240	-0.108
-252.078	3.811	0.106	-0.077
-251.063	-200.000	0.006	0.422
-250.049	-128.169	-0.411	0.059
-249.034	-188.807	0.368	-0.004
-248.019	46.153	-0.125	-0.116
-247.005	-123.159	-0.071	-0.011
-245.990	-200.000	0.037	-0.205
-244.976	183.838	0.136	0.201
-243.961	800.000	-0.040	0.125
-242.946	800.000	0.047	0.152
-241.932	-200.000	-0.037	0.324
-240.917	-61.442	-0.249	-0.105
-239.903	-59.540	-0.195	0.084
-238.888	-51.756	-0.311	0.145
-237.873	-126.659	0.026	-0.004
-236.859	-124.187	-0.241	-0.038
-235.844	-12.743	-0.030	0.020
-234.830	-99.970	-0.302	0.075
-233.815	509.753	-0.066	-0.154
-232.800	-200.000	-0.028	0.268
-231.786	-11.512	-0.273	-0.180
-230.771	-49.913	0.169	-0.080
-229.757	431.414	0.113	-0.244
-228.742	-35.869	-0.170	0.092
-227.727	122.552	0.184	0.230
-226.713	-15.788	-0.163	0.104
-225.698	6.069	0.238	0.176
-224.684	-33.036	0.076	-0.042
-223.669	-200.000	0.022	-0.165
-222.655	-111.528	-0.338	-0.069
-221.640	-10.491	0.098	0.065
-220.625	-200.000	0.043	-0.293
-219.611	-181.632	-0.192	-0.004
-218.596	800.000	0.095	0.411
-217.582	36.582	0.170	-0.150
-216.567	-124.583	0.148	-0.023
-215.552	-200.000	-0.215	0.001
-214.538	-105.654	-0.427	-0.097
-213.523	-107.052	-0.249	-0.055
-212.509	-200.000	-0.020	0.154
-211.494	78.494	-0.144	0.154
-210.479	302.209	0.133	0.246
-209.465	-200.000	0.014	0.189
-208.450	148.612	-0.121	0.163
-207.436	800.000	0.070	0.305
-206.421	-73.519	-0.070	-0.026
-205.406	33.808	0.232	-0.201
-204.392	-130.343	0.304	0.041
-203.377	416.273	-0.019	-0.039
-202.363	800.000	0.144	0.412
-201.348	-108.604	-0.087	0.019
-200.333	-77.108	0.340	0.118
-199.319	-100.948	0.172	-0.042
-198.304	191.213	-0.107	-0.162
-197.290	395.607	-0.116	-0.241
-196.275	195.895	-0.191	-0.290
-195.260	337.112	-0.095	0.184
-194.246	-51.401	-0.244	-0.114
-193.231	-39.357	-0.236	-0.124
-192.217	-55.711	-0.063	0.028
-191.202	-108.510	-0.336	0.072
-190.187	800.000	0.200	0.569
-189.173	-71.531	0.116	0.043
-188.158	319.274	-0.207	-0.392
-187.144	-9.880	-0.030	-0.020
-186.129	-8.200	0.245	-0.165
-185.114	-66.203	0.180	-0.072
-184.100	67.526	-0.047	0.048
-183.085	-55.548	0.411	0.184
-182.071	800.000	0.069	-0.241
-181.056	800.000	-0.071	-0.246
-180.042	-200.000	0.002	-0.399
-179.027	-134.282	-0.324	0.040
-178.012	800.000	0.074	-0.267
-176.998	-51.926	0.131	0.061
-175.983	-25.298	0.142	-0.084
-174.969	-200.000	0.008	0.156
-173.954	-200.000	0.024	0.242
-172.939	-83.145	0.355	0.114
-171.925	-6.045	0.141	0.096
-170.910	-200.000	0.008	0.096
-169.896	-200.000	-0.003	0.175
-168.881	47.194	-0.060	-0.056
-167.866	-200.000	0.017	-0.172
-166.852	390.401	0.072	0.149
-165.837	212.665	0.042	0.066
-164.823	-125.561	0.492	-0.074
-163.808	-64.622	-0.333	0.135
-162.793	99.858	0.059	-0.068
-161.779	88.186	-0.138	-0.153
-160.764	-96.769	0.295	0.077
-159.750	-7.169	-0.421	-0.285
-158.735	94.768	0.049	-0.055
-157.720	64.405	0.026	-0.026
-156.706	-200.000	-0.029	0.274
-155.691	-109.407	-0.161	-0.034
-154.677	800.000	-0.087	0.280
-153.662	-200.000	-0.014	0.077
-152.647	800.000	0.037	-0.159
-151.633	595.241	0.067	0.166
-150.618	-94.740	0.277	0.075
-149.604	-23.496	-0.233	-0.140
-148.589	-59.922	0.325	0.139
-147.574	705.729	0.051	-0.134
-146.560	281.252	-0.118	0.211
-145.545	289.857	-0.080	0.144
-144.531	271.644	-0.132	-0.232
-143.516	-108.212	-0.295	0.064
-142.502	130.667	-0.128	0.163
-141.487	800.000	0.094	0.330
-140.472	800.000	0.077	-0.256
-139.458	222.057	0.123	0.197
-138.443	-173.109	-0.300	0.009
-137.429	279.620	-0.071	0.126
-136.414	406.423	0.060	0.125
-135.399	17.556	0.091	-0.072
-134.385	762.922	-0.027	0.074
-133.370	134.007	-0.222	0.286
-132.356	38.262	0.145	0.129
-131.341	181.676	-0.227	0.332
-130.326	-85.803	-0.146	0.045
-129.312	17.235	-0.147	0.116
-128.297	149.570	-0.053	0.072
-127.283	-149.557	-0.186	0.015
-126.268	49.305	-0.119	-0.111
-125.253	800.000	-0.071	-0.205
-124.239	-88.487	0.343	0.102
-123.224	-161.745	-0.167	-0.008
-122.210	-15.005	-0.269	-0.172
-121.195	177.444	-0.112	0.162
-120.180	134.330	0.195	-0.251
-119.166	436.211	-0.118	0.256
-118.151	800.000	0.053	0.206
-117.137	118.291	-0.254	0.312
-116.122	-182.664	0.034	-0.001
-115.107	60.743	-0.174	-0.172
-114.093	296.424	-0.153	0.279
-113.078	-19.628	0.326	0.201
-112.064	50.193	0.137	0.129
-111.049	-200.000	-0.016	0.105
-110.034	111.079	-0.149	-0.179
-109.020	-145.828	0.234	0.021
-108.005	657.912	0.077	-0.196
-106.991	-24.147	0.118	-0.070
-105.976	-79.318	0.099	0.033
-104.962	28.700	0.303	-0.255
-103.947	-158.865	-0.097	-0.006
-102.932	-200.000	-0.013	0.106
-101.918	272.743	0.061	-0.107
-100.903	-55.080	0.171	-0.077
-99.889	109.784	-0.098	0.117
-98.874	-200.000	-0.027	0.166
-97.859	-17.371	-0.138	0.086
-96.845	-200.000	0.024	0.269
-95.830	-200.000	-0.009	-0.147
-94.816	179.383	-0.135	0.197
-93.801	18.051	-0.236	-0.187
-92.786	-76.032	0.212	-0.075
-91.772	-36.447	-0.121	-0.065
-90.757	-142.787	0.243	0.024
-89.743	229.367	-0.136	0.221
-88.728	26.397	0.034	-0.029
-87.713	766.575	-0.026	0.071
-86.699	-47.595	0.311	0.150
-85.684	-200.000	-0.013	0.203
-84.670	-84.412	-0.170	0.054
-83.655	-200.000	0.016	-0.155
-82.640	179.447	-0.094	-0.136
-81.626	-121.260	0.282	-0.047
-80.611	721.514	0.055	-0.146
-79.597	-200.000	0.012	-0.225
-78.582	-156.052	0.269	-0.017
-77.567	103.600	0.023	0.027
-76.553	33.655	-0.265	0.229
-75.538	-36.679	0.147	0.078
-74.524	733.721	-0.073	-0.194
-73.509	-43.999	0.057	0.029
-72.494	436.692	-0.172	0.371
-71.480	800.000	0.065	-0.264
-70.465	301.377	-0.005	-0.010
-69.451	-93.603	-0.212	0.058
-68.436	-85.414	-0.062	0.019
-67.422	126.705	-0.140	0.176
-66.407	-35.161	0.207	0.112
-65.392	-149.805	0.103	-0.008
-64.378	-168.841	-0.213	0.008
-63.363	36.676	0.098	-0.086
-62.349	-200.000	0.038	0.266
-61.334	-17.490	-0.811	-0.507
-60.319	84.217	0.484	0.526
-59.305	-200.000	0.050	-0.763
-58.290	800.000	0.223	0.732
-57.276	267.916	0.915	1.591
-56.261	-200.000	92.539	542.771
-55.246	592.785	1386.066	3401.240
-54.232	184.737	2603.959	3834.320
-53.217	120.831	2201.699	2719.277
-52.203	47.038	1649.725	1524.142
-51.188	38.987	1382.456	1227.120
-50.173	35.591	1340.040	1168.808
-49.159	55.810	1387.083	1335.400
-48.144	60.156	1405.180	1379.642
-47.130	39.291	1360.618	1209.415
-46.115	35.646	1343.083	1171.607
-45.100	35.373	1338.073	1165.531
-44.086	35.355	1335.454	1163.096
-43.071	35.357	1333.251	1161.140
-42.057	35.246	1331.474	1158.880
-41.042	35.326	1329.319	1157.439
-40.027	35.348	1327.906	1156.296
-39.013	35.336	1325.822	1154.366
-37.998	35.431	1323.899	1153.216
-36.984	35.464	1321.845	1151.580
-35.969	35.475	1320.303	1150.253
-34.954	35.476	1318.481	1148.625
-33.940	35.610	1316.887	1147.997
-32.925	35.511	1315.860	1146.461
-31.911	35.673	1314.259	1145.986
-30.896	35.680	1312.714	1144.638
-29.881	35.604	1311.316	1142.923
-28.867	35.702	1309.578	1141.943
-27.852	35.655	1308.499	1140.678
-26.838	35.729	1306.632	1139.441
-25.823	35.589	1305.715	1137.771
-24.809	35.654	1303.825	1136.458
-23.794	35.549	1303.146	1135.205
-22.779	35.590	1301.496	1133.962
-21.765	35.675	1299.822	1132.958
-20.750	35.614	1298.952	1131.797
-19.736	35.522	1297.667	1130.091
-18.721	35.529	1296.187	1128.801
-17.706	35.404	1295.068	1127.049
-16.692	35.498	1293.816	1126.463
-15.677	35.504	1292.466	1125.280
-14.663	35.491	1291.536	1124.348
-13.648	35.344	1290.486	1122.527
-12.633	35.401	1289.459	1121.927
-11.619	35.311	1288.918	1120.883
-10.604	35.379	1287.872	1120.329
-9.590	35.391	1286.711	1119.344
-8.575	35.337	1286.098	1118.448
-7.560	35.371	1284.969	1117.623
-6.546	35.438	1283.695	1116.861
-5.531	35.303	1283.473	1115.837
-4.517	35.317	1282.470	1115.001
-3.502	35.385	1281.293	1114.329
-2.487	35.416	1280.398	1113.683
-1.473	35.585	1275.782	1110.605
-0.458	34.411	1261.348	1091.278
0.556	32.805	1242.605	1050.854
1.571	28.602	1245.943	1030.052
2.586	26.894	1259.551	1031.508
3.600	24.973	1246.324	1009.766
4.615	18.714	1172.302	916.410
5.629	9.533	1094.630	809.653
6.644	5.117	1072.941	771.740
7.659	4.618	1070.627	767.541
8.673	4.482	1069.137	765.737
9.688	4.475	1067.699	764.601
10.702	5.171	1066.602	767.171
11.717	11.015	1075.120	802.109
12.731	19.456	1087.323	853.047
13.746	22.535	1090.066	870.359
14.761	21.912	1088.670	866.091
15.775	21.009	1086.632	859.946
16.790	19.981	1084.817	853.368
17.804	19.184	1082.981	847.925
18.819	18.921	1082.140	845.898
19.834	18.770	1081.622	844.677
20.848	18.626	1080.549	843.055
21.863	18.505	1079.746	841.761
22.877	18.144	1079.431	839.671
23.892	18.247	1078.669	839.509
24.907	18.207	1077.757	838.524
25.921	18.384	1076.153	838.070
26.936	18.263	1075.182	836.648
27.950	18.218	1074.050	835.473
28.965	18.346	1072.479	834.801
29.980	18.517	1071.142	834.523
30.994	18.597	1069.890	833.862
32.009	18.610	1069.167	833.285
33.023	18.637	1067.709	832.209
34.038	18.448	1066.763	830.481
35.053	18.381	1066.161	829.613
36.067	18.545	1064.605	829.123
37.082	18.374	1064.033	827.776
38.096	18.552	1063.449	828.111
39.111	18.632	1062.849	827.953
40.126	18.341	1061.766	825.635
41.140	18.072	1059.818	822.751
42.155	17.975	1058.798	821.419
43.169	17.950	1057.552	820.263
44.184	17.945	1056.852	819.625
45.199	18.098	1055.752	819.431
46.213	18.054	1054.671	818.306
47.228	18.342	1054.333	819.350
48.242	18.303	1053.121	818.150
49.257	18.394	1051.736	817.439
50.271	18.315	1051.452	816.768
51.286	18.469	1050.068	816.354
52.301	18.353	1049.167	815.027
53.315	18.222	1048.156	813.546
54.330	18.011	1047.460	811.934
55.344	18.136	1046.055	811.368
56.359	18.112	1045.757	810.949
57.374	18.079	1044.167	809.490
58.388	17.951	1043.703	808.453
59.403	17.909	1042.954	807.602
60.417	17.883	1042.183	806.811
61.432	17.951	1041.427	806.474
62.447	17.790	1040.556	804.970
63.461	17.841	1039.356	804.210
64.476	17.838	1038.610	803.546
65.490	17.697	1037.909	802.268
66.505	17.826	1036.878	802.007
67.520	17.793	1036.622	801.584
68.534	17.921	1035.710	801.410
69.549	17.922	1034.976	800.772
70.563	17.744	1034.197	799.269
71.578	17.689	1033.200	798.167
72.593	17.586	1032.299	796.918
73.607	17.683	1031.536	796.711
74.622	17.694	1030.841	796.155
75.636	17.670	1030.459	795.679
76.651	17.772	1029.593	795.417
77.666	17.833	1028.966	795.146
78.680	17.637	1028.535	793.829
79.695	17.813	1028.036	794.194
80.709	17.988	1027.259	794.338
81.724	17.965	1026.955	793.925
82.739	18.084	1026.049	793.706
83.753	18.408	1025.149	794.441
84.768	18.607	1024.510	794.800
85.782	18.677	1023.676	794.406
86.797	18.616	1023.127	793.629
87.812	18.355	1021.802	791.326
88.826	18.408	1020.619	790.581
89.841	18.466	1020.191	790.446
90.855	18.632	1019.340	790.486
91.870	18.550	1018.377	789.291
92.884	18.676	1017.230	788.909
93.899	18.639	1016.650	788.223
94.914	18.844	1015.431	788.145
95.928	18.667	1014.882	786.838
96.943	18.665	1013.459	785.658
97.957	18.495	1012.672	784.199
98.972	18.504	1012.146	783.766
99.987	18.595	1011.132	783.325
101.001	18.649	1010.078	782.687
102.016	18.501	1009.432	781.440
103.030	18.587	1008.762	781.246
104.045	18.527	1008.170	780.445
105.060	18.458	1006.884	779.067
106.074	18.130	1005.950	776.785
107.089	17.997	1004.866	775.277
108.103	17.856	1004.227	774.073
109.118	17.895	1003.074	773.294
110.133	17.862	1001.936	772.197
111.147	17.892	1000.990	771.537
112.162	17.962	1000.299	771.253
113.176	18.234	999.571	771.851
114.191	18.199	998.960	771.152
115.206	18.055	998.176	769.832
116.220	17.999	997.348	768.870
117.235	18.087	996.140	768.266
118.249	17.989	995.457	767.233
119.264	17.978	994.831	766.632
120.279	17.875	994.179	765.598
121.293	17.767	992.923	764.084
122.308	17.663	991.948	762.798
123.322	17.712	991.046	762.255
124.337	17.785	989.595	761.399
125.352	17.821	988.663	760.776
126.366	17.711	987.757	759.523
127.381	17.757	986.984	759.064
128.395	17.771	986.147	758.416
129.410	17.848	985.227	757.984
130.424	18.031	983.965	757.758
131.439	18.059	984.017	757.852
132.454	18.155	983.125	757.526
133.468	18.181	982.025	756.723
134.483	18.100	981.406	755.823
135.497	18.148	980.762	755.471
136.512	18.131	979.721	754.528
137.527	18.109	979.216	753.976
138.541	18.144	978.069	753.180
139.556	18.143	977.741	752.859
140.570	18.332	977.117	753.143
141.585	18.525	976.526	753.468
142.600	18.635	975.441	753.047
143.614	18.729	974.684	752.807
144.629	18.710	973.520	751.758
145.643	18.593	972.861	750.669
146.658	18.367	971.395	748.487
147.673	18.269	970.217	747.084
148.687	18.189	969.637	746.223
149.702	18.242	968.633	745.617
150.716	17.995	968.274	744.197
151.731	18.167	967.161	744.026
152.746	18.174	966.209	743.258
153.760	18.244	965.753	743.145
154.775	18.357	965.230	743.164
155.789	18.389	964.457	742.642
156.804	18.360	963.605	741.798
157.819	18.451	962.919	741.596
158.833	18.601	962.436	741.809
159.848	18.655	961.740	741.438
160.862	18.566	960.824	740.285
161.877	18.341	959.787	738.449
162.892	18.229	958.213	736.692
163.906	18.088	957.280	735.299
164.921	18.154	956.675	735.056
165.935	18.305	955.710	734.898
166.950	18.406	954.848	734.602
167.964	18.380	954.315	734.013
168.979	18.198	953.669	732.673
169.994	18.258	952.145	731.695
171.008	18.349	951.774	731.733
172.023	18.473	951.289	731.824
173.037	18.687	950.524	732.084
174.052	18.500	949.863	730.713
175.067	18.131	949.011	728.422
176.081	18.024	948.533	727.535
177.096	18.010	947.691	726.766
178.110	18.282	946.821	727.189
179.125	18.292	946.205	726.695
180.140	18.334	945.962	726.623
181.154	18.546	945.356	726.992
182.169	18.623	945.072	727.034
183.183	18.651	944.419	726.589
184.198	18.560	943.261	725.248
185.213	18.612	942.748	725.009
186.227	18.770	941.678	724.789
187.242	18.684	941.748	724.415
188.256	18.848	941.232	724.646
189.271	18.811	940.262	723.678
190.286	18.549	939.229	721.717
191.300	18.105	938.361	719.117
192.315	17.931	937.768	717.871
193.329	18.152	936.991	718.141
194.344	18.337	936.728	718.652
195.359	18.417	936.217	718.532
196.373	18.461	935.727	718.275
197.388	18.700	935.465	719.010
198.402	18.874	934.688	719.080
199.417	18.901	934.351	718.870
200.432	18.998	933.877	718.848
201.446	19.094	933.403	718.819
202.461	19.131	932.881	718.508
203.475	18.977	932.638	717.613
204.490	18.845	930.745	715.544
205.504	18.789	930.217	714.842
206.519	18.927	929.067	714.468
207.534	18.778	928.810	713.591
208.548	18.722	928.572	713.112
209.563	18.846	927.393	712.656
210.577	18.830	926.847	712.109
211.592	18.993	926.312	712.309
212.607	19.116	925.090	711.814
213.621	18.970	924.952	711.040
214.636	18.980	924.722	710.843
215.650	18.995	923.795	710.128
216.665	18.929	923.214	709.348
217.680	19.212	922.262	709.718
218.694	19.205	921.972	709.404
219.709	19.132	921.039	708.324
220.723	18.911	920.654	707.055
221.738	18.996	919.680	706.593
222.753	19.189	918.863	706.698
223.767	19.147	918.811	706.424
224.782	19.315	917.879	706.330
225.796	19.238	917.819	705.907
226.811	19.219	916.739	704.937
227.826	19.094	916.149	703.911
228.840	19.101	915.061	703.041
229.855	18.963	914.953	702.329
230.869	19.037	913.888	701.753
231.884	19.046	913.042	701.079
232.899	19.097	911.825	700.288
233.913	18.970	911.470	699.439
234.928	18.758	910.899	698.074
235.942	18.822	910.377	697.873
236.957	18.903	909.497	697.468
237.972	18.916	909.033	697.101
238.986	18.817	908.468	696.206
240.001	18.833	907.866	695.746
241.015	18.962	907.283	695.763
242.030	19.000	906.635	695.356
243.045	19.194	906.034	695.616
244.059	19.058	905.454	694.561
245.074	19.215	904.972	694.765
246.088	19.221	904.433	694.312
247.103	19.348	903.706	694.204
248.117	19.493	902.983	694.171
249.132	19.674	903.147	694.963
250.147	19.860	902.396	695.071
251.161	19.852	901.960	694.640
252.176	19.841	901.332	694.052
253.190	20.081	900.628	694.412
254.205	19.891	900.435	693.440
255.220	19.964	899.789	693.172
256.234	19.864	898.914	692.038
257.249	19.928	897.936	691.480
258.263	20.058	897.035	691.243
259.278	19.893	896.490	690.105
260.293	20.011	896.014	690.145
261.307	19.992	895.854	689.886
262.322	20.108	895.201	689.784
263.336	20.168	894.075	689.095
264.351	20.205	893.050	688.391
265.366	20.273	892.412	688.106
266.380	20.257	892.040	687.697
267.395	19.919	891.542	685.914
268.409	19.953	890.618	685.275
269.424	19.910	889.897	684.490
270.439	19.949	889.270	684.100
271.453	19.888	888.428	683.152
272.468	19.883	887.700	682.514
273.482	19.767	887.309	681.695
274.497	19.879	886.938	681.791
275.512	19.963	885.900	681.262
276.526	19.850	885.877	680.739
277.541	19.978	885.301	680.738
278.555	20.152	885.020	681.147
279.570	20.257	884.620	681.189
280.585	20.339	882.958	680.173
281.599	20.064	882.490	678.674
282.614	20.025	881.980	678.071
283.628	19.974	881.040	677.088
284.643	20.034	880.577	676.907
285.657	19.916	880.175	676.078
286.672	20.153	879.330	676.293
287.687	20.073	878.838	675.544
288.701	20.128	878.193	675.202
289.716	20.280	877.537	675.228
290.730	20.202	876.813	674.307
291.745	20.249	876.176	673.943
292.760	20.237	876.001	673.701
293.774	20.448	875.380	673.984
294.789	20.294	874.700	672.803
295.803	20.100	873.873	671.353
296.818	20.092	872.987	670.585
297.833	20.124	872.477	670.258
298.847	20.206	871.658	669.884
299.862	20.057	871.260	668.943
300.876	20.217	870.847	669.185
301.891	20.353	870.517	669.399
302.906	20.502	869.749	669.322
303.920	20.667	869.534	669.733
304.935	20.669	869.333	669.524
305.949	20.639	868.513	668.720
306.964	20.455	867.269	666.995
307.979	20.525	867.020	667.016
308.993	20.682	866.432	667.104
310.008	20.542	866.133	666.279
311.022	20.518	865.245	665.447
312.037	20.428	864.695	664.617
313.052	20.244	863.820	663.185
314.066	20.180	863.079	662.310
315.081	20.211	862.649	662.042
316.095	20.212	862.356	661.761
317.110	20.399	861.413	661.695
318.125	20.185	860.975	660.482
319.139	20.185	860.634	660.163
320.154	20.234	860.246	659.991
321.168	20.199	859.535	659.256
322.183	20.453	858.953	659.717
323.197	20.348	858.699	659.063
324.212	20.406	858.114	658.777
325.227	20.264	857.311	657.564
326.241	20.457	856.528	657.635
327.256	20.191	856.094	656.239
328.270	20.495	855.313	656.730
329.285	20.297	854.864	655.580
330.300	20.367	853.953	655.087
331.314	20.442	853.886	655.260
332.329	20.439	853.680	655.034
333.343	20.550	853.320	655.116
334.358	20.594	852.473	654.576
335.373	20.694	852.134	654.635
336.387	20.725	852.087	654.654
337.402	20.763	851.944	654.630
338.416	20.779	851.316	654.150
339.431	20.946	851.193	654.624
340.446	21.057	850.614	654.537
341.460	21.016	850.593	654.312
342.475	20.981	850.064	653.712
343.489	21.192	849.803	654.248
344.504	21.198	849.032	653.616
345.519	21.249	848.830	653.594
346.533	21.197	847.947	652.663
347.548	21.026	847.112	651.325
348.562	20.815	846.455	649.973
349.577	20.681	846.084	649.132
350.592	20.729	845.114	648.507
351.606	20.683	844.953	648.155
352.621	20.718	843.874	647.401
353.635	20.762	843.559	647.267
354.650	20.914	842.643	647.069
355.665	20.926	842.253	646.757
356.679	20.958	841.754	646.435
357.694	20.905	841.251	645.796
358.708	20.921	840.042	644.869
359.723	21.035	839.866	645.101
360.738	21.010	839.025	644.304
361.752	21.072	838.625	644.170
362.767	21.218	838.104	644.252
363.781	21.275	837.859	644.217
364.796	21.398	837.488	644.326
365.810	21.350	837.402	644.026
366.825	21.588	836.669	644.283
367.840	21.573	836.239	643.840
368.854	21.304	835.562	642.273
369.869	21.245	835.071	641.621
370.883	21.499	834.649	642.172
371.898	21.562	834.154	641.965
372.913	21.498	834.434	641.891
373.927	21.375	833.435	640.615
374.942	21.512	832.639	640.445
375.956	21.592	832.548	640.613
376.971	21.554	832.254	640.191
377.986	21.748	831.828	640.514
379.000	21.615	831.102	639.415
380.015	21.706	830.633	639.327
381.029	21.835	829.848	639.139
382.044	21.566	829.655	637.954
383.059	21.726	829.061	638.021
384.073	21.599	828.447	637.029
385.088	21.299	827.849	635.424
386.102	21.371	827.145	635.088
387.117	21.348	825.867	633.969
388.132	21.364	825.488	633.678
389.146	21.349	825.370	633.476
390.161	21.662	824.741	634.072
391.175	21.824	824.264	634.237
392.190	21.596	823.742	632.953
393.205	21.439	823.430	632.091
394.219	21.320	823.005	631.278
395.234	21.427	822.422	631.161
396.248	21.286	822.104	630.354
397.263	21.166	821.448	629.362
398.278	21.307	820.925	629.412
399.292	21.311	820.631	629.148
400.307	21.212	819.895	628.172
401.321	21.292	819.645	628.210
402.336	21.299	819.283	627.904
403.350	21.476	818.776	628.096
404.365	21.598	818.517	628.278
405.380	21.636	818.497	628.344
406.394	21.947	817.521	628.651
407.409	21.890	817.453	628.340
408.423	21.915	816.895	627.945
409.438	22.108	816.543	628.310
410.453	22.127	816.135	628.008
411.467	22.195	815.579	627.766
412.482	22.181	815.481	627.587
413.496	22.388	815.059	627.945
414.511	22.217	814.810	627.087
415.526	22.166	813.868	626.127
416.540	21.983	813.781	625.353
417.555	22.150	813.045	625.325
418.569	22.154	812.630	624.966
419.584	22.208	812.271	624.823
420.599	22.049	812.020	624.012
421.613	157.794	1369.378	1786.766
422.628	137.314	1450.581	1786.885
