DTS Sentinel unit serial number:	SN413079Multiplexer serial number:	ORYXHardware model number:	OX4-SRSoftware version number:	ORYX F/W v4.00 Oryx Data Collector v3.7.2.0data status	okinstallation	princeton_trtdifferential loss correction	single-endedforward channel	channel 1reverse channel	N/Adate	2019/09/15time	17:06:35forward acquisition time	60.00reverse acquisition time	0.00gamma	496.2192k internal	0.2291k external	0.2291temperature offset calibration	0.9938default loss term (dB/km)	0.3790temperature slope calibration	1.0000multiplexer offset coefficient	1.0000multiplexer slope coefficient	1.0000fibre end	0.00T internal ref (°C)	44.56T ext. ref 1 (°C)	5.92T ext. ref 2 (°C)	40.43length (m)	temperature (°C)	Stokes	anti-Stokes-747.200	-200.000	-0.005	0.095
-746.185	89.185	-0.066	0.076
-745.171	38.923	0.112	0.102
-744.156	-200.000	-0.035	0.290
-743.142	-85.619	-0.189	-0.060
-742.127	-195.818	-0.210	0.002
-741.112	-111.164	-0.367	0.077
-740.098	-61.395	-0.271	-0.117
-739.083	-51.995	-0.183	-0.087
-738.069	800.000	-0.123	0.389
-737.054	-200.000	-0.020	0.186
-736.039	-122.390	0.109	0.018
-735.025	53.675	0.198	0.195
-734.010	142.637	0.131	-0.178
-732.996	291.156	-0.037	-0.068
-731.981	-3.946	0.112	-0.080
-730.966	-159.916	0.321	-0.018
-729.952	38.068	-0.050	0.046
-728.937	-149.864	0.279	-0.022
-727.923	-200.000	-0.067	-0.347
-726.908	800.000	0.087	-0.322
-725.894	-138.870	-0.376	-0.042
-724.879	-103.363	-0.406	-0.098
-723.864	-43.487	-0.402	-0.208
-722.850	25.855	0.157	-0.134
-721.835	195.361	-0.228	0.355
-720.821	-78.449	0.141	-0.050
-719.806	-200.000	0.024	-0.225
-718.791	22.573	0.128	-0.107
-717.777	235.323	-0.153	-0.258
-716.762	283.875	0.258	-0.475
-715.748	800.000	0.014	-0.046
-714.733	-115.382	-0.101	-0.020
-713.718	-200.000	0.014	-0.103
-712.704	427.365	0.149	0.328
-711.689	-200.000	-0.041	0.265
-710.675	-63.208	-0.158	-0.067
-709.660	-19.554	0.327	0.207
-708.645	-117.131	0.230	-0.043
-707.631	-133.372	-0.313	0.040
-706.616	-93.121	0.051	-0.014
-705.602	-107.675	0.142	-0.032
-704.587	-200.000	-0.011	-0.198
-703.572	-88.374	-0.276	0.084
-702.558	7.030	-0.103	0.079
-701.543	-41.361	0.129	0.068
-700.529	-33.625	0.009	0.005
-699.514	-68.384	0.066	-0.026
-698.499	800.000	0.040	-0.159
-697.485	108.485	-0.181	-0.221
-696.470	800.000	0.116	-0.456
-695.456	-57.776	-0.124	-0.056
-694.441	169.393	-0.238	-0.347
-693.426	140.534	-0.131	0.177
-692.412	616.161	0.046	-0.117
-691.397	28.411	0.270	-0.234
-690.383	216.905	-0.055	-0.089
-689.368	-200.000	-0.029	-0.151
-688.354	800.000	0.085	0.249
-687.339	308.646	-0.060	0.114
-686.324	-82.551	-0.188	-0.062
-685.310	800.000	-0.029	-0.084
-684.295	-200.000	0.020	-0.118
-683.281	448.424	0.196	0.441
-682.266	-174.105	-0.235	-0.007
-681.251	-69.413	-0.107	0.042
-680.237	-80.040	0.127	-0.044
-679.222	-200.000	-0.032	0.281
-678.208	231.827	0.092	-0.154
-677.193	-112.084	-0.353	-0.072
-676.178	800.000	0.087	-0.378
-675.164	-200.000	0.002	-0.346
-674.149	800.000	-0.031	-0.102
-673.135	46.711	-0.179	0.170
-672.120	69.210	-0.134	0.141
-671.105	-119.309	0.087	-0.016
-670.091	-200.000	0.004	0.107
-669.076	-111.766	0.087	0.018
-668.062	800.000	-0.071	0.209
-667.047	-200.000	-0.007	-0.258
-666.032	800.000	0.121	-0.369
-665.018	-107.536	0.281	0.063
-664.003	-39.121	0.086	0.046
-662.989	-1.990	0.145	-0.104
-661.974	191.374	-0.191	-0.293
-660.959	460.145	0.098	0.223
-659.945	406.116	-0.051	0.111
-658.930	-6.490	0.298	0.207
-657.916	-78.031	-0.102	-0.036
-656.901	-67.823	0.311	0.124
-655.886	37.895	0.238	0.216
-654.872	194.932	0.048	-0.075
-653.857	-58.754	0.246	-0.109
-652.843	43.192	0.275	-0.256
-651.828	800.000	-0.054	-0.164
-650.814	-28.607	0.198	-0.116
-649.799	800.000	-0.076	-0.286
-648.784	83.784	0.104	-0.116
-647.770	8.556	0.229	0.176
-646.755	95.015	-0.120	-0.139
-645.741	653.673	0.080	-0.209
-644.726	130.468	0.127	-0.166
-643.711	-1.248	0.152	-0.109
-642.697	-22.741	0.061	-0.037
-641.682	79.629	-0.160	0.176
-640.668	-200.000	-0.001	0.117
-639.653	-86.806	-0.259	-0.081
-638.638	183.315	0.190	0.287
-637.624	248.395	0.029	-0.051
-636.609	-200.000	-0.008	-0.229
-635.595	307.778	-0.091	-0.173
-634.580	169.663	-0.186	-0.271
-633.565	800.000	0.042	0.131
-632.551	66.625	-0.056	-0.058
-631.536	-35.632	-0.083	-0.046
-630.522	-37.764	0.003	-0.002
-629.507	29.756	-0.170	0.147
-628.492	54.219	0.118	0.116
-627.478	742.209	-0.095	-0.261
-626.463	-73.445	-0.129	-0.048
-625.449	378.649	-0.119	0.249
-624.434	-46.998	-0.061	0.030
-623.419	102.781	-0.279	0.333
-622.405	-14.766	-0.184	-0.120
-621.390	459.683	0.179	-0.406
-620.376	464.259	0.059	-0.134
-619.361	290.841	0.022	0.041
-618.346	47.281	-0.173	0.164
-617.332	-137.178	0.085	-0.010
-616.317	-0.836	-0.116	-0.084
-615.303	222.023	-0.096	-0.157
-614.288	-54.982	-0.148	-0.068
-613.273	800.000	0.039	-0.126
-612.259	800.000	0.052	0.198
-611.244	-200.000	-0.021	0.172
-610.230	145.582	0.089	0.122
-609.215	176.121	-0.062	0.091
-608.201	56.190	-0.111	-0.109
-607.186	-140.313	0.090	0.010
-606.171	-172.376	-0.447	-0.015
-605.157	-85.281	-0.341	0.108
-604.142	2.324	-0.216	-0.159
-603.128	-84.429	-0.304	-0.098
-602.113	800.000	-0.047	-0.205
-601.098	0.382	0.143	0.104
-600.084	208.651	0.057	-0.090
-599.069	477.242	-0.050	0.115
-598.055	-200.000	-0.053	0.334
-597.040	289.755	0.110	0.203
-596.025	-64.102	-0.111	0.046
-595.011	168.099	-0.115	0.167
-593.996	72.107	0.020	0.021
-592.982	-38.746	0.254	-0.136
-591.967	-200.000	0.032	-0.172
-590.952	-18.330	0.293	0.186
-589.938	-113.437	-0.358	-0.071
-588.923	137.657	0.076	0.102
-587.909	-60.548	-0.326	-0.141
-586.894	0.470	-0.150	-0.109
-585.879	-3.317	0.355	-0.251
-584.865	-3.083	-0.192	0.137
-583.850	-152.403	-0.407	0.030
-582.836	-200.000	0.003	-0.342
-581.821	4.919	0.246	0.184
-580.806	-80.661	-0.394	-0.133
-579.792	-128.793	0.131	-0.019
-578.777	253.151	-0.072	0.124
-577.763	-200.000	-0.021	0.170
-576.748	-200.000	-0.045	-0.348
-575.733	-148.319	0.299	-0.025
-574.719	-53.528	0.041	-0.019
-573.704	800.000	-0.015	-0.046
-572.690	-200.000	-0.065	-0.302
-571.675	-200.000	0.011	0.053
-570.661	-64.276	-0.277	0.115
-569.646	-27.995	0.305	-0.180
-568.631	421.453	0.046	0.100
-567.617	-27.573	0.042	-0.025
-566.602	51.144	-0.019	0.018
-565.588	68.385	-0.049	0.051
-564.573	-68.260	-0.321	0.127
-563.558	-87.369	0.108	-0.033
-562.544	81.382	-0.130	-0.143
-561.529	-121.113	0.048	-0.008
-560.515	-41.387	-0.174	-0.091
-559.500	140.179	-0.150	-0.201
-558.485	516.336	-0.021	0.051
-557.471	129.747	-0.142	-0.184
-556.456	-85.189	-0.429	0.137
-555.442	-74.739	0.121	0.044
-554.427	392.668	-0.117	-0.248
-553.412	-200.000	-0.032	0.194
-552.398	464.527	0.073	-0.167
-551.383	-29.276	-0.228	-0.132
-550.369	502.296	0.205	-0.481
-549.354	566.109	-0.167	-0.412
-548.339	-107.494	-0.308	0.069
-547.325	800.000	-0.050	0.171
-546.310	21.089	-0.266	-0.219
-545.296	-126.910	0.105	0.016
-544.281	-74.638	-0.070	-0.026
-543.266	-73.358	-0.309	0.115
-542.252	800.000	-0.003	-0.011
-541.237	-53.823	-0.076	-0.035
-540.223	414.394	-0.121	-0.262
-539.208	98.701	0.146	-0.171
-538.193	-200.000	0.062	-0.297
-537.179	152.360	-0.081	-0.112
-536.164	800.000	0.047	0.153
-535.150	-98.507	-0.168	0.044
-534.135	167.657	0.096	-0.139
-533.121	-200.000	-0.009	0.066
-532.106	-200.000	0.001	0.137
-531.091	-95.323	0.245	-0.067
-530.077	-200.000	0.050	-0.309
-529.062	-99.091	0.395	0.102
-528.048	594.083	0.025	0.063
-527.033	-27.775	-0.213	0.126
-526.018	58.903	-0.046	0.045
-525.004	175.307	0.053	0.078
-523.989	-124.673	-0.358	0.056
-522.975	-26.902	-0.178	0.106
-521.960	-67.616	0.152	-0.061
-520.945	-200.000	-0.021	0.172
-519.931	-94.527	0.225	-0.062
-518.916	-55.888	-0.099	-0.045
-517.902	63.398	-0.091	-0.092
-516.887	-115.533	0.165	-0.031
-515.872	-200.000	0.054	-0.323
-514.858	-34.644	-0.404	-0.224
-513.843	28.570	0.260	-0.223
-512.829	249.368	-0.028	-0.049
-511.814	-200.000	-0.001	0.188
-510.799	-26.376	-0.421	-0.250
-509.785	-181.440	0.170	0.003
-508.770	33.168	-0.290	0.255
-507.756	22.882	0.111	-0.092
-506.741	166.535	-0.124	-0.179
-505.726	65.804	-0.134	0.137
-504.712	-145.545	-0.300	-0.027
-503.697	800.000	-0.068	0.205
-502.683	248.024	-0.173	0.296
-501.668	196.341	-0.089	-0.138
-500.653	-46.751	-0.008	-0.004
-499.639	64.713	0.144	-0.147
-498.624	17.856	-0.114	-0.092
-497.610	145.290	0.079	-0.107
-496.595	52.817	-0.167	-0.162
-495.581	39.624	-0.073	0.066
-494.566	112.150	-0.248	0.304
-493.551	240.679	0.038	-0.064
-492.537	-135.372	0.213	0.026
-491.522	-51.346	-0.300	-0.142
-490.508	153.292	0.162	0.225
-489.493	-200.000	-0.010	0.392
-488.478	84.764	0.153	0.170
-487.464	65.643	0.061	0.062
-486.449	174.883	-0.105	0.155
-485.435	-67.056	0.264	-0.105
-484.420	197.045	0.082	-0.127
-483.405	-100.186	-0.244	-0.061
-482.391	-175.475	0.373	0.010
-481.376	404.403	-0.156	-0.333
-480.362	-200.000	-0.038	-0.223
-479.347	302.065	-0.121	0.228
-478.332	-149.230	0.120	0.010
-477.318	-126.467	-0.037	0.006
-476.303	-79.483	0.101	0.035
-475.289	388.877	-0.161	-0.338
-474.274	42.133	0.156	0.144
-473.259	299.269	-0.321	-0.598
-472.245	-200.000	0.029	-0.156
-471.230	275.490	0.140	0.252
-470.216	800.000	-0.053	-0.226
-469.201	-94.173	0.182	-0.050
-468.186	-200.000	-0.031	0.195
-467.172	38.933	-0.078	0.070
-466.157	-75.415	0.340	-0.123
-465.143	73.749	-0.149	-0.159
-464.128	279.916	-0.083	-0.150
-463.113	-58.507	0.338	0.149
-462.099	-200.000	0.008	-0.093
-461.084	-90.793	0.292	0.085
-460.070	197.092	-0.049	-0.075
-459.055	-200.000	0.051	0.403
-458.040	-42.030	0.395	-0.205
-457.026	12.283	-0.103	0.080
-456.011	-107.472	-0.265	-0.059
-454.997	0.341	-0.118	0.085
-453.982	-36.778	-0.101	0.055
-452.968	256.986	-0.090	-0.157
-451.953	-73.851	-0.283	0.104
-450.938	-108.024	0.286	0.063
-449.924	109.005	-0.084	0.101
-448.909	-117.684	0.239	0.043
-447.895	81.575	-0.020	0.022
-446.880	-152.562	-0.053	0.004
-445.865	-140.037	0.344	-0.037
-444.851	-56.281	0.082	-0.037
-443.836	143.278	0.107	0.144
-442.822	4.096	0.252	-0.187
-441.807	800.000	-0.042	-0.175
-440.792	130.388	-0.137	0.178
-439.778	-14.377	-0.099	0.065
-438.763	-103.288	-0.170	-0.041
-437.749	-43.702	-0.359	0.183
-436.734	244.311	-0.104	-0.177
-435.719	229.571	-0.096	-0.159
-434.705	-200.000	0.012	-0.188
-433.690	-126.491	-0.326	0.049
-432.676	-76.798	0.258	0.091
-431.661	726.717	0.064	0.171
-430.646	-72.075	-0.152	0.057
-429.632	-65.584	0.011	0.004
-428.617	168.233	0.125	-0.180
-427.603	-200.000	0.001	-0.043
-426.588	-76.440	0.193	-0.069
-425.573	210.738	-0.191	-0.303
-424.559	4.745	0.250	0.186
-423.544	12.386	0.272	0.212
-422.530	-118.237	0.157	0.028
-421.515	202.735	-0.092	-0.143
-420.500	800.000	-0.046	-0.148
-419.486	-200.000	0.043	0.425
-418.471	332.992	-0.036	-0.071
-417.457	-200.000	-0.020	-0.260
-416.442	-89.007	0.116	-0.035
-415.428	488.516	-0.078	0.180
-414.413	800.000	-0.056	0.164
-413.398	140.447	-0.107	-0.142
-412.384	-87.606	0.296	-0.090
-411.369	163.692	0.253	0.360
-410.355	115.073	-0.078	-0.096
-409.340	25.988	-0.256	-0.216
-408.325	436.636	-0.069	-0.152
-407.311	208.683	0.173	-0.273
-406.296	85.741	-0.089	0.099
-405.282	-38.625	0.149	-0.080
-404.267	-29.882	-0.172	-0.099
-403.252	-200.000	0.034	-0.368
-402.238	296.238	0.283	-0.524
-401.223	430.722	0.143	-0.313
-400.209	743.601	-0.126	0.342
-399.194	-46.968	-0.349	-0.172
-398.179	-105.110	-0.032	0.007
-397.165	13.376	-0.134	-0.105
-396.150	448.145	0.111	0.246
-395.136	9.002	-0.150	-0.114
-394.121	-200.000	0.007	-0.264
-393.106	23.726	-0.303	0.252
-392.092	-200.000	0.017	0.121
-391.077	-16.661	0.194	0.124
-390.063	136.956	0.163	0.215
-389.048	-52.096	-0.057	0.027
-388.033	197.038	0.098	-0.151
-387.019	11.039	-0.209	-0.161
-386.004	123.602	0.098	-0.124
-384.990	95.025	0.065	0.074
-383.975	-200.000	-0.019	0.257
-382.960	-152.705	0.189	0.014
-381.946	800.000	0.082	-0.283
-380.931	517.456	0.054	-0.128
-379.917	77.935	-0.125	0.135
-378.902	-32.196	-0.084	0.047
-377.888	283.452	0.123	0.223
-376.873	-72.147	0.210	-0.079
-375.858	-200.000	-0.022	-0.132
-374.844	-136.297	0.142	0.017
-373.829	144.156	0.070	-0.094
-372.815	800.000	0.081	0.240
-371.800	-200.000	-0.004	0.042
-370.785	59.690	0.212	0.211
-369.771	800.000	0.088	-0.276
-368.756	71.671	0.037	0.038
-367.742	-88.300	0.245	0.074
-366.727	684.860	0.094	0.248
-365.712	385.832	-0.139	-0.289
-364.698	800.000	0.034	-0.136
-363.683	-139.564	0.235	-0.025
-362.669	-156.459	0.238	-0.015
-361.654	-163.397	0.109	-0.005
-360.639	-39.101	-0.312	0.166
-359.625	-132.065	0.109	-0.014
-358.610	-59.638	0.202	0.088
-357.596	-200.000	0.107	0.587
-356.581	-200.000	-0.054	0.474
-355.566	-200.000	0.031	0.319
-354.552	-123.453	0.264	-0.042
-353.537	-200.000	-0.013	0.117
-352.523	-200.000	0.001	0.078
-351.508	256.647	0.094	0.162
-350.493	293.758	-0.119	0.219
-349.479	328.001	0.069	0.133
-348.464	-131.798	0.478	0.063
-347.450	-90.301	-0.213	0.062
-346.435	640.740	-0.087	-0.223
-345.420	775.045	0.139	0.381
-344.406	48.965	0.128	0.121
-343.391	-200.000	-0.018	-0.243
-342.377	-80.076	-0.290	0.098
-341.362	327.541	-0.161	0.311
-340.348	-95.733	-0.201	-0.054
-339.333	-19.184	-0.070	0.044
-338.318	-42.845	0.230	0.118
-337.304	-24.811	-0.349	0.209
-336.289	-73.601	-0.077	-0.028
-335.275	13.548	0.137	-0.107
-334.260	-71.359	-0.093	-0.035
-333.245	-16.556	0.146	0.093
-332.231	-10.415	0.052	0.035
-331.216	-200.000	0.062	-0.393
-330.202	-200.000	-0.032	-0.146
-329.187	-147.604	-0.102	-0.009
-328.172	-200.000	-0.048	-0.299
-327.158	233.657	0.111	0.184
-326.143	-200.000	0.011	0.085
-325.129	-188.854	0.409	0.005
-324.114	-56.271	0.176	0.079
-323.099	299.462	-0.029	-0.054
-322.085	800.000	0.032	0.120
-321.070	424.583	-0.082	0.178
-320.056	-89.870	0.168	0.050
-319.041	-112.386	-0.162	-0.033
-318.026	-200.000	-0.022	0.350
-317.012	-133.291	0.203	0.026
-315.997	-24.194	-0.077	-0.046
-314.983	-200.000	0.001	0.103
-313.968	-101.392	0.171	-0.042
-312.953	57.112	-0.041	-0.040
-311.939	-32.987	-0.053	-0.029
-310.924	-200.000	-0.013	0.275
-309.910	-92.273	0.165	0.047
-308.895	-200.000	0.024	0.409
-307.880	-96.011	-0.199	-0.053
-306.866	-83.926	0.079	0.025
-305.851	437.610	-0.164	-0.360
-304.837	16.893	0.098	-0.078
-303.822	-88.311	-0.074	0.022
-302.807	-200.000	0.263	0.001
-301.793	468.839	-0.152	0.344
-300.778	-183.135	0.144	-0.003
-299.764	205.625	-0.264	0.412
-298.749	800.000	-0.049	-0.158
-297.735	-56.639	0.143	0.064
-296.720	18.498	0.091	-0.073
-295.705	540.657	0.056	0.134
-294.691	137.177	-0.069	0.091
-293.676	137.760	-0.058	0.077
-292.662	-132.159	0.108	-0.014
-291.647	13.131	0.177	-0.138
-290.632	177.962	0.164	-0.240
-289.618	-124.315	0.194	-0.031
-288.603	-200.000	-0.011	0.250
-287.589	-14.376	-0.315	0.204
-286.574	64.735	0.170	0.172
-285.559	-200.000	-0.046	-0.238
-284.545	-111.535	-0.100	-0.020
-283.530	800.000	-0.067	0.203
-282.516	-200.000	0.025	-0.174
-281.501	-95.588	0.188	0.051
-280.486	-70.039	-0.163	-0.063
-279.472	-14.855	0.500	-0.323
-278.457	-59.391	0.208	-0.090
-277.443	330.441	0.120	0.233
-276.428	800.000	-0.049	-0.213
-275.413	-200.000	0.031	-0.303
-274.399	-135.175	-0.363	-0.044
-273.384	-158.282	0.148	0.009
-272.370	255.867	-0.118	-0.203
-271.355	100.571	0.232	-0.270
-270.340	-152.612	-0.231	0.017
-269.326	5.255	0.044	0.033
-268.311	303.599	-0.113	-0.211
-267.297	33.388	-0.257	-0.224
-266.282	-200.000	0.009	0.234
-265.267	-92.181	-0.226	0.064
-264.253	-42.212	0.080	0.041
-263.238	101.144	0.180	0.211
-262.224	-192.841	-0.272	0.002
-261.209	-82.991	-0.353	-0.114
-260.195	81.469	-0.052	0.057
-259.180	-38.359	0.140	0.075
-258.165	-18.958	0.331	0.207
-257.151	-200.000	0.012	0.426
-256.136	-107.188	0.120	-0.027
-255.122	414.888	0.253	-0.542
-254.107	98.650	-0.144	0.166
-253.092	-69.096	-0.305	-0.118
-252.078	36.597	-0.037	-0.033
-251.063	-67.512	0.079	-0.031
-250.049	95.501	0.229	-0.263
-249.034	-200.000	0.000	-0.060
-248.019	-2.519	0.233	-0.164
-247.005	-8.365	-0.072	0.049
-245.990	800.000	-0.063	-0.239
-244.976	404.092	-0.079	0.167
-243.961	-200.000	-0.002	0.134
-242.946	-96.950	-0.176	0.046
-241.932	-200.000	-0.007	0.069
-240.917	763.253	0.017	0.046
-239.903	-200.000	-0.049	0.256
-238.888	800.000	0.080	0.331
-237.873	104.039	0.076	0.089
-236.859	-61.038	-0.102	0.043
-235.844	-200.000	0.007	0.033
-234.830	8.451	-0.286	0.216
-233.815	-166.351	-0.284	0.012
-232.800	-144.236	0.320	-0.030
-231.786	-42.692	-0.078	0.040
-230.771	-200.000	0.038	-0.182
-229.757	34.998	-0.202	0.177
-228.742	800.000	-0.021	0.091
-227.727	800.000	0.031	0.100
-226.713	289.619	-0.073	-0.132
-225.698	-19.113	-0.030	0.019
-224.684	-200.000	0.001	-0.090
-223.669	179.680	0.125	0.183
-222.655	-105.394	-0.110	0.025
-221.640	-92.239	-0.259	0.073
-220.625	-2.651	0.221	0.155
-219.611	-156.588	-0.259	0.016
-218.596	-104.720	0.103	0.024
-217.582	55.713	-0.264	0.257
-216.567	-103.650	0.068	0.016
-215.552	-13.989	0.144	-0.093
-214.538	-200.000	0.007	0.066
-213.523	57.178	0.208	0.203
-212.509	-200.000	0.023	0.138
-211.494	-153.600	-0.107	0.007
-210.479	-165.085	-0.272	-0.012
-209.465	800.000	-0.106	0.343
-208.450	-200.000	-0.004	-0.043
-207.436	628.072	0.132	-0.335
-206.421	-138.269	-0.403	-0.045
-205.406	87.356	0.226	0.250
-204.392	-73.814	0.089	0.032
-203.377	-45.670	0.207	0.103
-202.363	-200.000	0.033	-0.182
-201.348	-200.000	-0.008	-0.144
-200.333	-77.621	0.556	0.193
-199.319	-200.000	0.018	0.398
-198.304	252.963	0.089	-0.153
-197.290	-177.035	-0.117	0.003
-196.275	-13.469	-0.194	0.126
-195.260	-95.887	-0.140	-0.037
-194.246	-200.000	0.015	-0.134
-193.231	-200.000	0.020	-0.094
-192.217	-19.877	0.193	0.120
-191.202	2.080	0.142	0.103
-190.187	-163.329	-0.302	0.014
-189.173	9.720	0.162	-0.123
-188.158	-50.791	0.205	-0.097
-187.144	-131.034	0.099	-0.013
-186.129	86.849	0.136	0.150
-185.114	-22.857	0.112	0.068
-184.100	86.406	-0.152	0.168
-183.085	105.894	0.350	-0.415
-182.071	82.533	0.310	-0.337
-181.056	-80.609	-0.143	-0.048
-180.042	169.073	0.125	-0.178
-179.027	27.720	-0.158	0.133
-178.012	-106.287	0.329	0.074
-176.998	-16.165	-0.278	-0.177
-175.983	539.092	0.163	0.388
-174.969	98.706	0.166	0.192
-173.954	311.829	-0.049	0.092
-172.939	712.040	0.083	0.219
-171.925	-42.134	0.182	-0.093
-170.910	800.000	0.043	-0.130
-169.896	776.681	0.039	0.107
-168.881	57.830	0.264	0.258
-167.866	-7.007	0.495	0.336
-166.852	-200.000	-0.016	-0.554
-165.837	63.463	-0.167	-0.168
-164.823	-180.249	-0.062	0.001
-163.808	589.649	0.119	0.293
-162.793	-22.336	-0.243	-0.147
-161.779	13.742	0.115	-0.089
-160.764	145.592	0.118	0.158
-159.750	-200.000	0.055	-0.255
-158.735	1.567	-0.073	0.052
-157.720	129.041	0.305	-0.389
-156.706	-200.000	0.058	0.265
-155.691	99.201	-0.101	0.117
-154.677	259.819	0.141	0.244
-153.662	-74.807	0.122	0.044
-152.647	143.721	-0.111	0.148
-151.633	-200.000	0.019	-0.145
-150.618	28.821	-0.156	0.132
-149.604	-20.195	-0.437	-0.269
-148.589	-83.315	0.097	-0.031
-147.574	800.000	0.050	0.203
-146.560	-108.581	-0.202	0.043
-145.545	-200.000	-0.010	0.098
-144.531	-200.000	-0.010	-0.221
-143.516	-77.784	-0.253	-0.088
-142.502	31.430	-0.052	0.045
-141.487	256.679	-0.115	0.198
-140.472	547.840	0.085	0.203
-139.458	237.078	-0.092	0.152
-138.443	-200.000	0.012	0.386
-137.429	79.963	0.213	-0.229
-136.414	-200.000	0.111	-0.514
-135.399	52.513	0.196	-0.187
-134.385	-167.411	-0.169	0.007
-133.370	205.757	-0.146	-0.227
-132.356	-78.478	0.275	0.094
-131.341	-69.348	0.102	-0.039
-130.326	-164.627	0.101	0.005
-129.312	-200.000	-0.011	-0.136
-128.297	-161.809	0.327	0.017
-127.283	-115.123	0.474	-0.090
-126.268	259.930	-0.084	0.145
-125.253	-200.000	-0.045	0.221
-124.239	-37.936	-0.370	-0.197
-123.224	-9.627	0.239	-0.159
-122.210	51.370	0.158	0.150
-121.195	-200.000	-0.016	0.069
-120.180	-31.241	-0.290	-0.163
-119.166	226.009	0.102	0.165
-118.151	272.176	0.231	0.408
-117.137	159.629	-0.074	-0.103
-116.122	-180.782	-0.148	-0.003
-115.107	3.903	-0.244	-0.179
-114.093	-184.101	-0.163	-0.003
-113.078	-200.000	-0.026	0.232
-112.064	30.398	0.295	0.252
-111.049	207.565	-0.161	-0.251
-110.034	800.000	-0.044	0.184
-109.020	214.310	-0.035	-0.055
-108.005	529.672	-0.068	0.161
-106.991	-10.400	0.457	0.303
-105.976	800.000	-0.048	0.151
-104.962	238.065	-0.005	0.008
-103.947	340.392	0.147	-0.286
-102.932	106.271	0.045	0.054
-101.918	800.000	-0.009	-0.030
-100.903	-22.619	-0.153	-0.092
-99.889	24.435	-0.212	0.175
-98.874	-200.000	0.017	0.307
-97.859	9.481	-0.245	-0.185
-96.845	154.803	-0.096	-0.132
-95.830	800.000	-0.070	0.201
-94.816	-130.125	-0.095	0.013
-93.801	-200.000	0.019	-0.174
-92.786	-200.000	0.036	-0.165
-91.772	-81.806	-0.287	-0.094
-90.757	-138.122	0.068	0.007
-89.743	-200.000	0.017	0.119
-88.728	-200.000	0.030	0.330
-87.713	800.000	0.019	0.054
-86.699	76.646	-0.109	0.115
-85.684	-115.039	-0.191	-0.036
-84.670	800.000	-0.048	0.139
-83.655	-7.881	0.308	0.208
-82.640	70.047	0.076	-0.078
-81.626	-139.087	0.331	-0.036
-80.611	551.506	0.096	0.230
-79.597	376.367	-0.119	0.242
-78.582	-53.526	0.225	0.103
-77.567	-93.633	-0.189	0.052
-76.553	800.000	-0.027	-0.108
-75.538	-200.000	-0.024	-0.116
-74.524	480.293	-0.117	-0.264
-73.509	-200.000	-0.011	0.145
-72.494	261.121	-0.077	-0.134
-71.480	248.013	-0.175	0.296
-70.465	49.073	-0.118	0.111
-69.451	220.167	0.048	-0.076
-68.436	-36.768	-0.099	-0.053
-67.422	-96.913	-0.088	0.023
-66.407	-27.279	-0.078	0.046
-65.392	451.794	0.039	-0.086
-64.378	-137.515	-0.220	0.025
-63.363	73.096	0.003	0.004
-62.349	120.625	-0.094	0.116
-61.334	19.696	-0.725	-0.582
-60.319	323.780	0.112	0.213
-59.305	800.000	-0.185	-0.793
-58.290	265.804	0.382	0.665
-57.276	800.000	0.627	1.746
-56.261	-200.000	69.920	520.036
-55.246	589.253	1259.676	3094.868
-54.232	139.809	2517.987	3307.145
-53.217	121.248	2248.255	2790.410
-52.203	57.789	1692.263	1650.044
-51.188	48.908	1405.743	1315.101
-50.173	44.878	1356.760	1244.682
-49.159	62.038	1387.498	1378.681
-48.144	71.070	1407.259	1453.643
-47.130	49.046	1371.125	1283.356
-46.115	44.750	1354.876	1241.979
-45.100	44.515	1350.312	1236.319
-44.086	44.472	1347.779	1233.692
-43.071	44.447	1345.258	1231.179
-42.057	44.349	1343.621	1229.040
-41.042	44.381	1341.965	1227.669
-40.027	44.525	1340.016	1226.711
-39.013	44.418	1338.445	1224.575
-37.998	44.482	1335.984	1222.660
-36.984	44.579	1334.772	1222.085
-35.969	44.519	1333.019	1220.074
-34.954	44.509	1330.942	1218.066
-33.940	44.627	1329.616	1217.506
-32.925	44.601	1328.423	1216.212
-31.911	44.823	1326.112	1215.374
-30.896	44.741	1324.775	1213.612
-29.881	44.714	1323.105	1211.871
-28.867	44.654	1321.685	1210.167
-27.852	44.716	1320.277	1209.195
-26.838	44.653	1319.374	1207.949
-25.823	44.632	1317.604	1206.155
-24.809	44.740	1316.106	1205.374
-23.794	44.678	1314.510	1203.501
-22.779	44.528	1313.929	1202.035
-21.765	44.610	1312.314	1200.989
-20.750	44.594	1310.965	1199.612
-19.736	44.581	1309.651	1198.291
-18.721	44.476	1308.359	1196.439
-17.706	44.528	1307.172	1195.611
-16.692	44.507	1306.213	1194.566
-15.677	44.409	1305.244	1193.056
-14.663	44.541	1303.892	1192.546
-13.648	44.515	1302.378	1190.961
-12.633	44.529	1301.514	1190.208
-11.619	44.506	1301.305	1189.833
-10.604	44.482	1300.134	1188.574
-9.590	44.512	1299.027	1187.692
-8.575	44.521	1298.097	1186.847
-7.560	44.389	1297.629	1185.604
-6.546	44.544	1296.191	1185.144
-5.531	44.510	1295.385	1184.165
-4.517	44.408	1294.763	1182.956
-3.502	44.552	1293.378	1182.478
-2.487	44.426	1292.769	1181.145
-1.473	44.606	1288.813	1178.524
-0.458	43.928	1274.146	1161.183
0.556	37.766	1252.868	1115.517
1.571	32.453	1253.429	1085.382
2.586	30.273	1266.635	1084.003
3.600	28.544	1255.792	1064.601
4.615	22.091	1181.034	965.784
5.629	11.821	1099.038	845.835
6.644	6.432	1074.147	799.326
7.659	5.808	1071.438	794.077
8.673	5.784	1069.544	792.485
9.688	5.648	1068.339	790.833
10.702	6.223	1067.329	792.917
11.717	11.927	1076.455	828.551
12.731	19.456	1086.125	874.211
13.746	19.970	1085.104	875.915
14.761	17.544	1081.869	860.978
15.775	16.293	1079.553	852.741
16.790	15.351	1076.731	845.688
17.804	14.469	1075.620	840.296
18.819	13.940	1074.482	836.671
19.834	13.772	1073.251	834.793
20.848	13.500	1072.377	832.673
21.863	13.267	1071.643	830.860
22.877	13.237	1070.649	829.866
23.892	13.145	1070.520	829.228
24.907	13.046	1069.517	827.882
25.921	13.251	1068.176	827.798
26.936	13.204	1066.733	826.371
27.950	13.312	1065.392	825.796
28.965	13.368	1064.038	824.955
29.980	13.385	1062.773	823.984
30.994	13.525	1061.500	823.619
32.009	13.463	1060.527	822.486
33.023	13.546	1058.875	821.543
34.038	13.438	1057.991	820.250
35.053	13.445	1056.905	819.372
36.067	13.343	1056.363	818.370
37.082	13.414	1055.552	818.022
38.096	13.362	1054.984	817.255
39.111	13.471	1054.334	817.218
40.126	13.362	1052.661	815.309
41.140	13.159	1051.658	813.459
42.155	13.199	1050.518	812.706
43.169	13.082	1049.535	811.296
44.184	13.061	1048.781	810.540
45.199	13.182	1047.036	809.714
46.213	13.158	1046.185	808.864
47.228	13.237	1045.348	808.531
48.242	13.427	1043.963	808.319
49.257	13.303	1042.963	806.867
50.271	13.307	1041.997	806.067
51.286	13.287	1041.080	805.189
52.301	13.304	1040.078	804.425
53.315	13.257	1039.002	803.293
54.330	13.312	1037.960	802.684
55.344	13.210	1037.011	801.384
56.359	13.202	1036.385	800.790
57.374	13.173	1035.271	799.722
58.388	13.117	1034.588	798.852
59.403	13.073	1033.674	797.860
60.417	13.098	1032.960	797.359
61.432	13.022	1031.987	796.171
62.447	13.060	1031.291	795.747
63.461	12.967	1030.832	794.876
64.476	13.024	1029.518	794.065
65.490	13.112	1028.650	793.748
66.505	13.061	1028.062	792.980
67.520	13.095	1027.531	792.665
68.534	13.030	1026.684	791.631
69.549	13.086	1026.008	791.304
70.563	12.989	1024.950	789.955
71.578	13.081	1024.147	789.707
72.593	12.990	1023.184	788.459
73.607	12.927	1022.296	787.403
74.622	13.031	1022.075	787.660
75.636	13.034	1021.262	786.981
76.651	13.046	1020.420	786.316
77.666	13.023	1019.853	785.703
78.680	13.030	1019.212	785.170
79.695	12.977	1018.886	784.597
80.709	13.104	1018.291	784.677
81.724	12.986	1017.882	783.727
82.739	13.229	1016.421	783.688
83.753	13.358	1015.428	783.463
84.768	13.437	1014.746	783.243
85.782	13.485	1014.135	782.927
86.797	13.418	1013.281	781.882
87.812	13.277	1012.130	780.262
88.826	13.394	1011.136	779.976
89.841	13.350	1010.647	779.325
90.855	13.373	1009.974	778.843
91.870	13.542	1008.572	778.490
92.884	13.453	1007.930	777.508
93.899	13.354	1007.056	776.299
94.914	13.493	1006.099	776.143
95.928	13.532	1005.554	775.835
96.943	13.350	1004.332	773.977
97.957	13.402	1003.598	773.582
98.972	13.381	1002.860	772.849
99.987	13.381	1002.016	772.129
101.001	13.445	1000.545	771.226
102.016	13.388	999.558	770.130
103.030	13.420	999.236	769.965
104.045	13.326	998.505	768.895
105.060	13.325	997.558	768.091
106.074	13.341	996.545	767.318
107.089	13.250	995.336	765.900
108.103	13.263	994.478	765.234
109.118	13.147	993.922	764.200
110.133	13.178	993.183	763.704
111.147	13.137	991.886	762.451
112.162	13.226	991.066	762.164
113.176	13.253	990.377	761.692
114.191	13.294	989.592	761.210
115.206	13.203	988.590	759.956
116.220	13.264	988.006	759.716
117.235	13.243	987.145	758.893
118.249	13.319	986.115	758.382
119.264	13.200	985.591	757.365
120.279	13.359	984.436	757.138
121.293	13.141	983.634	755.457
122.308	13.213	982.722	755.022
123.322	13.194	981.738	754.110
124.337	13.201	980.822	753.371
125.352	13.081	979.859	752.021
126.366	13.134	978.785	751.370
127.381	13.320	977.540	751.193
128.395	13.248	976.928	750.330
129.410	13.177	976.397	749.531
130.424	13.338	975.342	749.386
131.439	13.439	974.618	749.219
132.454	13.426	973.737	748.419
133.468	13.422	972.776	747.597
134.483	13.329	972.239	746.699
135.497	13.447	970.997	746.209
136.512	13.378	970.267	745.273
137.527	13.501	969.533	745.195
138.541	13.328	969.245	744.129
139.556	13.535	968.097	744.111
140.570	13.483	967.907	743.667
141.585	13.571	966.886	743.213
142.600	13.622	965.990	742.683
143.614	13.636	965.311	742.162
144.629	13.689	964.336	741.582
145.643	13.632	963.207	740.393
146.658	13.592	962.420	739.544
147.673	13.513	961.472	738.396
148.687	13.504	960.831	737.803
149.702	13.517	959.349	736.653
150.716	13.467	959.142	736.209
151.731	13.396	958.492	735.329
152.746	13.470	957.765	735.035
153.760	13.470	957.163	734.508
154.775	13.448	956.576	733.897
155.789	13.617	955.761	733.954
156.804	13.599	954.847	733.107
157.819	13.710	954.221	733.054
158.833	13.649	953.449	732.125
159.848	13.703	953.148	732.067
160.862	13.697	951.522	730.728
161.877	13.688	950.271	729.663
162.892	13.365	950.190	728.116
163.906	13.413	949.335	727.605
164.921	13.422	948.396	726.862
165.935	13.623	947.004	726.609
166.950	13.630	946.233	725.984
167.964	13.707	945.541	725.729
168.979	13.557	944.586	724.277
169.994	13.495	944.041	723.523
171.008	13.592	943.126	723.179
172.023	13.633	942.815	723.058
173.037	13.669	941.840	722.403
174.052	13.650	941.321	721.858
175.067	13.656	940.354	721.079
176.081	13.513	939.717	719.903
177.096	13.603	939.114	719.771
178.110	13.477	939.188	719.216
179.125	13.677	938.105	719.189
180.140	13.520	937.596	718.054
181.154	13.749	936.584	718.208
182.169	13.805	936.411	718.254
183.183	13.772	935.718	717.516
184.198	13.873	934.828	717.207
185.213	13.862	934.204	716.618
186.227	13.931	933.374	716.213
187.242	13.877	933.012	715.641
188.256	13.999	932.413	715.645
189.271	13.919	931.481	714.520
190.286	13.904	930.362	713.533
191.300	13.797	929.771	712.560
192.315	13.572	929.726	711.496
193.329	13.566	929.170	710.981
194.344	13.665	928.333	710.703
195.359	13.746	927.525	710.366
196.373	13.914	926.972	710.599
197.388	13.960	926.797	710.598
198.402	14.128	926.067	710.697
199.417	14.135	925.258	710.040
200.432	14.129	924.861	709.648
201.446	14.212	924.608	709.743
202.461	14.166	923.938	708.971
203.475	14.187	923.426	708.605
204.490	14.105	922.544	707.519
205.504	14.037	921.577	706.423
206.519	14.024	920.788	705.703
207.534	13.967	920.396	705.098
208.548	14.208	919.180	705.125
209.563	14.125	918.908	704.503
210.577	14.195	917.995	704.037
211.592	14.210	917.738	703.838
212.607	14.396	916.685	703.755
213.621	14.272	916.216	702.810
214.636	14.247	915.769	702.298
215.650	14.264	915.333	701.974
216.665	14.329	914.266	701.367
217.680	14.384	913.545	700.982
218.694	14.334	913.032	700.320
219.709	14.345	912.252	699.703
220.723	14.354	911.447	699.061
221.738	14.334	910.842	698.453
222.753	14.336	910.323	698.001
223.767	14.549	909.425	698.143
224.782	14.525	908.995	697.649
225.796	14.534	908.534	697.273
226.811	14.574	907.633	696.685
227.826	14.476	907.165	695.857
228.840	14.608	905.898	695.371
229.855	14.318	905.765	694.002
230.869	14.472	904.606	693.692
231.884	14.437	903.984	693.010
232.899	14.397	903.418	692.347
233.913	14.240	902.752	691.125
234.928	14.498	902.185	691.698
235.942	14.475	901.355	690.906
236.957	14.373	901.152	690.265
237.972	14.422	900.376	689.813
238.986	14.404	899.877	689.296
240.001	14.400	899.274	688.756
241.015	14.427	898.684	688.357
242.030	14.543	897.812	688.107
243.045	14.563	897.567	687.938
244.059	14.649	896.758	687.613
245.074	14.562	896.080	686.675
246.088	14.688	895.544	686.721
247.103	14.666	894.729	685.944
248.117	14.816	894.379	686.230
249.132	14.869	893.609	685.795
250.147	14.955	892.908	685.551
251.161	14.750	892.630	684.438
252.176	14.949	891.739	684.507
253.190	14.963	891.276	684.150
254.205	15.078	890.442	683.918
255.220	15.039	889.900	683.283
256.234	14.909	889.737	682.565
257.249	14.873	888.925	681.736
258.263	14.969	888.167	681.486
259.278	15.022	887.164	680.872
260.293	15.026	886.964	680.672
261.307	15.211	885.945	680.582
262.322	15.120	885.458	679.777
263.336	15.114	884.734	679.138
264.351	15.301	883.837	679.148
265.366	15.346	883.076	678.684
266.380	15.224	882.729	677.866
267.395	15.255	881.916	677.304
268.409	15.165	880.886	676.093
269.424	15.303	880.245	676.095
270.439	15.195	879.802	675.262
271.453	15.151	878.975	674.392
272.468	15.108	878.613	673.880
273.482	15.276	877.903	673.949
274.497	15.152	877.307	672.937
275.512	15.221	876.780	672.747
276.526	15.241	876.643	672.665
277.541	15.305	875.909	672.297
278.555	15.341	875.342	671.948
279.570	15.467	874.581	671.807
280.585	15.450	873.793	671.075
281.599	15.372	873.006	670.099
282.614	15.368	872.301	669.482
283.628	15.312	871.669	668.714
284.643	15.275	871.029	668.016
285.657	15.399	870.405	667.973
286.672	15.284	870.243	667.332
287.687	15.426	869.215	667.048
288.701	15.403	868.739	666.536
289.716	15.604	868.092	666.778
290.730	15.469	867.375	665.633
291.745	15.508	866.965	665.411
292.760	15.565	866.335	665.096
293.774	15.560	865.718	664.545
294.789	15.677	865.011	664.405
295.803	15.440	864.568	663.068
296.818	15.487	863.958	662.730
297.833	15.363	863.360	661.720
298.847	15.592	862.535	661.934
299.862	15.579	862.211	661.577
300.876	15.553	861.855	661.143
301.891	15.684	860.981	660.929
302.906	15.836	860.356	660.986
303.920	15.769	859.628	660.104
304.935	15.790	859.396	659.950
305.949	15.928	858.298	659.592
306.964	15.782	857.644	658.457
307.979	15.795	857.379	658.246
308.993	15.849	856.835	657.983
310.008	15.867	855.939	657.308
311.022	15.842	855.480	656.799
312.037	15.752	854.858	655.910
313.052	15.777	854.257	655.488
314.066	15.812	853.891	655.286
315.081	15.666	853.528	654.384
316.095	15.697	852.666	653.782
317.110	15.812	851.890	653.578
318.125	15.834	851.481	653.294
319.139	15.805	850.992	652.747
320.154	15.861	850.377	652.434
321.168	15.930	850.060	652.401
322.183	15.818	849.592	651.551
323.197	15.985	848.652	651.417
324.212	15.848	848.439	650.666
325.227	15.833	848.216	650.378
326.241	15.915	847.260	649.903
327.256	15.913	846.615	649.344
328.270	15.833	846.476	648.874
329.285	15.841	845.579	648.157
330.300	15.828	845.302	647.837
331.314	15.962	844.332	647.555
332.329	15.987	844.038	647.367
333.343	16.011	843.665	647.114
334.358	15.970	843.087	646.458
335.373	16.033	842.554	646.234
336.387	16.119	842.427	646.407
337.402	16.188	842.194	646.436
338.416	16.288	841.598	646.304
339.431	16.283	841.345	646.032
340.446	16.342	840.911	645.868
341.460	16.258	840.639	645.284
342.475	16.329	840.152	645.121
343.489	16.391	839.538	644.830
344.504	16.434	839.166	644.653
345.519	16.332	838.789	643.918
346.533	16.488	838.385	644.145
347.548	16.403	837.534	643.108
348.562	16.286	837.129	642.295
349.577	16.343	836.312	641.829
350.592	16.256	835.884	641.115
351.606	16.277	835.193	640.604
352.621	16.253	834.542	639.961
353.635	16.345	833.921	639.777
354.650	16.426	833.244	639.504
355.665	16.356	832.912	638.928
356.679	16.339	832.254	638.302
357.694	16.526	831.202	638.148
358.708	16.424	830.898	637.472
359.723	16.446	830.300	637.038
360.738	16.450	829.791	636.609
361.752	16.407	829.526	636.186
362.767	16.644	828.771	636.440
363.781	16.682	828.015	635.948
364.796	16.678	827.860	635.757
365.810	16.810	827.293	635.760
366.825	16.766	826.888	635.229
367.840	16.805	826.671	635.154
368.854	16.694	826.109	634.249
369.869	16.666	825.749	633.810
370.883	16.814	824.961	633.702
371.898	16.800	824.791	633.464
372.913	16.758	824.431	632.974
373.927	16.750	823.991	632.551
374.942	16.747	823.250	631.916
375.956	16.905	822.991	632.249
376.971	16.923	822.954	632.234
377.986	16.993	821.925	631.645
379.000	16.944	821.704	631.239
380.015	16.869	821.017	630.375
381.029	17.014	820.449	630.423
382.044	16.994	820.034	629.976
383.059	17.168	819.289	629.993
384.073	17.011	818.654	628.867
385.088	17.072	818.012	628.543
386.102	16.821	817.536	627.192
387.117	17.004	817.135	627.508
388.132	16.955	816.325	626.648
389.146	16.934	816.020	626.283
390.161	16.954	815.687	626.045
391.175	17.079	815.429	626.251
392.190	16.973	814.525	625.110
393.205	16.909	814.136	624.522
394.219	16.920	814.167	624.528
395.234	16.915	813.640	624.051
396.248	16.973	813.028	623.743
397.263	16.894	812.902	623.300
398.278	16.923	812.356	622.931
399.292	16.870	812.102	622.485
400.307	16.925	811.378	622.078
401.321	16.973	810.548	621.561
402.336	17.092	810.063	621.573
403.350	17.166	809.474	621.336
404.365	17.037	809.552	620.867
405.380	17.206	809.115	621.097
406.394	17.327	808.370	620.912
407.409	17.294	807.978	620.435
408.423	17.357	807.775	620.454
409.438	17.448	807.311	620.376
410.453	17.473	806.838	620.048
411.467	17.343	806.386	619.172
412.482	17.435	806.283	619.372
413.496	17.415	806.084	619.092
414.511	17.544	805.511	619.066
415.526	17.526	804.665	618.296
416.540	17.432	804.383	617.684
417.555	17.443	803.759	617.188
418.569	17.698	802.978	617.458
419.584	17.608	802.796	616.937
420.599	17.541	802.561	616.460
421.613	75.558	1233.973	1259.041
422.628	63.835	1296.845	1259.165
