DTS Sentinel unit serial number:	SN413079Multiplexer serial number:	ORYXHardware model number:	OX4-SRSoftware version number:	ORYX F/W v4.00 Oryx Data Collector v3.7.2.0data status	okinstallation	princeton_trtdifferential loss correction	single-endedforward channel	channel 1reverse channel	N/Adate	2019/09/16time	16:58:35forward acquisition time	60.00reverse acquisition time	0.00gamma	496.2192k internal	0.2296k external	0.2296temperature offset calibration	0.9963default loss term (dB/km)	0.3790temperature slope calibration	1.0000multiplexer offset coefficient	1.0000multiplexer slope coefficient	1.0000fibre end	0.00T internal ref (°C)	39.37T ext. ref 1 (°C)	15.27T ext. ref 2 (°C)	33.65length (m)	temperature (°C)	Stokes	anti-Stokes-747.200	-41.454	0.053	0.028
-746.185	136.142	-0.323	0.430
-745.171	-200.000	-0.012	0.233
-744.156	161.461	0.064	0.092
-743.142	-140.127	0.095	0.010
-742.127	800.000	0.077	0.219
-741.112	627.837	-0.187	0.483
-740.098	46.077	0.172	0.163
-739.083	-19.295	0.138	0.088
-738.069	800.000	-0.064	0.203
-737.054	234.477	0.224	-0.376
-736.039	-200.000	-0.045	-0.341
-735.025	-83.683	0.404	0.132
-734.010	800.000	-0.154	-0.564
-732.996	-84.647	-0.419	-0.135
-731.981	-1.810	-0.229	0.165
-730.966	-30.689	0.152	0.088
-729.952	-40.144	-0.149	0.079
-728.937	110.235	-0.099	-0.122
-727.923	99.388	-0.121	-0.143
-726.908	160.940	0.156	-0.222
-725.894	-178.494	-0.141	0.003
-724.879	800.000	-0.032	-0.096
-723.864	-10.531	-0.151	0.102
-722.850	-69.353	0.046	0.018
-721.835	-200.000	0.029	-0.152
-720.821	-105.837	0.254	0.059
-719.806	222.997	0.169	-0.277
-718.791	66.309	-0.236	-0.245
-717.777	-22.812	-0.406	-0.250
-716.762	38.604	-0.145	-0.132
-715.748	-121.080	0.318	-0.054
-714.733	-90.007	-0.032	-0.010
-713.718	-54.387	-0.342	-0.158
-712.704	688.884	-0.100	-0.266
-711.689	-200.000	-0.041	-0.322
-710.675	-74.286	0.175	-0.064
-709.660	-200.000	-0.035	0.191
-708.645	46.404	-0.133	0.126
-707.631	118.793	0.040	0.050
-706.616	800.000	0.085	0.324
-705.602	-23.935	-0.207	0.126
-704.587	195.249	-0.018	-0.027
-703.572	119.589	-0.177	0.224
-702.558	96.207	-0.104	-0.121
-701.543	-142.138	0.056	0.006
-700.529	-28.314	0.036	0.021
-699.514	-200.000	0.057	-0.351
-698.499	-200.000	-0.053	-0.301
-697.485	-200.000	0.025	-0.312
-696.470	-37.304	0.159	0.087
-695.456	-27.472	-0.108	-0.064
-694.441	-9.122	0.233	0.159
-693.426	-115.715	0.261	-0.050
-692.412	560.283	0.091	0.223
-691.397	313.840	0.111	-0.213
-690.383	-31.658	0.089	0.051
-689.368	-200.000	-0.008	-0.165
-688.354	-29.769	0.276	-0.160
-687.339	-78.983	0.377	-0.131
-686.324	36.232	0.063	0.057
-685.310	409.470	0.172	0.371
-684.295	-9.981	-0.273	-0.185
-683.281	-9.079	-0.123	-0.084
-682.266	800.000	-0.090	0.259
-681.251	10.448	-0.281	0.218
-680.237	172.367	-0.035	-0.052
-679.222	42.071	-0.383	0.355
-678.208	800.000	0.045	-0.187
-677.193	-113.356	-0.122	0.024
-676.178	800.000	-0.049	0.140
-675.164	-150.152	0.388	0.031
-674.149	637.044	-0.155	-0.401
-673.135	-200.000	-0.020	0.138
-672.120	128.672	-0.142	-0.184
-671.105	-24.723	-0.477	-0.289
-670.091	800.000	0.037	-0.146
-669.076	800.000	0.060	-0.205
-668.062	800.000	0.006	0.025
-667.047	479.668	0.101	-0.233
-666.032	155.591	0.175	0.245
-665.018	-124.564	0.189	-0.030
-664.003	31.274	-0.147	-0.129
-662.989	10.112	-0.140	0.108
-661.974	800.000	-0.020	-0.085
-660.959	109.263	0.110	0.134
-659.945	25.892	-0.327	0.277
-658.930	-17.906	-0.116	-0.074
-657.916	-21.709	0.224	-0.139
-656.901	800.000	-0.039	-0.115
-655.886	-200.000	-0.030	-0.207
-654.872	14.916	0.267	0.212
-653.857	-62.948	0.073	-0.031
-652.843	-150.804	-0.149	0.011
-651.828	221.039	-0.191	0.313
-650.814	5.538	0.160	-0.120
-649.799	800.000	-0.029	-0.110
-648.784	-200.000	-0.007	-0.092
-647.770	-67.636	0.184	-0.073
-646.755	800.000	0.089	-0.347
-645.741	329.785	-0.077	-0.150
-644.726	-200.000	0.326	0.001
-643.711	28.917	0.204	-0.176
-642.697	255.278	0.111	-0.193
-641.682	266.703	0.067	0.120
-640.668	26.613	-0.315	-0.268
-639.653	450.930	-0.039	0.088
-638.638	-103.020	-0.090	-0.022
-637.624	-200.000	-0.031	-0.246
-636.609	-200.000	-0.049	0.273
-635.595	228.949	0.090	-0.149
-634.580	800.000	0.055	-0.229
-633.565	-200.000	0.006	-0.124
-632.551	-102.087	-0.160	-0.039
-631.536	88.784	0.255	-0.288
-630.522	-116.669	-0.173	-0.032
-629.507	-200.000	0.012	0.231
-628.492	-120.342	-0.145	0.025
-627.478	-193.852	0.092	-0.001
-626.463	-138.025	0.116	-0.013
-625.449	800.000	-0.108	-0.379
-624.434	-44.131	-0.107	0.055
-623.419	-200.000	0.009	0.333
-622.405	800.000	-0.083	0.276
-621.390	123.280	-0.036	0.045
-620.376	-76.454	0.611	0.219
-619.361	-41.199	-0.126	0.066
-618.346	-127.075	0.356	-0.053
-617.332	36.275	0.129	0.116
-616.317	10.058	0.142	0.110
-615.303	123.281	-0.190	0.242
-614.288	-200.000	-0.020	-0.185
-613.273	79.428	-0.244	-0.266
-612.259	800.000	-0.080	-0.235
-611.244	-64.040	0.154	-0.064
-610.230	-15.963	-0.223	-0.144
-609.215	-200.000	0.017	0.413
-608.201	-48.566	0.534	-0.261
-607.186	27.054	-0.370	-0.315
-606.171	94.556	0.064	-0.073
-605.157	-134.189	-0.218	0.027
-604.142	-132.178	-0.104	-0.014
-603.128	-74.620	0.173	0.063
-602.113	65.166	0.289	-0.296
-601.098	800.000	-0.063	-0.195
-600.084	-200.000	0.070	0.465
-599.069	128.139	0.140	-0.181
-598.055	-200.000	0.003	0.092
-597.040	131.611	0.021	-0.027
-596.025	194.204	-0.096	0.147
-595.011	-200.000	-0.001	0.415
-593.996	53.327	0.149	-0.145
-592.982	-200.000	-0.001	0.188
-591.967	-64.088	-0.331	-0.137
-590.952	-17.797	-0.312	0.199
-589.938	59.943	-0.080	0.080
-588.923	-200.000	-0.004	-0.080
-587.909	-59.376	0.339	0.148
-586.894	800.000	0.085	-0.265
-585.879	30.520	0.177	-0.153
-584.865	256.419	-0.060	-0.105
-583.850	800.000	-0.066	-0.188
-582.836	-84.241	-0.136	-0.044
-581.821	-143.682	-0.228	-0.022
-580.806	-117.180	0.192	-0.035
-579.792	29.961	0.065	0.056
-578.777	-24.776	0.041	0.024
-577.763	-112.761	0.070	-0.014
-576.748	800.000	-0.070	0.206
-575.733	-93.760	-0.324	-0.091
-574.719	-46.827	0.118	0.058
-573.704	-175.445	-0.222	0.006
-572.690	90.657	0.229	0.260
-571.675	-200.000	0.005	-0.063
-570.661	140.384	-0.043	-0.057
-569.646	-118.673	-0.063	0.011
-568.631	310.958	-0.059	0.112
-567.617	-104.878	0.117	0.027
-566.602	-117.400	0.186	0.034
-565.588	-200.000	0.002	0.169
-564.573	290.281	0.145	-0.267
-563.558	649.323	0.138	0.359
-562.544	-200.000	-0.032	0.179
-561.529	-4.345	-0.151	0.106
-560.515	208.767	-0.119	-0.189
-559.500	-100.277	0.101	-0.025
-558.485	800.000	0.035	0.122
-557.471	57.043	0.102	-0.101
-556.456	178.068	-0.100	0.147
-555.442	49.548	-0.155	-0.148
-554.427	60.923	-0.228	-0.229
-553.412	-147.533	-0.211	-0.018
-552.398	35.881	-0.103	0.092
-551.383	-101.101	-0.049	0.012
-550.369	221.802	-0.096	-0.157
-549.354	-39.375	0.136	0.073
-548.339	-200.000	0.006	0.040
-547.325	18.545	-0.242	-0.196
-546.310	-48.985	0.316	-0.153
-545.296	-53.312	-0.208	-0.097
-544.281	800.000	-0.039	0.139
-543.266	47.453	0.023	-0.022
-542.252	-20.711	-0.201	0.125
-541.237	-69.913	0.443	0.171
-540.223	361.271	0.090	-0.184
-539.208	-107.463	-0.262	-0.058
-538.193	-200.000	0.012	0.077
-537.179	-200.000	-0.022	0.172
-536.164	-59.520	-0.249	-0.108
-535.150	-200.000	0.019	0.240
-534.135	188.034	0.167	0.253
-533.121	259.889	-0.124	-0.217
-532.106	250.599	0.132	0.227
-531.091	-200.000	0.014	-0.116
-530.077	281.590	-0.086	-0.157
-529.062	-200.000	-0.018	-0.173
-528.048	-200.000	-0.008	0.104
-527.033	-31.544	0.052	0.030
-526.018	-40.899	0.218	0.114
-525.004	-42.853	0.038	0.020
-523.989	-47.135	-0.401	0.198
-522.975	-112.484	0.327	0.066
-521.960	393.935	0.016	-0.035
-520.945	68.152	0.053	0.055
-519.931	-115.502	0.213	0.041
-518.916	13.248	-0.312	-0.245
-517.902	-49.948	-0.384	0.185
-516.887	-200.000	0.180	-0.001
-515.872	396.049	0.039	-0.083
-514.858	77.389	0.259	-0.279
-513.843	-53.313	-0.092	0.043
-512.829	-107.858	-0.692	-0.152
-511.814	-62.515	0.350	0.147
-510.799	-200.000	0.014	0.229
-509.785	24.338	-0.149	-0.125
-508.770	285.656	-0.179	-0.327
-507.756	-3.053	-0.077	-0.055
-506.741	-106.985	0.301	-0.067
-505.726	572.167	0.041	-0.101
-504.712	-200.000	-0.006	0.045
-503.697	194.474	0.123	-0.189
-502.683	31.281	-0.224	-0.195
-501.668	-170.448	0.369	0.013
-500.653	-158.719	-0.296	-0.017
-499.639	-38.176	-0.590	0.316
-498.624	-128.373	0.144	0.021
-497.610	-18.146	0.268	-0.170
-496.595	33.054	0.452	0.397
-495.581	-4.830	-0.086	0.060
-494.566	-95.914	0.290	-0.078
-493.551	800.000	0.085	0.277
-492.537	-13.737	-0.129	-0.084
-491.522	52.846	-0.117	-0.113
-490.508	-34.468	-0.197	0.109
-489.493	-117.762	-0.361	0.066
-488.478	1.675	0.196	-0.143
-487.464	-200.000	0.055	-0.372
-486.449	-200.000	-0.002	-0.280
-485.435	106.304	-0.233	-0.279
-484.420	800.000	0.047	-0.140
-483.405	-94.178	0.182	0.050
-482.391	137.865	0.134	0.178
-481.376	-176.749	-0.278	-0.007
-480.362	-45.654	0.160	0.080
-479.347	-200.000	0.051	0.392
-478.332	217.263	0.058	-0.093
-477.318	172.869	-0.150	0.218
-476.303	-108.693	0.324	0.070
-475.289	-200.000	-0.016	-0.161
-474.274	-200.000	0.008	0.262
-473.259	-135.557	0.138	0.017
-472.245	478.563	-0.050	-0.116
-471.230	68.261	-0.169	-0.175
-470.216	528.074	-0.052	-0.123
-469.201	-155.692	0.317	-0.021
-468.186	800.000	0.028	0.111
-467.172	529.587	-0.205	0.490
-466.157	-181.880	0.381	0.007
-465.143	447.561	-0.024	0.053
-464.128	-132.106	0.203	0.027
-463.113	27.329	-0.028	0.024
-462.099	-200.000	-0.008	0.448
-461.084	248.092	-0.125	-0.213
-460.070	-200.000	0.010	0.134
-459.055	800.000	0.079	-0.286
-458.040	-19.064	0.172	-0.108
-457.026	137.426	-0.110	0.146
-456.011	-58.067	-0.141	-0.062
-454.997	40.218	-0.121	-0.110
-453.982	348.865	0.135	0.270
-452.968	562.932	0.040	0.098
-451.953	756.878	-0.017	-0.047
-450.938	148.201	0.070	0.095
-449.924	-35.309	0.176	-0.097
-448.909	800.000	0.012	0.034
-447.895	-80.273	0.425	0.144
-446.880	18.086	-0.066	-0.053
-445.865	-111.818	-0.093	0.019
-444.851	-185.242	0.183	-0.003
-443.836	-170.004	-0.233	0.008
-442.822	-73.007	-0.358	0.133
-441.807	800.000	-0.045	0.158
-440.792	-200.000	0.021	-0.139
-439.778	579.733	-0.096	0.237
-438.763	800.000	0.021	0.084
-437.749	40.879	-0.254	-0.231
-436.734	-114.985	0.153	0.029
-435.719	-151.016	0.069	0.005
-434.705	-92.650	0.103	-0.029
-433.690	-15.481	0.053	-0.034
-432.676	598.854	0.024	0.060
-431.661	-121.094	-0.262	0.044
-430.646	-110.407	0.116	0.024
-429.632	-84.826	-0.202	-0.064
-428.617	184.981	-0.053	-0.079
-427.603	-31.416	0.184	-0.105
-426.588	-86.555	0.238	0.074
-425.573	-109.400	-0.080	0.017
-424.559	800.000	-0.075	-0.279
-423.544	716.220	0.075	0.200
-422.530	355.651	0.058	-0.117
-421.515	-200.000	-0.021	-0.167
-420.500	-38.617	0.227	0.121
-419.486	-200.000	-0.031	0.159
-418.471	171.273	0.040	0.058
-417.457	-169.723	0.141	-0.005
-416.442	-93.257	-0.015	-0.004
-415.428	276.574	-0.087	-0.156
-414.413	79.294	0.104	0.112
-413.398	-77.419	-0.269	0.094
-412.384	800.000	0.063	-0.197
-411.369	-200.000	-0.067	-0.461
-410.355	27.755	0.077	0.066
-409.340	-75.239	0.201	-0.072
-408.325	800.000	0.012	0.046
-407.311	17.105	-0.189	0.151
-406.296	-200.000	-0.050	0.321
-405.282	800.000	-0.042	0.163
-404.267	398.119	-0.109	0.229
-403.252	198.694	0.164	-0.253
-402.238	139.357	0.032	-0.043
-401.223	-116.526	-0.180	0.033
-400.209	800.000	-0.049	-0.142
-399.194	800.000	-0.032	0.120
-398.179	-200.000	-0.251	0.001
-397.165	800.000	-0.040	-0.161
-396.150	-54.848	0.177	-0.080
-395.136	376.798	0.028	-0.058
-394.121	-200.000	-0.039	0.186
-393.106	-38.368	-0.105	0.056
-392.092	-200.000	-0.022	0.310
-391.077	-25.438	-0.380	-0.226
-390.063	-200.000	0.066	-0.299
-389.048	61.000	-0.332	-0.332
-388.033	153.579	-0.117	0.162
-387.019	800.000	-0.055	-0.172
-386.004	-91.445	0.152	-0.044
-384.990	153.259	0.029	-0.040
-383.975	-26.105	-0.269	0.159
-382.960	-16.537	0.123	0.078
-381.946	-76.075	0.210	-0.075
-380.931	-30.721	-0.259	0.148
-379.917	11.504	-0.020	0.016
-378.902	328.830	-0.057	-0.110
-377.888	-6.479	0.218	0.150
-376.873	-200.000	-0.005	-0.031
-375.858	-200.000	-0.043	-0.332
-374.844	-127.618	-0.061	-0.009
-373.829	800.000	-0.034	0.125
-372.815	-158.930	0.289	0.017
-371.800	331.179	0.134	0.261
-370.785	-89.899	0.152	-0.045
-369.771	-16.847	0.082	-0.052
-368.756	-118.356	-0.246	0.044
-367.742	-52.451	-0.378	0.176
-366.727	-77.520	-0.236	-0.082
-365.712	-146.327	0.315	0.028
-364.698	661.743	-0.042	0.109
-363.683	525.884	0.108	-0.256
-362.669	800.000	0.076	-0.287
-361.654	-99.178	-0.265	-0.067
-360.639	-104.513	-0.030	-0.007
-359.625	21.242	-0.082	0.067
-358.610	-68.734	0.175	0.068
-357.596	122.781	0.160	0.202
-356.581	-6.800	-0.161	-0.110
-355.566	-78.145	0.117	0.040
-354.552	-77.908	-0.252	0.088
-353.537	58.599	-0.057	-0.056
-352.523	-60.244	0.132	-0.057
-351.508	64.126	-0.137	-0.138
-350.493	81.646	0.108	-0.117
-349.479	-72.778	0.057	-0.021
-348.464	9.884	-0.158	0.121
-347.450	-141.830	-0.222	-0.022
-346.435	-6.709	0.284	-0.195
-345.420	-33.187	0.358	-0.200
-344.406	95.280	-0.039	0.045
-343.391	-54.855	0.184	0.084
-342.377	-89.037	-0.309	-0.092
-341.362	-44.684	0.155	-0.078
-340.348	339.888	-0.130	-0.255
-339.333	-20.478	-0.167	0.103
-338.318	-38.788	-0.172	0.091
-337.304	79.803	0.146	0.158
-336.289	-2.160	-0.108	-0.076
-335.275	-200.000	-0.076	-0.402
-334.260	3.233	-0.283	-0.207
-333.245	800.000	0.065	0.240
-332.231	800.000	0.086	0.310
-331.216	-122.637	0.528	0.086
-330.202	-12.585	-0.144	0.094
-329.187	-200.000	0.008	0.079
-328.172	443.270	0.044	0.096
-327.158	-124.892	0.115	-0.018
-326.143	384.865	-0.091	0.189
-325.129	206.713	-0.083	0.130
-324.114	-126.280	-0.211	-0.032
-323.099	-35.173	0.144	-0.079
-322.085	-200.000	0.002	-0.018
-321.070	-200.000	-0.012	-0.126
-320.056	-63.492	0.270	-0.112
-319.041	200.523	-0.175	-0.271
-318.026	800.000	-0.028	0.117
-317.012	458.032	-0.110	-0.245
-315.997	800.000	-0.120	0.382
-314.983	-1.224	-0.221	-0.157
-313.968	72.661	0.071	0.075
-312.953	-120.671	-0.162	0.028
-311.939	-28.824	0.365	0.211
-310.924	-84.741	-0.106	-0.034
-309.910	92.791	-0.186	-0.211
-308.895	-129.025	0.216	0.030
-307.880	-112.118	-0.201	0.041
-306.866	-200.000	0.033	0.202
-305.851	-92.300	-0.097	-0.028
-304.837	-109.309	0.236	0.050
-303.822	32.449	-0.114	-0.099
-302.807	800.000	-0.075	0.244
-301.793	800.000	-0.040	0.114
-300.778	-200.000	-0.026	0.189
-299.764	-200.000	0.023	0.120
-298.749	-200.000	-0.007	-0.204
-297.735	-108.824	-0.265	-0.057
-296.720	-73.988	-0.061	-0.022
-295.705	-115.236	-0.162	-0.031
-294.691	536.006	0.037	0.088
-293.676	-60.494	0.305	0.130
-292.662	800.000	0.165	-0.505
-291.647	800.000	0.131	-0.508
-290.632	800.000	-0.049	-0.207
-289.618	65.289	0.199	0.202
-288.603	192.067	0.106	0.161
-287.589	59.924	-0.225	0.223
-286.574	63.384	-0.214	-0.216
-285.559	-118.646	0.199	-0.035
-284.545	-178.248	0.197	-0.005
-283.530	800.000	0.020	0.087
-282.516	399.960	0.063	0.132
-281.501	-55.075	0.252	-0.114
-280.486	-91.190	0.159	-0.046
-279.472	800.000	-0.052	0.211
-278.457	354.547	-0.028	0.055
-277.443	-116.971	0.107	0.020
-276.428	55.513	-0.187	0.181
-275.413	617.911	-0.087	-0.219
-274.399	-200.000	0.047	-0.233
-273.384	-87.506	0.392	-0.119
-272.370	156.279	0.131	-0.181
-271.355	-122.614	0.155	0.025
-270.340	9.344	0.171	0.129
-269.326	-124.121	-0.051	-0.008
-268.311	391.944	0.110	-0.230
-267.297	800.000	0.047	-0.176
-266.282	-200.000	0.029	-0.172
-265.267	15.516	-0.116	0.092
-264.253	-200.000	-0.027	-0.198
-263.238	146.233	-0.085	-0.114
-262.224	30.537	0.209	-0.179
-261.209	3.479	0.327	-0.239
-260.195	-135.807	0.165	-0.019
-259.180	-142.271	0.187	-0.019
-258.165	-110.119	-0.279	0.058
-257.151	29.958	0.228	0.195
-256.136	4.392	-0.107	-0.078
-255.122	-200.000	0.005	0.086
-254.107	112.806	0.120	0.146
-253.092	8.538	0.066	0.050
-252.078	-96.533	0.164	-0.043
-251.063	-47.126	0.086	-0.042
-250.049	-88.893	0.208	0.062
-249.034	-106.830	-0.182	0.040
-248.019	-25.400	0.169	-0.100
-247.005	-112.902	0.083	0.017
-245.990	32.435	-0.100	-0.087
-244.976	640.499	0.110	-0.282
-243.961	-44.450	-0.364	-0.183
-242.946	-141.066	0.280	-0.029
-241.932	156.532	-0.033	0.046
-240.917	-89.901	0.121	-0.035
-239.903	165.351	0.050	0.071
-238.888	540.835	0.123	0.294
-237.873	-200.000	0.021	0.119
-236.859	355.189	-0.058	0.117
-235.844	2.486	-0.074	-0.054
-234.830	-200.000	-0.039	-0.172
-233.815	-200.000	0.007	-0.200
-232.800	-200.000	-0.135	0.000
-231.786	-134.359	0.319	0.039
-230.771	-199.564	-0.126	0.001
-229.757	237.073	-0.067	0.111
-228.742	-166.286	0.424	0.018
-227.727	121.763	0.125	-0.156
-226.713	-23.080	0.146	-0.088
-225.698	87.702	-0.122	0.136
-224.684	800.000	0.083	-0.283
-223.669	733.664	0.122	0.326
-222.655	-122.096	0.141	0.023
-221.640	-200.000	0.041	-0.252
-220.625	800.000	0.043	-0.181
-219.611	-200.000	0.007	0.127
-218.596	-200.000	0.035	0.426
-217.582	800.000	-0.027	0.088
-216.567	-200.000	-0.024	0.205
-215.552	-200.000	-0.038	0.180
-214.538	-200.000	-0.026	0.297
-213.523	-123.561	-0.272	0.043
-212.509	138.086	0.090	0.118
-211.494	-200.000	0.017	-0.264
-210.479	312.840	-0.194	0.365
-209.465	-36.190	0.051	0.027
-208.450	-97.783	0.199	-0.051
-207.436	121.189	0.102	0.127
-206.421	-184.557	0.160	0.003
-205.406	40.489	-0.113	0.102
-204.392	486.296	0.105	-0.239
-203.377	-56.520	0.238	0.105
-202.363	541.504	-0.138	0.328
-201.348	19.019	-0.124	0.099
-200.333	378.789	0.022	-0.045
-199.319	222.325	0.146	-0.236
-198.304	-200.000	0.018	0.114
-197.290	-60.041	-0.479	-0.205
-196.275	66.008	-0.151	0.153
-195.260	-6.161	0.339	0.231
-194.246	-155.579	-0.222	0.014
-193.231	-16.296	0.110	0.070
-192.217	556.126	0.035	0.083
-191.202	380.614	0.015	-0.031
-190.187	-200.000	0.001	0.216
-189.173	800.000	0.003	0.009
-188.158	98.940	0.233	-0.269
-187.144	-113.672	-0.044	0.009
-186.129	437.388	-0.136	0.295
-185.114	-29.241	0.305	0.175
-184.100	173.223	-0.093	-0.134
-183.085	-5.420	0.351	-0.241
-182.071	800.000	-0.052	0.198
-181.056	298.367	-0.223	-0.410
-180.042	-107.582	-0.314	-0.069
-179.027	-22.463	-0.107	-0.065
-178.012	-95.935	-0.041	-0.011
-176.998	-200.000	-0.015	-0.357
-175.983	14.263	0.199	0.155
-174.969	-40.339	-0.341	-0.177
-173.954	87.119	-0.330	-0.365
-172.939	-28.395	0.185	-0.107
-171.925	5.624	-0.175	0.129
-170.910	-200.000	-0.010	0.223
-169.896	800.000	-0.044	0.184
-168.881	518.891	-0.053	-0.123
-167.866	-200.000	0.005	0.026
-166.852	464.758	-0.082	0.184
-165.837	-130.931	-0.428	-0.057
-164.823	-90.355	-0.227	0.066
-163.808	729.397	0.096	0.257
-162.793	-72.411	-0.199	0.074
-161.779	-200.000	-0.026	-0.189
-160.764	490.458	-0.112	0.256
-159.750	-43.527	-0.092	0.047
-158.735	800.000	-0.093	0.299
-157.720	-200.000	-0.050	0.231
-156.706	-134.169	-0.120	0.015
-155.691	-200.000	0.003	0.205
-154.677	-12.298	-0.375	-0.245
-153.662	-8.422	-0.139	0.093
-152.647	93.190	-0.341	0.385
-151.633	-200.000	0.005	0.043
-150.618	-65.267	-0.143	-0.058
-149.604	-129.899	0.473	0.065
-148.589	326.573	-0.138	-0.263
-147.574	-59.330	0.164	0.070
-146.560	800.000	0.075	0.219
-145.545	-200.000	0.028	-0.137
-144.531	-110.869	-0.111	-0.023
-143.516	130.179	0.042	0.053
-142.502	-200.000	-0.020	-0.194
-141.487	-117.266	0.213	0.039
-140.472	-70.838	0.142	0.053
-139.458	-98.597	0.262	0.067
-138.443	6.097	-0.229	0.169
-137.429	800.000	0.040	0.163
-136.414	-92.514	-0.074	-0.021
-135.399	800.000	-0.032	0.138
-134.385	529.660	0.133	0.314
-133.370	-36.319	-0.105	-0.057
-132.356	-191.463	0.144	0.001
-131.341	88.270	-0.106	0.118
-130.326	-91.102	-0.164	-0.047
-129.312	-100.001	-0.161	0.040
-128.297	-200.000	-0.021	0.219
-127.283	-76.261	0.114	0.040
-126.268	800.000	0.159	-0.442
-125.253	242.531	-0.043	-0.071
-124.239	-200.000	0.041	0.244
-123.224	-200.000	0.015	-0.123
-122.210	90.028	0.161	0.179
-121.195	-14.371	-0.325	0.208
-120.180	800.000	0.130	-0.400
-119.166	-69.376	0.100	-0.038
-118.151	73.703	-0.074	-0.078
-117.137	-200.000	0.001	0.024
-116.122	-29.131	0.162	-0.093
-115.107	53.860	0.143	-0.137
-114.093	84.013	0.202	0.220
-113.078	-200.000	0.001	0.251
-112.064	-29.119	0.326	0.186
-111.049	-200.000	-0.046	-0.206
-110.034	65.631	-0.250	0.253
-109.020	176.308	-0.128	-0.185
-108.005	90.164	0.211	-0.235
-106.991	800.000	-0.059	-0.238
-105.976	-137.434	0.154	0.017
-104.962	-77.366	0.525	-0.182
-103.947	115.940	0.107	0.130
-102.932	-47.437	0.153	-0.074
-101.918	-3.286	-0.167	-0.116
-100.903	7.000	-0.103	0.077
-99.889	551.317	-0.069	0.165
-98.874	-132.861	0.273	-0.035
-97.859	-200.000	-0.038	0.169
-96.845	-196.044	-0.161	-0.001
-95.830	92.473	0.128	-0.144
-94.816	-136.860	0.256	-0.029
-93.801	406.542	-0.134	0.282
-92.786	84.874	0.075	-0.082
-91.772	-136.069	-0.247	0.029
-90.757	-56.161	0.236	0.105
-89.743	14.220	0.165	0.128
-88.728	800.000	-0.058	0.253
-87.713	-169.456	-0.113	0.004
-86.699	800.000	0.081	0.323
-85.684	-200.000	-0.017	0.189
-84.670	137.291	-0.192	0.250
-83.655	-169.811	-0.102	0.004
-82.640	72.085	0.063	-0.065
-81.626	41.894	0.052	-0.047
-80.611	-200.000	0.000	0.095
-79.597	170.270	-0.228	-0.325
-78.582	-100.919	-0.186	-0.046
-77.567	-200.000	0.021	0.168
-76.553	800.000	-0.068	0.207
-75.538	150.293	0.261	0.352
-74.524	-200.000	0.019	0.089
-73.509	-200.000	-0.052	-0.226
-72.494	-65.706	0.362	-0.144
-71.480	-85.320	0.512	-0.159
-70.465	800.000	0.071	0.218
-69.451	322.920	0.180	0.341
-68.436	202.183	-0.147	-0.225
-67.422	1.498	-0.060	-0.043
-66.407	328.206	-0.086	-0.164
-65.392	-144.738	0.398	-0.036
-64.378	26.010	0.065	0.054
-63.363	-5.484	-0.081	0.055
-62.349	-90.249	0.256	0.074
-61.334	100.986	-0.628	-0.726
-60.319	357.579	0.212	0.422
-59.305	-200.000	-0.045	-0.716
-58.290	421.514	0.405	0.865
-57.276	800.000	0.483	1.522
-56.261	-200.000	81.480	516.224
-55.246	521.316	1333.253	3110.966
-54.232	151.325	2545.504	3445.867
-53.217	114.401	2216.744	2684.430
-52.203	50.340	1674.896	1573.942
-51.188	42.760	1407.653	1274.954
-50.173	39.397	1363.481	1214.199
-49.159	57.731	1403.853	1365.057
-48.144	63.292	1422.856	1418.201
-47.130	43.324	1382.031	1255.056
-46.115	39.537	1365.113	1216.326
-45.100	39.149	1360.927	1210.161
-44.086	39.174	1358.410	1208.029
-43.071	39.186	1355.974	1205.883
-42.057	39.157	1353.589	1203.541
-41.042	39.214	1352.121	1202.533
-40.027	39.323	1350.537	1201.745
-39.013	39.280	1348.564	1199.677
-37.998	39.201	1346.958	1197.722
-36.984	39.268	1345.045	1196.377
-35.969	39.390	1343.094	1195.336
-34.954	39.391	1341.488	1193.867
-33.940	39.384	1340.063	1192.511
-32.925	39.400	1339.107	1191.709
-31.911	39.448	1337.377	1190.414
-30.896	39.482	1335.709	1189.086
-29.881	39.522	1334.383	1188.100
-28.867	39.491	1332.865	1186.511
-27.852	39.502	1331.139	1184.996
-26.838	39.532	1329.416	1183.593
-25.823	39.451	1328.503	1182.246
-24.809	39.511	1326.685	1180.941
-23.794	39.505	1325.334	1179.656
-22.779	39.468	1324.249	1178.425
-21.765	39.405	1323.330	1177.181
-20.750	39.457	1321.786	1176.074
-19.736	39.376	1319.967	1173.928
-18.721	39.335	1319.445	1173.171
-17.706	39.316	1318.022	1171.747
-16.692	39.394	1316.967	1171.225
-15.677	39.388	1315.814	1170.115
-14.663	39.366	1314.459	1168.739
-13.648	39.284	1313.578	1167.419
-12.633	39.282	1312.781	1166.650
-11.619	39.395	1311.596	1166.223
-10.604	39.336	1310.867	1165.178
-9.590	39.308	1309.821	1164.037
-8.575	39.248	1308.972	1162.884
-7.560	39.342	1307.953	1162.488
-6.546	39.312	1307.088	1161.493
-5.531	39.235	1306.657	1160.611
-4.517	39.313	1305.663	1160.144
-3.502	39.243	1304.897	1159.002
-2.487	39.349	1303.361	1158.215
-1.473	39.291	1299.502	1154.403
-0.458	37.793	1283.615	1131.551
0.556	31.780	1263.393	1084.851
1.571	27.330	1267.353	1062.244
2.586	25.919	1282.460	1066.469
3.600	25.360	1272.074	1054.459
4.615	22.725	1204.010	983.284
5.629	18.169	1130.891	899.579
6.644	15.433	1110.177	868.879
7.659	15.263	1107.421	865.766
8.673	15.216	1106.179	864.479
9.688	15.159	1104.830	863.053
10.702	15.402	1103.738	863.376
11.717	18.332	1107.326	881.206
12.731	21.357	1110.663	899.375
13.746	20.122	1107.451	890.355
14.761	17.893	1103.779	875.900
15.775	16.588	1101.220	867.109
16.790	15.466	1098.947	859.501
17.804	14.616	1097.832	854.203
18.819	14.309	1095.767	850.949
19.834	13.865	1094.960	847.979
20.848	13.544	1094.348	845.794
21.863	13.381	1093.253	844.041
22.877	13.193	1092.643	842.536
23.892	13.190	1092.018	841.967
24.907	13.170	1091.118	841.095
25.921	13.304	1089.915	840.776
26.936	13.192	1089.148	839.537
27.950	13.316	1087.327	838.689
28.965	13.373	1085.831	837.751
29.980	13.464	1084.002	836.725
30.994	13.638	1082.370	836.268
32.009	13.500	1081.863	835.107
33.023	13.453	1080.431	833.692
34.038	13.373	1079.469	832.476
35.053	13.351	1078.855	831.817
36.067	13.421	1077.594	831.122
37.082	13.415	1077.009	830.564
38.096	13.551	1076.079	830.456
39.111	13.567	1075.293	829.857
40.126	13.389	1074.171	828.027
41.140	13.229	1072.701	826.022
42.155	13.258	1071.273	824.996
43.169	13.254	1070.709	824.468
44.184	13.220	1069.889	823.592
45.199	13.212	1068.774	822.623
46.213	13.282	1067.613	822.004
47.228	13.343	1066.330	821.244
48.242	13.306	1064.985	819.954
49.257	13.311	1064.532	819.560
50.271	13.353	1063.476	818.878
51.286	13.298	1062.502	817.786
52.301	13.373	1061.489	817.305
53.315	13.266	1060.490	815.937
54.330	13.260	1059.370	814.973
55.344	13.156	1058.658	813.840
56.359	13.234	1057.646	813.373
57.374	13.180	1056.469	812.132
58.388	13.236	1055.474	811.569
59.403	13.083	1055.083	810.444
60.417	13.151	1054.246	810.065
61.432	13.192	1053.233	809.415
62.447	13.068	1052.812	808.414
63.461	13.172	1051.732	808.021
64.476	13.224	1050.819	807.501
65.490	13.189	1050.012	806.637
66.505	13.268	1049.072	806.233
67.520	13.148	1048.506	805.141
68.534	13.145	1048.067	804.715
69.549	13.164	1047.133	804.020
70.563	13.203	1045.965	803.243
71.578	13.176	1045.325	802.549
72.593	13.080	1044.503	801.380
73.607	13.114	1044.048	801.124
74.622	13.136	1043.207	800.515
75.636	13.032	1042.494	799.392
76.651	13.086	1041.607	798.905
77.666	13.050	1041.198	798.345
78.680	13.046	1040.445	797.678
79.695	13.234	1039.366	797.687
80.709	13.161	1038.930	796.930
81.724	13.181	1038.559	796.674
82.739	13.259	1037.373	796.069
83.753	13.256	1037.108	795.781
84.768	13.430	1035.957	795.664
85.782	13.457	1035.066	795.037
86.797	13.398	1034.019	793.880
87.812	13.408	1032.721	792.863
88.826	13.436	1031.927	792.316
89.841	13.339	1031.101	791.148
90.855	13.424	1030.335	790.896
91.870	13.453	1029.296	790.168
92.884	13.406	1028.442	789.219
93.899	13.367	1027.695	788.389
94.914	13.427	1027.082	788.136
95.928	13.314	1026.489	787.069
96.943	13.456	1024.988	786.525
97.957	13.490	1024.571	786.296
98.972	13.388	1023.844	785.185
99.987	13.455	1022.342	784.283
101.001	13.459	1021.475	783.568
102.016	13.464	1020.818	783.019
103.030	13.420	1020.273	782.322
104.045	13.376	1019.547	781.486
105.060	13.353	1018.409	780.439
106.074	13.359	1016.988	779.310
107.089	13.250	1016.406	778.279
108.103	13.311	1015.279	777.634
109.118	13.209	1014.167	776.235
110.133	13.150	1013.629	775.478
111.147	13.322	1012.275	775.179
112.162	13.389	1011.623	774.928
113.176	13.390	1010.761	774.199
114.191	13.300	1010.204	773.286
115.206	13.337	1008.971	772.446
116.220	13.408	1008.293	772.191
117.235	13.388	1007.442	771.377
118.249	13.212	1006.627	769.866
119.264	13.365	1005.768	769.853
120.279	13.352	1005.252	769.330
121.293	13.327	1003.964	768.159
122.308	13.261	1003.447	767.390
123.322	13.256	1002.549	766.610
124.337	13.286	1001.286	765.714
125.352	13.101	1000.852	764.458
126.366	13.234	999.688	764.120
127.381	13.303	998.357	763.354
128.395	13.296	997.224	762.386
129.410	13.357	996.463	762.016
130.424	13.418	995.514	761.503
131.439	13.453	994.840	761.081
132.454	13.505	993.931	760.557
133.468	13.503	993.437	760.106
134.483	13.489	992.601	759.333
135.497	13.530	991.907	758.924
136.512	13.491	990.742	757.785
137.527	13.534	989.838	757.225
138.541	13.500	989.358	756.635
139.556	13.437	988.297	755.468
140.570	13.572	987.506	755.412
141.585	13.572	987.167	755.088
142.600	13.616	985.884	754.241
143.614	13.734	984.713	753.812
144.629	13.597	984.100	752.657
145.643	13.600	983.242	751.944
146.658	13.678	981.398	750.821
147.673	13.562	980.884	749.837
148.687	13.558	980.069	749.131
149.702	13.496	979.551	748.386
150.716	13.422	978.840	747.444
151.731	13.474	978.173	747.105
152.746	13.419	977.512	746.286
153.760	13.484	976.284	745.574
154.775	13.587	975.925	745.697
155.789	13.671	974.827	745.169
156.804	13.724	974.141	744.818
157.819	13.572	973.707	743.737
158.833	13.698	972.936	743.650
159.848	13.682	972.450	743.136
160.862	13.688	971.075	742.050
161.877	13.657	970.317	741.263
162.892	13.553	969.419	740.049
163.906	13.579	968.130	739.117
164.921	13.591	967.706	738.779
165.935	13.692	966.591	738.312
166.950	13.704	965.514	737.480
167.964	13.597	965.176	736.681
168.979	13.643	964.356	736.194
169.994	13.540	963.381	734.926
171.008	13.695	962.576	734.935
172.023	13.726	961.881	734.475
173.037	13.776	960.850	733.843
174.052	13.807	960.335	733.523
175.067	13.656	959.548	732.192
176.081	13.609	958.951	731.464
177.096	13.660	958.429	731.225
178.110	13.698	957.701	730.770
179.125	13.651	957.417	730.282
180.140	13.591	957.468	729.994
181.154	13.809	956.448	730.112
182.169	13.822	956.031	729.785
183.183	13.778	955.094	728.813
184.198	13.962	954.229	728.895
185.213	13.932	953.525	728.161
186.227	14.025	952.771	727.928
187.242	13.931	952.236	727.043
188.256	14.040	952.032	727.301
189.271	14.060	950.723	726.325
190.286	13.773	950.301	724.683
191.300	13.805	949.523	724.166
192.315	13.715	948.842	723.190
193.329	13.752	948.592	723.097
194.344	13.765	948.078	722.695
195.359	13.880	946.968	722.290
196.373	13.978	946.529	722.317
197.388	14.054	945.998	722.177
198.402	14.152	945.531	722.180
199.417	14.115	944.607	721.251
200.432	14.081	944.235	720.755
201.446	14.257	943.315	720.751
202.461	14.173	943.194	720.231
203.475	14.256	942.689	720.142
204.490	14.104	941.876	718.799
205.504	14.128	940.706	717.948
206.519	14.109	940.428	717.590
207.534	14.051	939.575	716.625
208.548	14.102	938.644	716.069
209.563	14.081	938.356	715.698
210.577	14.224	937.184	715.355
211.592	14.310	936.554	715.179
212.607	14.318	935.845	714.608
213.621	14.328	934.986	713.936
214.636	14.427	934.327	713.792
215.650	14.259	933.872	712.660
216.665	14.282	933.114	712.119
217.680	14.300	932.653	711.780
218.694	14.389	932.110	711.685
219.709	14.414	931.179	711.014
220.723	14.325	930.612	710.142
221.738	14.372	929.973	709.792
222.753	14.315	929.456	709.091
223.767	14.283	928.889	708.459
224.782	14.537	927.948	708.759
225.796	14.625	927.130	708.445
226.811	14.463	926.914	707.528
227.826	14.475	926.390	707.116
228.840	14.436	925.547	706.245
229.855	14.570	923.798	705.416
230.869	14.515	923.487	704.885
231.884	14.319	923.185	703.763
232.899	14.404	922.447	703.496
233.913	14.388	921.687	702.786
234.928	14.521	921.014	702.772
235.942	14.575	920.077	702.223
236.957	14.531	919.567	701.584
237.972	14.430	918.999	700.668
238.986	14.494	918.382	700.401
240.001	14.506	917.669	699.847
241.015	14.439	917.398	699.296
242.030	14.493	916.723	698.949
243.045	14.610	916.056	698.867
244.059	14.580	915.470	698.234
245.074	14.618	914.385	697.502
246.088	14.535	913.937	696.753
247.103	14.737	913.483	697.189
248.117	14.856	912.812	697.108
249.132	14.846	912.536	696.797
250.147	14.881	911.620	696.181
251.161	14.820	911.114	695.476
252.176	14.824	910.727	695.137
253.190	14.986	909.766	695.015
254.205	14.923	909.273	694.316
255.220	15.034	908.437	694.077
256.234	15.032	907.889	693.587
257.249	15.099	907.129	693.225
258.263	15.047	906.109	692.166
259.278	15.041	905.574	691.675
260.293	15.069	905.155	691.408
261.307	15.117	904.401	690.969
262.322	15.150	903.921	690.678
263.336	15.214	903.200	690.328
264.351	15.191	902.091	689.325
265.366	15.336	901.525	689.428
266.380	15.221	901.036	688.522
267.395	15.193	900.268	687.758
268.409	15.144	899.454	686.872
269.424	15.262	898.630	686.669
270.439	15.198	897.925	685.806
271.453	15.165	897.560	685.329
272.468	15.279	896.605	685.006
273.482	15.210	896.446	684.545
274.497	15.270	895.483	683.992
275.512	15.267	894.662	683.292
276.526	15.353	894.423	683.401
277.541	15.257	894.271	682.834
278.555	15.338	893.572	682.570
279.570	15.437	893.034	682.499
280.585	15.395	892.062	681.525
281.599	15.410	891.436	681.047
282.614	15.370	890.510	680.119
283.628	15.289	890.058	679.383
284.643	15.297	889.562	678.977
285.657	15.340	888.850	678.547
286.672	15.341	888.244	678.031
287.687	15.485	887.183	677.740
288.701	15.391	887.125	677.259
289.716	15.557	886.194	677.156
290.730	15.392	885.874	676.188
291.745	15.564	884.891	676.070
292.760	15.476	884.160	675.097
293.774	15.562	883.775	675.088
294.789	15.595	882.978	674.553
295.803	15.648	882.254	674.151
296.818	15.685	881.510	673.671
297.833	15.678	880.975	673.176
298.847	15.714	880.647	673.011
299.862	15.584	879.905	671.864
300.876	15.593	879.555	671.574
301.891	15.629	878.749	671.043
302.906	15.710	878.187	670.879
303.920	15.797	877.779	670.853
304.935	15.829	877.703	670.860
305.949	15.828	876.535	669.907
306.964	15.882	875.383	669.183
307.979	15.832	875.060	668.678
308.993	15.814	874.744	668.303
310.008	15.879	874.177	668.068
311.022	15.934	873.584	667.777
312.037	15.758	873.079	666.633
313.052	15.704	872.383	665.830
314.066	15.700	871.603	665.157
315.081	15.867	871.094	665.373
316.095	15.802	870.380	664.513
317.110	15.800	869.778	663.985
318.125	15.840	869.449	663.834
319.139	15.864	869.038	663.556
320.154	15.907	868.595	663.328
321.168	15.912	867.819	662.695
322.183	15.895	867.195	662.092
323.197	15.917	866.522	661.609
324.212	16.004	866.076	661.550
325.227	15.994	865.575	661.069
326.241	15.962	864.958	660.415
327.256	15.901	864.419	659.704
328.270	15.939	863.571	659.150
329.285	15.973	862.968	658.762
330.300	15.801	863.006	658.062
331.314	15.996	861.916	657.933
332.329	16.073	861.203	657.630
333.343	16.050	861.018	657.340
334.358	16.136	860.719	657.390
335.373	16.091	860.560	657.034
336.387	16.052	860.465	656.751
337.402	16.186	859.691	656.624
338.416	16.232	859.241	656.402
339.431	16.195	858.962	655.989
340.446	16.295	858.630	656.065
341.460	16.188	858.464	655.464
342.475	16.291	857.494	655.064
343.489	16.396	857.059	655.082
344.504	16.346	856.654	654.522
345.519	16.458	855.866	654.294
346.533	16.449	855.823	654.170
347.548	16.294	855.185	653.024
348.562	16.385	854.149	652.526
349.577	16.341	853.780	652.016
350.592	16.417	853.196	651.806
351.606	16.148	852.942	650.518
352.621	16.299	851.933	650.272
353.635	16.450	850.998	650.082
354.650	16.312	850.904	649.423
355.665	16.328	850.477	649.099
356.679	16.462	849.172	648.560
357.694	16.379	848.917	647.989
358.708	16.533	847.991	647.817
359.723	16.358	847.621	646.804
360.738	16.515	847.491	647.249
361.752	16.467	846.452	646.214
362.767	16.554	845.929	646.093
363.781	16.719	845.485	646.326
364.796	16.789	844.763	645.981
365.810	16.796	844.328	645.620
366.825	16.784	844.051	645.307
367.840	16.793	843.249	644.669
368.854	16.727	842.834	644.045
369.869	16.718	842.774	643.906
370.883	16.741	842.246	643.535
371.898	16.731	841.857	643.142
372.913	16.765	841.561	642.989
373.927	16.732	840.996	642.374
374.942	16.815	840.383	642.163
375.956	16.852	840.274	642.165
376.971	16.915	839.699	641.906
377.986	16.879	839.277	641.392
379.000	16.988	838.349	641.036
380.015	16.966	837.700	640.402
381.029	17.048	837.633	640.602
382.044	16.969	836.843	639.642
383.059	16.929	836.114	638.877
384.073	17.024	835.465	638.683
385.088	17.004	834.968	638.171
386.102	17.018	834.369	637.709
387.117	17.041	833.895	637.376
388.132	16.904	833.363	636.399
389.146	16.990	832.926	636.335
390.161	16.933	832.575	635.796
391.175	16.961	831.826	635.270
392.190	17.044	831.510	635.284
393.205	16.953	831.172	634.631
394.219	17.084	830.426	634.494
395.234	16.999	830.039	633.823
396.248	17.013	829.757	633.605
397.263	17.019	829.536	633.403
398.278	17.086	828.985	633.175
399.292	16.954	828.917	632.577
400.307	16.997	828.213	632.144
401.321	17.005	827.255	631.385
402.336	17.123	826.898	631.498
403.350	17.055	826.797	631.110
404.365	17.203	826.165	631.120
405.380	17.226	825.555	630.684
406.394	17.419	824.827	630.789
407.409	17.351	824.603	630.309
408.423	17.351	824.665	630.303
409.438	17.473	823.883	630.098
410.453	17.369	823.283	629.200
411.467	17.541	822.694	629.331
412.482	17.488	822.704	629.086
413.496	17.559	821.954	628.719
414.511	17.463	822.087	628.410
415.526	17.505	821.382	627.973
416.540	17.624	820.504	627.684
417.555	17.525	820.306	627.111
418.569	17.569	819.915	626.920
419.584	17.414	819.710	626.137
420.599	17.500	819.132	625.956
421.613	95.629	1274.153	1397.841
422.628	82.273	1340.448	1397.939
