DTS Sentinel unit serial number:	SN413079Multiplexer serial number:	ORYXHardware model number:	OX4-SRSoftware version number:	ORYX F/W v4.00 Oryx Data Collector v3.7.2.0data status	okinstallation	princeton_trtdifferential loss correction	single-endedforward channel	channel 1reverse channel	N/Adate	2019/09/11time	05:28:11forward acquisition time	60.00reverse acquisition time	0.00gamma	496.2192k internal	0.2331k external	0.2331temperature offset calibration	0.9924default loss term (dB/km)	0.3790temperature slope calibration	1.0000multiplexer offset coefficient	1.0000multiplexer slope coefficient	1.0000fibre end	0.00T internal ref (°C)	29.42T ext. ref 1 (°C)	-0.25T ext. ref 2 (°C)	23.35length (m)	temperature (°C)	Stokes	anti-Stokes-747.200	-32.082	0.119	-0.067
-746.185	-111.332	-0.278	0.057
-745.171	676.671	-0.025	0.066
-744.156	126.864	0.029	0.037
-743.142	-21.197	0.129	-0.080
-742.127	-69.947	0.145	-0.056
-741.112	58.969	-0.182	0.180
-740.098	-200.000	-0.014	0.093
-739.083	800.000	-0.015	-0.061
-738.069	-200.000	0.078	0.469
-737.054	598.459	0.059	0.147
-736.039	251.601	-0.036	0.062
-735.025	-6.947	0.293	0.200
-734.010	297.922	0.091	0.169
-732.996	-48.292	-0.358	-0.173
-731.981	-66.501	-0.134	0.053
-730.966	-200.000	0.009	-0.053
-729.952	-56.900	0.171	0.076
-728.937	392.309	-0.083	0.173
-727.923	-25.128	-0.081	-0.048
-726.908	99.745	-0.188	-0.219
-725.894	357.333	0.034	-0.069
-724.879	76.265	-0.225	-0.240
-723.864	-122.568	0.290	0.047
-722.850	-200.000	-0.000	-0.215
-721.835	408.308	-0.065	-0.138
-720.821	-200.000	-0.032	0.255
-719.806	-177.977	0.251	-0.006
-718.791	46.404	0.325	0.303
-717.777	-200.000	-0.010	-0.086
-716.762	-50.137	-0.230	0.109
-715.748	-83.115	-0.191	0.062
-714.733	36.555	-0.226	-0.200
-713.718	-101.088	-0.153	0.038
-712.704	-200.000	-0.006	-0.236
-711.689	-20.274	-0.241	-0.149
-710.675	-200.000	0.015	-0.147
-709.660	19.175	0.075	0.060
-708.645	-200.000	0.029	-0.139
-707.631	117.761	0.161	-0.199
-706.616	-200.000	0.033	-0.160
-705.602	15.135	-0.054	-0.043
-704.587	1.045	-0.065	-0.047
-703.572	-21.581	-0.358	-0.219
-702.558	-105.800	-0.342	-0.078
-701.543	-55.644	-0.090	-0.040
-700.529	-137.541	0.197	0.022
-699.514	28.366	0.094	0.080
-698.499	-80.032	0.102	-0.035
-697.485	-156.796	-0.212	0.013
-696.470	58.325	-0.012	-0.012
-695.456	-200.000	0.052	-0.289
-694.441	800.000	-0.034	-0.109
-693.426	-185.467	-0.199	-0.003
-692.412	111.822	-0.072	-0.087
-691.397	800.000	0.180	0.507
-690.383	-9.925	-0.248	-0.166
-689.368	-95.132	-0.203	0.055
-688.354	-62.140	0.330	-0.138
-687.339	571.108	-0.121	-0.297
-686.324	705.161	0.049	0.130
-685.310	800.000	-0.100	0.324
-684.295	-170.392	-0.167	-0.006
-683.281	-200.000	0.002	0.060
-682.266	753.400	0.130	-0.352
-681.251	213.741	0.130	0.206
-680.237	-200.000	0.015	0.138
-679.222	-30.753	-0.094	-0.054
-678.208	-200.000	0.024	0.148
-677.193	519.022	0.154	0.363
-676.178	-71.764	0.243	0.091
-675.164	-39.060	0.166	0.088
-674.149	-200.000	-0.020	-0.094
-673.135	-111.956	0.254	0.051
-672.120	800.000	-0.123	-0.434
-671.105	553.791	-0.167	-0.404
-670.091	192.166	-0.146	0.221
-669.076	-200.000	0.051	0.338
-668.062	-200.000	0.009	-0.283
-667.047	316.695	-0.053	0.101
-666.032	-42.918	0.371	-0.189
-665.018	155.204	0.074	-0.102
-664.003	55.467	-0.084	-0.081
-662.989	11.906	-0.160	0.124
-661.974	109.004	0.249	0.299
-660.959	-118.855	-0.239	0.042
-659.945	-122.331	-0.177	-0.029
-658.930	43.351	-0.060	0.055
-657.916	-44.901	0.385	-0.192
-656.901	-63.622	0.123	0.051
-655.886	625.627	-0.047	0.119
-654.872	211.500	-0.185	0.292
-653.857	-200.000	-0.013	0.093
-652.843	-200.000	-0.018	0.145
-651.828	800.000	0.011	0.049
-650.814	-173.034	0.377	-0.012
-649.799	41.421	-0.108	0.098
-648.784	33.903	0.076	0.066
-647.770	-5.316	0.142	0.098
-646.755	-84.722	0.281	0.089
-645.741	189.984	0.092	-0.139
-644.726	22.416	-0.156	-0.128
-643.711	-16.530	0.035	-0.022
-642.697	-127.124	0.126	0.018
-641.682	148.937	0.116	-0.158
-640.668	35.062	-0.105	0.092
-639.653	5.122	0.145	-0.107
-638.638	127.366	0.127	0.161
-637.624	195.947	-0.200	0.305
-636.609	-42.632	0.051	-0.026
-635.595	43.659	0.107	0.098
-634.580	2.852	0.240	-0.175
-633.565	800.000	-0.014	-0.055
-632.551	148.013	0.147	-0.198
-631.536	278.990	-0.187	-0.334
-630.522	-200.000	-0.022	-0.126
-629.507	800.000	0.098	-0.304
-628.492	-120.076	-0.211	0.036
-627.478	-117.753	0.288	0.052
-626.463	-46.584	0.295	-0.145
-625.449	-200.000	0.030	0.153
-624.434	697.145	-0.091	0.238
-623.419	296.007	0.098	0.180
-622.405	800.000	0.065	0.210
-621.390	-200.000	-0.009	0.199
-620.376	-17.295	-0.056	-0.035
-619.361	2.074	-0.099	-0.071
-618.346	226.175	-0.084	-0.137
-617.332	-200.000	0.031	-0.186
-616.317	-80.505	0.272	0.091
-615.303	-136.996	-0.217	-0.025
-614.288	-97.246	0.152	-0.040
-613.273	2.438	0.262	-0.190
-612.259	-55.034	0.179	0.081
-611.244	-200.000	0.029	-0.150
-610.230	800.000	0.052	-0.153
-609.215	16.471	-0.290	0.229
-608.201	-46.107	-0.195	0.096
-607.186	25.462	0.266	-0.222
-606.171	800.000	-0.044	0.184
-605.157	-200.000	-0.012	0.099
-604.142	-200.000	-0.033	0.158
-603.128	-48.373	-0.384	-0.185
-602.113	148.601	0.137	-0.185
-601.098	800.000	0.055	0.178
-600.084	-163.276	0.082	0.004
-599.069	152.909	0.084	0.115
-598.055	41.018	-0.116	0.105
-597.040	194.876	-0.038	-0.058
-596.025	52.490	0.242	0.231
-595.011	154.357	-0.097	0.133
-593.996	-200.000	0.016	-0.093
-592.982	168.497	0.065	-0.092
-591.967	800.000	0.040	-0.120
-590.952	129.452	0.088	0.113
-589.938	-13.145	0.137	0.089
-588.923	-200.000	0.000	-0.041
-587.909	316.073	0.061	-0.114
-586.894	67.813	0.088	-0.091
-585.879	29.188	0.174	0.148
-584.865	-79.488	-0.328	0.111
-583.850	-124.013	-0.429	0.067
-582.836	-190.277	0.184	-0.002
-581.821	-160.593	0.174	0.009
-580.806	-118.842	-0.306	0.054
-579.792	-86.890	-0.266	-0.081
-578.777	-95.718	-0.335	0.090
-577.763	106.219	0.021	-0.024
-576.748	-33.239	-0.090	-0.050
-575.733	800.000	0.037	-0.139
-574.719	313.052	-0.117	-0.220
-573.704	-112.332	-0.157	0.032
-572.690	41.358	0.197	0.178
-571.675	4.186	-0.122	-0.089
-570.661	728.318	0.094	0.251
-569.646	-74.438	-0.089	-0.032
-568.631	529.865	-0.089	-0.210
-567.617	-121.353	-0.324	-0.054
-566.602	-77.320	-0.140	0.049
-565.588	-124.041	-0.151	-0.024
-564.573	-1.515	0.083	-0.058
-563.558	800.000	0.037	0.143
-562.544	-52.959	-0.143	0.066
-561.529	800.000	-0.091	0.301
-560.515	-58.529	-0.267	0.116
-559.500	800.000	-0.090	-0.383
-558.485	-106.854	0.116	0.026
-557.471	217.876	0.135	-0.216
-556.456	-195.584	-0.231	0.002
-555.442	44.471	-0.172	0.158
-554.427	569.367	-0.288	-0.700
-553.412	-120.698	-0.295	0.050
-552.398	186.141	0.211	-0.313
-551.383	-15.619	0.176	-0.112
-550.369	26.985	-0.074	-0.062
-549.354	-200.000	0.044	0.212
-548.339	497.716	-0.141	-0.324
-547.325	551.039	-0.026	0.063
-546.310	-70.159	-0.231	-0.088
-545.296	723.143	0.084	0.225
-544.281	430.449	-0.065	0.140
-543.266	147.748	0.105	0.142
-542.252	78.890	-0.150	0.160
-541.237	-121.285	-0.353	0.059
-540.223	426.689	-0.125	-0.269
-539.208	144.859	-0.153	0.204
-538.193	-78.684	0.108	-0.037
-537.179	406.636	-0.156	-0.329
-536.164	-63.708	0.138	-0.057
-535.150	-11.431	0.172	0.113
-534.135	-33.640	-0.144	0.079
-533.121	-17.582	-0.331	-0.208
-532.106	-200.000	-0.029	-0.345
-531.091	500.674	-0.106	0.243
-530.077	2.720	-0.271	0.196
-529.062	203.318	-0.082	0.127
-528.048	111.511	0.225	-0.271
-527.033	140.317	0.089	-0.118
-526.018	800.000	-0.054	0.149
-525.004	-200.000	-0.054	-0.263
-523.989	-79.719	0.120	0.040
-522.975	-62.662	0.121	-0.050
-521.960	216.600	-0.162	0.257
-520.945	214.630	-0.039	-0.062
-519.931	26.432	0.097	0.081
-518.916	-169.944	-0.310	-0.011
-517.902	-101.255	0.199	0.049
-516.887	-133.872	0.330	-0.041
-515.872	91.483	0.186	0.208
-514.858	20.863	0.102	-0.082
-513.843	116.014	0.192	0.235
-512.829	-200.000	0.027	0.153
-511.814	90.952	-0.046	0.051
-510.799	-200.000	-0.015	-0.134
-509.785	-5.037	-0.378	-0.260
-508.770	-200.000	0.006	0.151
-507.756	106.944	-0.084	0.100
-506.741	-200.000	0.019	-0.106
-505.726	-92.678	-0.353	-0.099
-504.712	800.000	0.044	0.135
-503.697	122.274	-0.126	0.157
-502.683	-10.631	0.123	0.081
-501.668	48.109	-0.250	-0.233
-500.653	-60.233	-0.322	-0.137
-499.639	21.907	0.216	0.176
-498.624	193.778	0.069	0.104
-497.610	134.383	0.097	-0.125
-496.595	-200.000	0.002	-0.023
-495.581	-122.722	0.158	-0.025
-494.566	191.142	0.075	-0.113
-493.551	-200.000	0.002	0.024
-492.537	-135.777	0.299	0.035
-491.522	-143.133	0.112	0.011
-490.508	-45.285	-0.129	0.064
-489.493	259.611	-0.139	-0.239
-488.478	54.211	-0.168	-0.161
-487.464	-75.825	-0.105	-0.037
-486.449	142.351	-0.117	0.154
-485.435	-133.109	0.102	0.013
-484.420	191.422	-0.128	-0.192
-483.405	19.145	-0.126	0.101
-482.391	-200.000	-0.034	0.217
-481.376	-34.634	-0.159	0.087
-480.362	103.143	0.308	0.359
-479.347	100.085	-0.367	0.424
-478.332	800.000	0.022	-0.066
-477.318	265.505	0.114	0.198
-476.303	800.000	-0.050	-0.160
-475.289	-67.240	0.094	0.037
-474.274	-133.260	-0.206	-0.026
-473.259	-200.000	-0.030	-0.357
-472.245	150.253	-0.178	0.240
-471.230	-200.000	-0.004	0.604
-470.216	787.612	-0.045	-0.123
-469.201	28.348	-0.280	-0.236
-468.186	53.783	-0.164	-0.157
-467.172	-152.477	-0.155	-0.011
-466.157	-75.783	0.357	0.126
-465.143	225.543	-0.147	-0.236
-464.128	233.852	0.074	0.122
-463.113	550.373	0.140	0.335
-462.099	54.082	-0.186	0.178
-461.084	-155.404	-0.349	-0.023
-460.070	-78.259	0.024	0.008
-459.055	-0.876	0.237	0.167
-458.040	163.276	0.077	-0.108
-457.026	354.797	-0.122	0.241
-456.011	128.197	-0.092	-0.116
-454.997	188.845	-0.096	-0.143
-453.982	-152.643	0.143	-0.010
-452.968	65.415	0.134	0.135
-451.953	775.427	-0.041	-0.112
-450.938	-110.122	0.245	-0.051
-449.924	-147.968	0.383	0.032
-448.909	-35.614	-0.268	-0.145
-447.895	-121.503	-0.192	0.032
-446.880	-123.806	0.189	-0.030
-445.865	247.855	0.047	-0.079
-444.851	-200.000	-0.001	0.128
-443.836	6.168	-0.180	0.132
-442.822	80.369	0.227	-0.243
-441.807	128.917	0.150	0.190
-440.792	15.763	-0.218	0.170
-439.778	101.458	0.242	0.281
-438.763	-1.561	-0.183	0.128
-437.749	213.778	0.154	0.241
-436.734	-200.000	-0.020	0.147
-435.719	-99.722	0.180	-0.045
-434.705	-125.038	0.129	0.020
-433.690	-200.000	-0.062	-0.304
-432.676	-27.089	0.253	0.147
-431.661	-14.395	-0.206	0.132
-430.646	-25.736	0.187	0.110
-429.632	-200.000	-0.054	-0.392
-428.617	-200.000	0.033	-0.185
-427.603	800.000	0.120	0.406
-426.588	-54.465	-0.243	0.109
-425.573	111.691	0.235	-0.281
-424.559	800.000	-0.073	-0.286
-423.544	-29.773	0.148	-0.084
-422.530	-170.061	0.183	-0.006
-421.515	-19.433	0.181	-0.112
-420.500	-104.386	-0.072	0.017
-419.486	-162.153	-0.049	-0.002
-418.471	12.915	0.202	-0.155
-417.457	-200.000	-0.026	0.202
-416.442	-96.361	0.336	-0.088
-415.428	-11.907	-0.157	-0.103
-414.413	800.000	0.072	-0.244
-413.398	-200.000	-0.014	-0.276
-412.384	-160.143	0.338	-0.018
-411.369	-200.000	0.015	-0.258
-410.355	-94.661	0.366	-0.099
-409.340	-200.000	-0.007	-0.066
-408.325	600.906	-0.139	0.344
-407.311	134.716	0.129	0.167
-406.296	-68.205	0.155	0.060
-405.282	-113.190	0.226	-0.044
-404.267	-200.000	-0.003	-0.051
-403.252	112.337	-0.085	-0.103
-402.238	-54.961	-0.283	-0.127
-401.223	-23.522	-0.105	-0.063
-400.209	61.714	-0.046	0.046
-399.194	416.518	-0.076	-0.161
-398.179	159.242	0.077	-0.107
-397.165	800.000	-0.091	-0.323
-396.150	118.706	0.183	0.225
-395.136	-200.000	-0.074	-0.412
-394.121	244.551	-0.188	0.314
-393.106	31.796	0.168	0.144
-392.092	26.438	0.052	-0.043
-391.077	453.252	-0.111	-0.243
-390.063	26.312	0.105	0.087
-389.048	-90.281	0.285	0.082
-388.033	669.505	0.081	0.207
-387.019	-200.000	0.003	0.170
-386.004	-144.794	0.069	0.006
-384.990	76.688	-0.086	0.090
-383.975	-200.000	-0.025	-0.121
-382.960	45.563	-0.093	0.086
-381.946	-19.274	-0.142	-0.087
-380.931	-83.453	-0.047	0.015
-379.917	-117.868	-0.378	0.067
-378.902	73.364	0.130	-0.135
-377.888	-33.998	-0.052	-0.029
-376.873	-47.297	-0.110	0.053
-375.858	42.290	0.024	0.021
-374.844	-187.719	-0.244	0.003
-373.829	800.000	0.078	0.283
-372.815	-200.000	0.075	0.456
-371.800	-157.329	-0.172	0.010
-370.785	575.070	-0.071	0.173
-369.771	775.147	-0.088	-0.237
-368.756	110.762	-0.152	0.181
-367.742	-19.456	0.338	0.208
-366.727	-118.902	-0.164	0.029
-365.712	-107.393	0.335	-0.073
-364.698	64.910	-0.202	-0.202
-363.683	89.472	0.138	0.152
-362.669	-200.000	0.013	0.230
-361.654	103.165	-0.124	-0.144
-360.639	117.998	0.189	0.231
-359.625	183.985	0.104	-0.153
-358.610	-200.000	-0.024	0.202
-357.596	87.954	0.151	0.166
-356.581	184.838	-0.119	0.174
-355.566	-200.000	-0.004	0.226
-354.552	54.231	0.015	-0.014
-353.537	-65.669	-0.095	-0.038
-352.523	254.282	-0.091	-0.154
-351.508	-200.000	-0.026	-0.138
-350.493	-200.000	-0.009	-0.110
-349.479	-101.128	0.225	-0.055
-348.464	-63.941	-0.277	0.112
-347.450	198.769	-0.157	-0.239
-346.435	-200.000	0.009	-0.261
-345.420	-151.783	0.217	-0.016
-344.406	-160.459	0.253	-0.013
-343.391	800.000	-0.089	0.331
-342.377	767.352	0.114	0.306
-341.362	-200.000	0.067	0.301
-340.348	800.000	-0.076	-0.262
-339.333	93.729	0.126	0.142
-338.318	10.484	-0.309	0.233
-337.304	-30.668	0.094	0.052
-336.289	-63.305	-0.132	-0.054
-335.275	-46.649	0.420	-0.204
-334.260	-81.899	0.401	0.130
-333.245	40.415	0.150	0.134
-332.231	383.511	-0.038	-0.077
-331.216	-118.389	0.264	0.046
-330.202	41.557	0.129	0.116
-329.187	55.156	-0.196	0.188
-328.172	781.879	-0.047	0.127
-327.158	-43.312	0.098	-0.049
-326.143	-37.956	0.211	-0.111
-325.129	-159.331	0.129	0.007
-324.114	-67.194	0.227	0.088
-323.099	120.310	0.236	-0.290
-322.085	-112.705	0.114	-0.023
-321.070	-12.413	-0.166	0.107
-320.056	-128.602	-0.395	-0.055
-319.041	-62.166	0.241	0.100
-318.026	-119.125	0.384	-0.066
-317.012	100.715	-0.071	0.081
-315.997	-200.000	-0.099	0.570
-314.983	22.644	-0.168	-0.136
-313.968	-32.990	-0.144	0.079
-312.953	349.880	0.112	-0.219
-311.939	5.879	0.336	-0.246
-310.924	546.415	0.144	0.341
-309.910	389.217	0.111	-0.228
-308.895	-200.000	-0.004	0.069
-307.880	-78.516	0.260	0.088
-306.866	800.000	-0.020	-0.084
-305.851	800.000	-0.109	-0.322
-304.837	-109.267	-0.033	0.007
-303.822	-143.551	-0.235	0.022
-302.807	-200.000	0.004	-0.395
-301.793	332.333	0.008	-0.014
-300.778	-200.000	0.004	0.375
-299.764	-21.687	-0.309	-0.186
-298.749	322.471	0.083	0.156
-297.735	-2.345	-0.206	-0.143
-296.720	458.167	-0.036	-0.079
-295.705	17.761	0.058	0.046
-294.691	770.340	-0.083	0.225
-293.676	800.000	0.100	0.276
-292.662	364.654	-0.078	-0.155
-291.647	-174.631	0.124	0.003
-290.632	24.407	-0.061	0.050
-289.618	-200.000	0.053	0.323
-288.603	-24.857	0.339	0.199
-287.589	-132.439	0.276	-0.035
-286.574	800.000	0.084	-0.355
-285.559	85.311	0.111	-0.120
-284.545	-44.941	-0.289	-0.142
-283.530	426.714	0.099	-0.210
-282.516	111.456	0.207	-0.247
-281.501	800.000	0.095	0.380
-280.486	-49.520	-0.212	0.100
-279.472	-163.208	0.130	-0.006
-278.457	800.000	0.045	-0.190
-277.443	-112.197	0.170	0.034
-276.428	-200.000	0.002	-0.232
-275.413	-200.000	-0.015	-0.213
-274.399	-200.000	0.017	-0.306
-273.384	614.465	0.087	0.215
-272.370	-21.990	-0.218	-0.131
-271.355	-55.598	-0.146	0.064
-270.340	-135.432	-0.110	0.013
-269.326	-141.425	0.357	0.036
-268.311	800.000	0.004	-0.013
-267.297	800.000	0.055	-0.200
-266.282	800.000	0.009	-0.039
-265.267	-100.244	0.346	0.085
-264.253	19.793	-0.117	0.093
-263.238	-77.791	-0.275	0.094
-262.224	526.141	0.054	0.125
-261.209	60.525	0.390	-0.382
-260.195	800.000	-0.054	-0.192
-259.180	-132.832	-0.051	-0.006
-258.165	297.891	0.091	-0.165
-257.151	-84.870	-0.142	0.044
-256.136	556.455	0.063	0.150
-255.122	-200.000	0.023	-0.168
-254.107	-200.000	0.044	0.412
-253.092	-103.327	-0.331	-0.077
-252.078	-200.000	0.031	-0.269
-251.063	190.199	-0.063	0.093
-250.049	87.952	0.104	0.114
-249.034	49.053	-0.160	0.149
-248.019	136.481	-0.105	0.136
-247.005	-25.244	-0.182	0.106
-245.990	800.000	0.043	-0.146
-244.976	-200.000	0.005	-0.346
-243.961	43.466	-0.139	0.125
-242.946	-52.002	-0.275	0.126
-241.932	800.000	-0.073	0.204
-240.917	-200.000	-0.008	-0.069
-239.903	-22.738	-0.187	0.111
-238.888	-200.000	0.006	-0.197
-237.873	313.743	-0.078	0.145
-236.859	800.000	0.042	-0.163
-235.844	-200.000	-0.047	-0.228
-234.830	-200.000	0.026	-0.279
-233.815	-200.000	-0.009	-0.086
-232.800	98.593	0.065	-0.074
-231.786	-108.591	-0.070	0.015
-230.771	219.627	0.183	-0.289
-229.757	-99.319	0.184	-0.046
-228.742	-33.479	0.141	0.077
-227.727	-124.674	-0.175	-0.027
-226.713	72.307	-0.100	-0.103
-225.698	800.000	0.035	0.124
-224.684	-103.623	0.297	0.069
-223.669	84.031	0.038	-0.040
-222.655	-73.957	0.131	-0.047
-221.640	70.481	0.125	-0.127
-220.625	61.977	0.110	0.108
-219.611	-200.000	0.007	0.123
-218.596	118.636	-0.127	0.154
-217.582	62.904	-0.216	-0.214
-216.567	439.441	0.094	-0.203
-215.552	53.743	0.342	0.324
-214.538	-200.000	0.007	-0.199
-213.523	-92.911	-0.314	-0.086
-212.509	-65.793	-0.224	-0.088
-211.494	433.208	0.033	0.071
-210.479	800.000	-0.041	0.149
-209.465	20.639	-0.107	-0.086
-208.450	182.932	-0.210	-0.306
-207.436	56.473	-0.137	0.132
-206.421	390.443	-0.126	0.257
-205.406	-136.082	-0.042	0.005
-204.392	44.231	0.145	0.131
-203.377	-58.920	0.222	-0.095
-202.363	40.565	-0.401	-0.356
-201.348	492.607	0.073	-0.164
-200.333	-94.554	-0.414	0.111
-199.319	-65.638	-0.058	-0.023
-198.304	6.020	-0.096	0.070
-197.290	-81.792	-0.197	0.064
-196.275	-34.365	-0.212	-0.115
-195.260	-153.286	-0.279	0.019
-194.246	147.102	-0.055	-0.072
-193.231	265.558	0.111	0.191
-192.217	123.001	0.116	-0.143
-191.202	177.213	-0.069	-0.099
-190.187	-181.466	0.057	0.001
-189.173	201.305	-0.032	0.049
-188.158	-200.000	-0.000	0.193
-187.144	174.225	0.170	-0.242
-186.129	10.778	0.176	0.132
-185.114	456.644	-0.127	-0.277
-184.100	-183.673	-0.153	0.003
-183.085	-95.787	-0.160	-0.042
-182.071	75.204	0.239	-0.248
-181.056	-24.295	-0.269	-0.158
-180.042	94.328	-0.157	-0.175
-179.027	-200.000	0.000	0.106
-178.012	56.673	0.155	0.149
-176.998	-200.000	0.001	-0.140
-175.983	-91.571	-0.183	0.051
-174.969	28.700	0.382	0.318
-173.954	800.000	-0.111	0.460
-172.939	-13.108	-0.230	-0.147
-171.925	134.456	-0.107	0.136
-170.910	0.516	-0.035	-0.025
-169.896	-41.413	0.101	-0.051
-168.881	-200.000	0.016	0.184
-167.866	800.000	0.069	-0.196
-166.852	-75.807	0.112	0.039
-165.837	-67.219	-0.235	0.091
-164.823	-82.566	0.322	0.103
-163.808	-143.548	0.060	-0.006
-162.793	119.943	-0.179	0.219
-161.779	52.506	0.077	-0.072
-160.764	-53.959	0.319	-0.143
-159.750	-33.796	0.191	0.104
-158.735	800.000	0.079	-0.255
-157.720	62.744	0.199	0.195
-156.706	40.457	-0.017	-0.015
-155.691	-77.695	-0.449	0.153
-154.677	752.609	0.120	-0.318
-153.662	489.468	0.156	-0.350
-152.647	-9.524	0.332	0.218
-151.633	25.808	-0.098	0.081
-150.618	-56.363	-0.085	0.037
-149.604	84.966	0.094	0.101
-148.589	179.996	0.075	0.109
-147.574	-200.000	-0.006	-0.039
-146.560	-92.088	0.341	-0.095
-145.545	85.852	-0.122	-0.131
-144.531	-140.464	0.387	-0.040
-143.516	299.985	0.063	0.114
-142.502	-133.073	-0.325	-0.040
-141.487	800.000	0.033	0.129
-140.472	161.076	0.064	0.089
-139.458	489.364	0.143	-0.322
-138.443	-17.233	-0.199	0.123
-137.429	-95.647	0.265	-0.070
-136.414	-133.460	-0.221	-0.027
-135.399	-200.000	-0.001	-0.006
-134.385	-80.289	0.189	0.062
-133.370	547.441	0.049	0.115
-132.356	52.383	-0.467	-0.438
-131.341	65.240	0.246	0.244
-130.326	800.000	-0.030	-0.096
-129.312	-200.000	0.025	0.166
-128.297	-200.000	0.004	-0.055
-127.283	163.677	-0.220	-0.304
-126.268	-138.437	-0.137	-0.015
-125.253	124.825	0.110	-0.137
-124.239	-200.000	0.010	-0.080
-123.224	800.000	-0.078	0.307
-122.210	57.869	0.126	0.121
-121.195	-194.071	0.374	0.003
-120.180	-11.648	0.341	-0.220
-119.166	166.963	-0.129	0.180
-118.151	208.673	0.036	-0.056
-117.137	-14.416	-0.229	-0.145
-116.122	-200.000	0.020	0.104
-115.107	5.441	0.110	0.080
-114.093	-200.000	-0.046	-0.224
-113.078	-78.591	-0.178	-0.060
-112.064	393.456	0.212	-0.433
-111.049	42.617	0.059	-0.053
-110.034	198.187	-0.037	-0.055
-109.020	89.517	-0.171	0.187
-108.005	800.000	0.019	0.067
-106.991	477.781	-0.032	0.071
-105.976	-200.000	0.038	0.232
-104.962	800.000	-0.083	0.306
-103.947	206.830	0.067	-0.103
-102.932	-148.391	-0.174	-0.014
-101.918	-91.887	0.109	0.030
-100.903	-200.000	0.066	0.430
-99.889	-152.847	-0.089	-0.006
-98.874	-81.657	-0.178	-0.057
-97.859	-200.000	0.006	0.321
-96.845	800.000	-0.028	0.110
-95.830	13.254	-0.216	-0.164
-94.816	800.000	0.079	0.320
-93.801	-86.921	0.134	0.040
-92.786	142.756	0.096	0.125
-91.772	11.531	0.084	0.063
-90.757	84.259	-0.188	-0.201
-89.743	146.564	-0.223	-0.294
-88.728	-166.989	0.268	0.011
-87.713	10.646	-0.252	0.189
-86.699	351.592	-0.197	0.382
-85.684	-200.000	0.010	0.073
-84.670	33.439	0.332	0.283
-83.655	800.000	0.152	0.433
-82.640	-200.000	0.028	0.290
-81.626	101.734	0.128	-0.146
-80.611	471.404	-0.049	-0.107
-79.597	-200.000	0.064	-0.297
-78.582	125.568	-0.007	-0.008
-77.567	102.047	-0.143	0.164
-76.553	-116.119	0.099	0.018
-75.538	-200.000	0.072	0.487
-74.524	-200.000	-0.013	0.382
-73.509	-5.624	0.140	-0.094
-72.494	212.525	0.100	0.155
-71.480	-36.415	-0.218	-0.115
-70.465	210.103	-0.097	0.149
-69.451	-200.000	-0.034	-0.345
-68.436	53.798	0.136	-0.128
-67.422	225.164	-0.183	0.291
-66.407	158.573	0.068	0.093
-65.392	498.830	-0.034	-0.078
-64.378	800.000	0.015	0.060
-63.363	-41.504	0.324	-0.163
-62.349	800.000	0.063	-0.240
-61.334	111.109	-0.997	-1.177
-60.319	-43.906	0.537	0.265
-59.305	800.000	-0.294	-0.983
-58.290	218.665	0.852	1.334
-57.276	217.660	0.916	1.431
-56.261	-200.000	106.126	615.741
-55.246	507.473	1509.954	3432.780
-54.232	176.185	2701.968	3844.183
-53.217	111.793	2165.101	2560.696
-52.203	41.411	1599.980	1418.127
-51.188	32.955	1334.526	1132.363
-50.173	29.871	1292.734	1078.906
-49.159	54.505	1347.348	1271.763
-48.144	54.849	1362.415	1287.982
-47.130	33.037	1317.118	1117.898
-46.115	29.589	1299.462	1082.699
-45.100	29.398	1294.803	1077.659
-44.086	29.313	1292.722	1075.384
-43.071	29.291	1289.720	1072.721
-42.057	29.313	1287.616	1071.052
-41.042	29.320	1286.018	1069.722
-40.027	29.297	1284.519	1068.300
-39.013	29.237	1283.087	1066.721
-37.998	29.372	1280.414	1065.234
-36.984	29.317	1279.763	1064.332
-35.969	29.399	1277.310	1062.725
-34.954	29.496	1275.243	1061.521
-33.940	29.304	1274.409	1059.678
-32.925	29.422	1272.988	1059.133
-31.911	29.447	1271.655	1058.125
-30.896	29.512	1270.321	1057.348
-29.881	29.545	1268.749	1056.183
-28.867	29.512	1267.368	1054.804
-27.852	29.561	1265.531	1053.512
-26.838	29.596	1263.840	1052.265
-25.823	29.536	1262.907	1051.103
-24.809	29.517	1261.633	1049.892
-23.794	29.428	1260.633	1048.516
-22.779	29.455	1259.118	1047.365
-21.765	29.611	1257.693	1047.020
-20.750	29.512	1256.313	1045.274
-19.736	29.502	1255.201	1044.248
-18.721	29.408	1254.373	1042.987
-17.706	29.419	1252.781	1041.684
-16.692	29.497	1251.556	1041.066
-15.677	29.413	1251.007	1040.092
-14.663	29.246	1250.261	1038.488
-13.648	29.402	1248.396	1037.776
-12.633	29.438	1247.873	1037.504
-11.619	29.361	1246.649	1036.014
-10.604	29.363	1245.946	1035.397
-9.590	29.490	1244.819	1035.134
-8.575	29.337	1244.521	1033.989
-7.560	29.291	1243.357	1032.721
-6.546	29.401	1242.464	1032.551
-5.531	29.225	1242.092	1031.217
-4.517	29.329	1240.839	1030.717
-3.502	29.398	1239.621	1030.049
-2.487	29.417	1238.827	1029.455
-1.473	29.391	1235.126	1026.196
-0.458	27.976	1219.765	1005.610
0.556	22.139	1203.174	968.968
1.571	18.702	1209.090	954.568
2.586	17.875	1223.616	961.295
3.600	17.896	1213.020	953.001
4.615	13.369	1142.392	873.585
5.629	4.616	1068.148	773.357
6.644	0.112	1047.825	736.566
7.659	-0.329	1045.184	732.491
8.673	-0.357	1043.926	731.409
9.688	-0.435	1042.843	730.203
10.702	0.128	1041.309	731.804
11.717	6.196	1049.551	767.202
12.731	15.066	1062.984	820.609
13.746	19.696	1068.239	847.349
14.761	20.573	1069.558	852.623
15.775	20.644	1069.265	852.660
16.790	20.518	1068.157	851.086
17.804	20.425	1067.652	850.155
18.819	20.671	1066.646	850.477
19.834	20.704	1066.556	850.492
20.848	20.778	1065.936	850.286
21.863	20.675	1066.073	849.814
22.877	20.580	1065.031	848.446
23.892	20.610	1064.442	848.050
24.907	20.649	1063.336	847.284
25.921	20.647	1062.552	846.573
26.936	20.629	1061.169	845.306
27.950	20.439	1059.722	843.157
28.965	20.450	1057.926	841.711
29.980	20.547	1055.679	840.313
30.994	20.800	1054.969	840.899
32.009	20.721	1053.759	839.480
33.023	20.486	1052.593	837.341
34.038	20.625	1052.045	837.500
35.053	20.809	1051.183	837.624
36.067	20.678	1050.165	836.111
37.082	20.743	1049.511	835.828
38.096	20.919	1048.924	836.133
39.111	20.977	1048.482	835.984
40.126	20.754	1046.588	833.334
41.140	20.540	1044.587	830.642
42.155	20.251	1043.634	828.430
43.169	20.401	1042.213	827.946
44.184	20.344	1041.732	827.220
45.199	20.334	1040.303	825.965
46.213	20.305	1039.734	825.302
47.228	20.504	1038.557	825.239
48.242	20.540	1038.100	824.976
49.257	20.527	1037.456	824.326
50.271	20.730	1036.423	824.394
51.286	20.811	1035.334	823.837
52.301	20.757	1034.293	822.681
53.315	20.701	1033.246	821.514
54.330	20.641	1032.323	820.422
55.344	20.650	1032.226	820.318
56.359	20.508	1031.062	818.648
57.374	20.418	1030.259	817.515
58.388	20.590	1028.765	817.068
59.403	20.489	1028.018	815.925
60.417	20.224	1027.640	814.310
61.432	20.172	1026.842	813.364
62.447	20.468	1026.162	814.138
63.461	20.581	1025.250	813.872
64.476	20.474	1024.153	812.429
65.490	20.477	1023.035	811.485
66.505	20.617	1022.119	811.339
67.520	20.527	1021.466	810.329
68.534	20.272	1020.542	808.337
69.549	20.026	1019.563	806.347
70.563	20.020	1018.926	805.743
71.578	20.127	1017.602	805.122
72.593	20.009	1016.777	803.849
73.607	20.077	1016.400	803.797
74.622	20.288	1016.393	804.696
75.636	20.264	1015.438	803.758
76.651	20.056	1014.720	802.157
77.666	20.061	1013.951	801.501
78.680	20.255	1012.991	801.566
79.695	20.271	1012.635	801.287
80.709	20.417	1011.455	800.957
81.724	20.281	1010.881	799.803
82.739	20.336	1010.313	799.539
83.753	20.698	1009.876	800.787
84.768	20.918	1008.796	800.871
85.782	20.984	1007.909	800.402
86.797	20.918	1006.930	799.247
87.812	20.788	1005.883	797.753
88.826	20.919	1004.834	797.450
89.841	20.917	1004.241	796.900
90.855	20.938	1003.136	796.048
91.870	20.845	1002.340	794.919
92.884	20.788	1000.946	793.486
93.899	20.746	999.769	792.290
94.914	21.004	999.174	792.921
95.928	20.741	997.961	790.695
96.943	20.462	996.724	788.377
97.957	20.463	995.057	786.995
98.972	20.155	994.516	785.103
99.987	20.538	993.709	786.129
101.001	20.542	993.265	785.728
102.016	20.542	992.546	785.089
103.030	20.481	991.344	783.792
104.045	20.417	990.724	782.943
105.060	20.346	989.389	781.501
106.074	20.439	989.115	781.633
107.089	20.717	988.720	782.502
108.103	20.601	987.145	780.664
109.118	20.443	985.969	778.957
110.133	20.362	985.342	778.030
111.147	20.326	983.496	776.345
112.162	20.075	982.727	774.547
113.176	20.371	981.991	775.219
114.191	20.323	980.864	774.046
115.206	20.074	979.810	772.036
116.220	19.986	979.447	771.289
117.235	20.339	977.970	771.629
118.249	20.149	977.526	770.366
119.264	20.116	976.550	769.383
120.279	20.115	975.859	768.767
121.293	20.181	975.271	768.528
122.308	20.157	974.316	767.599
123.322	20.067	973.053	766.138
124.337	19.996	971.963	764.899
125.352	19.572	970.293	761.647
126.366	19.456	969.226	760.234
127.381	20.272	968.882	763.489
128.395	20.715	968.392	764.981
129.410	20.764	967.609	764.509
130.424	20.632	966.686	763.135
131.439	20.544	966.000	762.141
132.454	20.616	964.761	761.411
133.468	20.555	963.632	760.186
134.483	20.675	962.727	759.927
135.497	20.789	962.417	760.115
136.512	20.872	961.174	759.427
137.527	20.806	960.426	758.483
138.541	20.771	959.873	757.823
139.556	20.859	958.855	757.338
140.570	20.791	958.502	756.695
141.585	20.919	956.976	755.979
142.600	20.886	955.877	754.901
143.614	21.102	955.040	755.108
144.629	21.102	954.667	754.746
145.643	20.953	952.907	752.643
146.658	20.875	951.703	751.291
147.673	20.751	950.723	749.918
148.687	20.634	950.138	748.884
149.702	20.548	948.920	747.489
150.716	20.646	947.935	747.067
151.731	20.805	947.600	747.421
152.746	20.962	946.704	747.319
153.760	20.878	946.656	746.854
154.775	21.079	945.538	746.770
155.789	20.977	944.464	745.420
156.804	21.094	943.771	745.306
157.819	21.042	943.078	744.469
158.833	21.218	942.203	744.465
159.848	21.168	941.238	743.422
160.862	20.968	940.105	741.614
161.877	20.993	939.440	741.130
162.892	21.074	938.261	740.477
163.906	21.014	936.875	739.063
164.921	21.010	936.205	738.452
165.935	20.999	935.587	737.850
166.950	21.110	934.506	737.405
167.964	20.986	933.827	736.281
168.979	20.697	933.068	734.394
169.994	20.894	931.720	734.101
171.008	21.103	930.853	734.231
172.023	21.072	930.065	733.414
173.037	20.784	929.256	731.503
174.052	20.613	928.474	730.105
175.067	20.767	927.661	730.046
176.081	20.921	927.133	730.211
177.096	20.859	926.439	729.340
178.110	20.667	924.888	727.253
179.125	20.330	924.794	725.703
180.140	20.538	924.366	726.176
181.154	20.579	923.887	725.905
182.169	20.933	923.839	727.281
183.183	21.145	923.256	727.642
184.198	20.859	922.511	725.797
185.213	20.907	921.534	725.164
186.227	20.969	920.939	724.891
187.242	20.940	920.537	724.387
188.256	21.180	919.187	724.258
189.271	21.053	918.797	723.362
190.286	20.844	917.742	721.599
191.300	20.243	916.567	718.125
192.315	19.557	914.699	713.766
193.329	19.592	914.314	713.544
194.344	20.295	915.141	717.032
195.359	20.903	914.738	719.165
196.373	20.917	914.235	718.764
197.388	20.691	913.733	717.372
198.402	20.685	912.947	716.666
199.417	20.780	911.948	716.211
200.432	20.560	911.040	714.528
201.446	20.454	910.608	713.694
202.461	20.503	909.556	713.003
203.475	19.585	908.288	708.186
204.490	19.075	906.225	704.428
205.504	19.866	907.225	708.381
206.519	20.498	907.170	710.863
207.534	20.534	906.553	710.464
208.548	21.021	906.226	712.134
209.563	20.723	905.346	710.164
210.577	20.686	904.725	709.463
211.592	21.140	904.092	710.753
212.607	21.071	903.160	709.676
213.621	21.073	903.108	709.579
214.636	21.158	902.143	709.104
215.650	21.038	901.192	707.808
216.665	21.086	900.981	707.773
217.680	21.012	900.001	706.642
218.694	20.672	898.832	704.286
219.709	20.532	898.234	703.187
220.723	20.856	898.426	704.588
221.738	20.939	897.315	703.990
222.753	20.760	896.907	702.884
223.767	20.947	896.535	703.284
224.782	21.187	895.878	703.673
225.796	21.045	895.445	702.702
226.811	20.432	893.963	699.009
227.826	19.806	892.560	695.335
228.840	20.089	892.152	696.093
229.855	20.235	891.143	695.829
230.869	19.826	890.315	693.482
231.884	20.277	890.212	695.148
232.899	20.979	890.459	698.090
233.913	20.938	889.700	697.269
234.928	20.685	889.264	695.856
235.942	20.786	888.560	695.645
236.957	20.486	887.666	693.687
237.972	20.463	887.040	693.044
238.986	20.563	886.474	692.940
240.001	20.471	885.917	692.075
241.015	20.680	885.035	692.156
242.030	20.776	885.132	692.556
243.045	20.889	884.382	692.353
244.059	21.088	883.744	692.585
245.074	20.970	882.737	691.265
246.088	20.402	881.807	688.227
247.103	20.851	881.430	689.650
248.117	21.208	881.550	691.095
249.132	21.406	881.230	691.567
250.147	21.573	880.303	691.436
251.161	21.676	880.043	691.577
252.176	21.651	879.280	690.820
253.190	21.819	878.872	691.100
254.205	21.941	878.463	691.198
255.220	21.840	877.831	690.242
256.234	21.680	877.012	688.908
257.249	21.647	876.017	687.934
258.263	21.827	875.139	687.892
259.278	21.749	874.701	687.181
260.293	21.746	874.335	686.820
261.307	21.704	873.527	685.961
262.322	21.519	872.294	684.209
263.336	20.775	870.267	679.654
264.351	19.616	868.665	673.826
265.366	19.793	868.666	674.455
266.380	20.838	869.318	678.979
267.395	21.286	868.552	680.064
268.409	21.273	868.250	679.718
269.424	21.411	867.706	679.765
270.439	21.542	867.222	679.836
271.453	21.523	866.951	679.492
272.468	21.780	866.394	679.990
273.482	21.856	865.426	679.466
274.497	21.276	864.496	676.431
275.512	20.948	863.530	674.348
276.526	21.521	863.716	676.649
277.541	21.658	862.918	676.490
278.555	21.248	862.227	674.307
279.570	21.222	861.192	673.337
280.585	21.408	860.992	673.838
281.599	21.333	859.625	672.421
282.614	20.803	858.701	669.603
283.628	20.878	858.138	669.390
284.643	21.305	857.734	670.656
285.657	20.779	856.947	667.964
286.672	20.486	856.018	666.059
287.687	21.268	855.664	668.719
288.701	21.145	855.705	668.220
289.716	20.845	854.550	666.111
290.730	20.839	853.811	665.457
291.745	20.394	852.911	662.995
292.760	20.884	852.554	664.527
293.774	21.831	853.360	668.710
294.789	22.079	852.782	669.145
295.803	22.128	852.454	669.013
296.818	22.307	851.290	668.722
297.833	21.842	850.036	665.914
298.847	21.572	849.479	664.393
299.862	21.915	849.457	665.618
300.876	22.244	849.041	666.481
301.891	21.982	848.348	664.883
302.906	21.554	847.587	662.610
303.920	21.685	846.981	662.575
304.935	22.055	846.756	663.737
305.949	22.085	846.010	663.207
306.964	21.763	845.485	661.522
307.979	21.916	844.953	661.624
308.993	22.244	844.596	662.524
310.008	22.085	844.092	661.468
311.022	21.899	843.425	660.187
312.037	21.803	843.061	659.485
313.052	21.658	841.560	657.707
314.066	20.706	840.260	653.061
315.081	20.614	839.218	651.849
316.095	21.332	839.787	654.926
317.110	21.922	839.366	656.747
318.125	21.018	838.077	652.301
319.139	19.997	836.728	647.379
320.154	19.982	836.335	646.963
321.168	20.907	836.511	650.496
322.183	21.549	836.464	652.795
323.197	21.689	836.309	653.139
324.212	21.835	836.004	653.389
325.227	21.744	835.960	652.958
326.241	21.731	834.816	651.956
327.256	21.651	834.245	651.155
328.270	21.431	833.680	649.842
329.285	21.419	832.597	648.896
330.300	21.220	831.947	647.593
331.314	21.586	831.512	648.552
332.329	21.868	831.743	649.721
333.343	21.958	831.608	649.890
334.358	21.980	830.982	649.424
335.373	21.989	830.254	648.832
336.387	22.266	830.447	649.948
337.402	22.380	830.344	650.233
338.416	22.175	829.678	648.894
339.431	22.244	829.653	649.073
340.446	22.598	828.610	649.505
341.460	22.396	828.210	648.388
342.475	22.241	827.712	647.373
343.489	22.251	827.459	647.152
344.504	22.707	827.135	648.521
345.519	22.811	827.054	648.781
346.533	22.838	826.558	648.435
347.548	22.653	826.145	647.372
348.562	22.677	825.886	647.202
349.577	22.570	824.982	646.044
350.592	22.753	824.072	645.943
351.606	22.834	823.185	645.488
352.621	22.413	823.058	643.791
353.635	22.506	821.855	643.132
354.650	21.668	820.275	638.785
355.665	20.859	818.853	634.675
356.679	21.438	818.375	636.357
357.694	21.720	818.259	637.236
358.708	21.724	817.693	636.753
359.723	22.204	817.362	638.181
360.738	22.383	817.385	638.794
361.752	22.415	816.694	638.314
362.767	22.757	816.706	639.506
363.781	22.962	816.477	640.011
364.796	23.135	815.954	640.171
365.810	23.080	815.564	639.610
366.825	23.025	814.979	638.896
367.840	22.692	814.425	637.202
368.854	22.387	813.253	635.128
369.869	22.411	812.924	634.903
370.883	22.363	812.671	634.474
371.898	22.454	811.910	634.153
372.913	22.452	811.372	633.670
373.927	22.520	811.426	633.898
374.942	22.720	810.721	634.010
375.956	22.689	810.373	633.573
376.971	22.848	810.100	633.872
377.986	22.973	809.784	634.018
379.000	22.971	809.310	633.584
380.015	22.843	808.694	632.589
381.029	22.998	808.061	632.592
382.044	23.119	807.348	632.410
383.059	22.947	806.841	631.341
384.073	23.112	806.459	631.575
385.088	23.004	806.018	630.788
386.102	22.849	805.281	629.604
387.117	22.778	804.577	628.747
388.132	22.463	803.207	626.499
389.146	22.017	802.702	624.465
390.161	22.278	802.684	625.322
391.175	22.728	802.743	626.912
392.190	22.472	801.505	624.982
393.205	21.104	799.274	618.343
394.219	19.765	797.623	612.273
395.234	19.745	797.643	612.164
396.248	21.358	798.775	618.690
397.263	22.659	799.727	623.982
398.278	22.586	799.304	623.336
399.292	22.442	798.369	622.043
400.307	22.497	798.116	621.988
401.321	22.576	797.556	621.773
402.336	22.890	797.723	622.958
403.350	23.238	797.755	624.152
404.365	23.431	797.472	624.559
405.380	23.725	797.053	625.207
406.394	23.715	796.423	624.623
407.409	23.646	795.877	623.898
408.423	23.460	795.830	623.152
409.438	23.705	795.507	623.705
410.453	23.736	794.908	623.290
411.467	23.583	794.210	622.151
412.482	23.612	793.945	621.989
413.496	23.844	793.278	622.222
414.511	23.680	793.126	621.475
415.526	23.839	792.703	621.644
416.540	23.670	791.698	620.210
417.555	23.467	791.091	618.973
418.569	23.434	790.810	618.583
419.584	23.354	790.393	617.924
420.599	23.299	789.672	617.112
421.613	157.444	1365.926	1797.954
422.628	136.301	1449.868	1798.035
