DTS Sentinel unit serial number:	SN413079Multiplexer serial number:	ORYXHardware model number:	OX4-SRSoftware version number:	ORYX F/W v4.00 Oryx Data Collector v3.7.2.0data status	okinstallation	princeton_trtdifferential loss correction	single-endedforward channel	channel 1reverse channel	N/Adate	2019/09/12time	03:04:11forward acquisition time	60.00reverse acquisition time	0.00gamma	496.2192k internal	0.2322k external	0.2322temperature offset calibration	1.0075default loss term (dB/km)	0.3790temperature slope calibration	1.0000multiplexer offset coefficient	1.0000multiplexer slope coefficient	1.0000fibre end	0.00T internal ref (°C)	32.31T ext. ref 1 (°C)	2.12T ext. ref 2 (°C)	27.39length (m)	temperature (°C)	Stokes	anti-Stokes-747.200	-92.134	-0.281	0.080
-746.185	-47.961	-0.130	-0.064
-745.171	33.677	-0.207	0.182
-744.156	249.969	-0.273	0.468
-743.142	-5.906	0.087	-0.060
-742.127	6.248	-0.040	0.030
-741.112	800.000	0.065	0.229
-740.098	66.878	-0.124	-0.127
-739.083	-126.481	-0.180	0.027
-738.069	-87.791	0.134	-0.041
-737.054	800.000	-0.072	-0.315
-736.039	-11.754	-0.468	-0.310
-735.025	233.433	0.113	-0.189
-734.010	-200.000	-0.012	0.079
-732.996	239.180	-0.183	-0.308
-731.981	109.153	0.251	0.303
-730.966	-200.000	-0.042	-0.254
-729.952	-115.840	0.144	-0.027
-728.937	800.000	0.041	0.154
-727.923	-136.039	0.103	-0.012
-726.908	-79.103	-0.228	0.078
-725.894	-200.000	-0.026	0.404
-724.879	-200.000	0.038	0.246
-723.864	-115.967	-0.237	-0.045
-722.850	-116.870	0.111	0.021
-721.835	-63.281	-0.092	0.038
-720.821	800.000	-0.012	-0.040
-719.806	348.215	-0.032	0.063
-718.791	-133.222	0.146	0.019
-717.777	-103.260	-0.111	0.026
-716.762	-60.656	-0.218	-0.093
-715.748	119.933	0.095	-0.119
-714.733	313.468	0.077	-0.145
-713.718	-200.000	-0.012	-0.121
-712.704	-200.000	0.024	-0.196
-711.689	800.000	0.035	0.145
-710.675	-19.146	-0.048	0.030
-709.660	-68.703	0.242	0.095
-708.645	-200.000	0.006	0.113
-707.631	-128.519	-0.140	-0.020
-706.616	-67.400	0.265	-0.105
-705.602	-2.440	0.123	0.087
-704.587	-38.366	-0.144	0.077
-703.572	125.071	-0.044	-0.056
-702.558	92.254	-0.121	-0.137
-701.543	-200.000	-0.038	-0.251
-700.529	-97.602	0.080	-0.021
-699.514	-200.000	0.026	-0.520
-698.499	176.874	0.065	-0.095
-697.485	-104.396	-0.225	0.052
-696.470	727.132	-0.074	-0.198
-695.456	312.745	0.154	-0.292
-694.441	4.562	-0.023	-0.017
-693.426	-3.364	-0.251	0.176
-692.412	117.388	0.100	-0.124
-691.397	311.142	0.040	0.076
-690.383	-129.879	-0.180	-0.025
-689.368	800.000	0.006	-0.025
-688.354	-23.406	-0.192	0.116
-687.339	39.003	-0.107	0.096
-686.324	-13.774	0.292	0.190
-685.310	800.000	-0.071	0.248
-684.295	-58.084	-0.183	-0.081
-683.281	109.968	0.201	0.243
-682.266	800.000	0.049	0.198
-681.251	-55.322	-0.211	0.095
-680.237	-17.216	-0.265	-0.168
-679.222	-200.000	-0.043	-0.198
-678.208	800.000	-0.084	-0.334
-677.193	-200.000	-0.011	-0.139
-676.178	800.000	-0.096	0.405
-675.164	-107.349	0.201	-0.044
-674.149	464.216	-0.056	-0.127
-673.135	-200.000	0.007	-0.248
-672.120	406.807	-0.139	-0.296
-671.105	800.000	0.043	-0.131
-670.091	-126.664	-0.053	-0.008
-669.076	-59.191	0.129	0.056
-668.062	-121.608	-0.068	0.011
-667.047	446.144	0.067	-0.149
-666.032	-200.000	0.004	-0.204
-665.018	216.232	-0.112	-0.179
-664.003	336.438	0.075	-0.148
-662.989	-73.028	0.231	-0.085
-661.974	-200.000	0.016	-0.148
-660.959	800.000	-0.049	-0.215
-659.945	-200.000	-0.007	0.034
-658.930	-1.682	-0.084	-0.059
-657.916	-200.000	0.004	0.222
-656.901	52.738	-0.249	-0.239
-655.886	-74.231	-0.107	0.039
-654.872	278.108	-0.250	-0.448
-653.857	-25.300	-0.145	-0.086
-652.843	-83.411	0.198	0.064
-651.828	800.000	-0.030	-0.110
-650.814	-103.865	0.236	-0.055
-649.799	-160.570	-0.172	-0.009
-648.784	1.895	-0.013	-0.009
-647.770	-117.761	-0.136	-0.025
-646.755	-200.000	0.039	-0.235
-645.741	-27.018	0.239	-0.140
-644.726	-51.488	0.102	-0.048
-643.711	-87.030	-0.132	0.041
-642.697	73.189	0.126	-0.133
-641.682	25.271	0.058	0.048
-640.668	229.090	-0.177	-0.291
-639.653	39.846	-0.164	0.148
-638.638	800.000	-0.053	-0.187
-637.624	-134.223	-0.269	0.033
-636.609	-66.417	0.287	0.115
-635.595	-67.108	0.094	-0.037
-634.580	88.369	-0.178	-0.199
-633.565	800.000	0.022	0.063
-632.551	800.000	-0.117	0.382
-631.536	-161.674	0.273	-0.014
-630.522	-35.714	0.103	0.056
-629.507	-49.233	-0.096	0.046
-628.492	-196.772	0.255	0.002
-627.478	-41.139	0.172	-0.089
-626.463	-48.759	-0.120	0.058
-625.449	-69.410	-0.113	0.043
-624.434	800.000	0.045	0.140
-623.419	-31.496	-0.224	-0.126
-622.405	-21.117	0.074	0.045
-621.390	365.261	-0.213	0.430
-620.376	-73.048	-0.252	0.093
-619.361	-200.000	0.000	-0.087
-618.346	-23.139	0.187	-0.113
-617.332	4.094	0.193	-0.142
-616.317	91.205	-0.035	0.040
-615.303	5.889	-0.101	-0.075
-614.288	70.780	-0.200	-0.208
-613.273	-200.000	-0.003	-0.125
-612.259	-108.687	-0.274	0.059
-611.244	9.844	0.157	0.120
-610.230	511.939	-0.070	-0.164
-609.215	800.000	0.066	-0.203
-608.201	-69.649	-0.036	-0.014
-607.186	498.895	-0.080	-0.186
-606.171	-200.000	-0.008	-0.336
-605.157	-200.000	-0.038	0.210
-604.142	9.364	-0.089	0.068
-603.128	-166.427	0.241	-0.010
-602.113	772.221	0.048	-0.132
-601.098	111.080	0.191	0.231
-600.084	336.329	-0.107	-0.209
-599.069	-53.026	-0.248	0.115
-598.055	-87.649	0.153	0.046
-597.040	512.791	-0.033	0.077
-596.025	168.343	-0.122	-0.174
-595.011	-110.083	0.540	-0.113
-593.996	800.000	-0.044	0.162
-592.982	-46.961	-0.192	0.094
-591.967	-200.000	-0.005	0.370
-590.952	467.443	0.100	-0.226
-589.938	39.563	-0.271	-0.244
-588.923	-40.070	0.271	0.142
-587.909	-200.000	0.005	-0.060
-586.894	-88.741	-0.088	-0.026
-585.879	-200.000	0.011	-0.245
-584.865	45.757	-0.130	-0.121
-583.850	69.127	-0.095	0.098
-582.836	109.014	-0.133	-0.160
-581.821	-84.304	0.117	0.037
-580.806	-4.334	0.148	-0.103
-579.792	-39.420	-0.344	0.181
-578.777	-125.162	-0.500	-0.077
-577.763	-200.000	0.022	-0.225
-576.748	-64.288	-0.133	0.054
-575.733	307.316	-0.120	0.225
-574.719	707.599	0.102	-0.270
-573.704	366.767	-0.088	0.179
-572.690	318.887	0.055	0.105
-571.675	-200.000	0.040	0.212
-570.661	-29.558	0.069	0.040
-569.646	479.226	0.042	-0.095
-568.631	372.385	-0.135	0.275
-567.617	-200.000	-0.014	0.174
-566.602	-126.213	0.151	-0.023
-565.588	-101.034	0.074	-0.018
-564.573	-121.929	-0.225	-0.037
-563.558	-56.740	0.326	-0.145
-562.544	800.000	0.046	0.139
-561.529	51.433	-0.140	0.133
-560.515	-38.748	0.108	0.057
-559.500	-130.978	-0.100	-0.013
-558.485	-55.638	-0.365	-0.164
-557.471	90.108	0.121	-0.135
-556.456	-58.205	0.094	-0.041
-555.442	-200.000	-0.014	0.245
-554.427	-95.670	0.383	0.103
-553.412	608.824	-0.044	0.111
-552.398	-52.698	-0.140	-0.065
-551.383	33.602	-0.243	0.212
-550.369	165.542	0.054	-0.076
-549.354	576.954	0.096	0.236
-548.339	3.484	0.385	0.281
-547.325	102.194	-0.179	-0.210
-546.310	-200.000	-0.011	0.088
-545.296	-200.000	0.012	-0.265
-544.281	-118.867	-0.209	0.037
-543.266	-76.827	-0.381	-0.134
-542.252	-200.000	-0.041	-0.247
-541.237	-89.735	0.083	-0.024
-540.223	800.000	-0.053	-0.163
-539.208	-107.038	0.070	-0.016
-538.193	-15.016	-0.394	-0.253
-537.179	46.161	0.194	0.180
-536.164	213.872	0.120	0.190
-535.150	-22.389	0.126	-0.076
-534.135	10.267	-0.102	-0.078
-533.121	161.039	-0.104	-0.146
-532.106	103.100	-0.204	-0.239
-531.091	-92.555	-0.237	0.067
-530.077	190.570	-0.077	-0.116
-529.062	220.289	-0.097	0.156
-528.048	-112.322	0.399	-0.080
-527.033	84.592	0.214	-0.235
-526.018	-14.805	-0.285	-0.183
-525.004	-200.000	-0.011	0.155
-523.989	125.521	0.079	0.100
-522.975	581.990	0.060	0.147
-521.960	-5.345	0.182	0.125
-520.945	-94.420	0.384	0.105
-519.931	800.000	0.033	-0.140
-518.916	-7.406	0.086	0.058
-517.902	324.826	-0.052	-0.099
-516.887	71.635	0.123	-0.128
-515.872	-162.341	-0.091	-0.005
-514.858	56.168	0.153	-0.149
-513.843	-31.394	0.157	-0.089
-512.829	-63.635	-0.025	-0.010
-511.814	-24.206	0.078	0.047
-510.799	-47.792	-0.123	-0.060
-509.785	-147.888	0.219	-0.018
-508.770	-158.636	0.040	0.002
-507.756	-200.000	-0.081	0.406
-506.741	-130.345	0.344	0.047
-505.726	800.000	0.093	0.269
-504.712	-200.000	-0.024	0.157
-503.697	14.559	-0.212	0.166
-502.683	-200.000	-0.024	-0.117
-501.668	95.872	0.233	-0.266
-500.653	245.345	-0.080	-0.134
-499.639	95.150	-0.141	0.161
-498.624	-70.292	0.266	0.101
-497.610	-102.580	-0.339	0.081
-496.595	-120.848	-0.313	-0.053
-495.581	-108.106	0.403	-0.087
-494.566	-200.000	0.006	-0.144
-493.551	-44.943	-0.236	-0.117
-492.537	-200.000	-0.054	-0.362
-491.522	-15.410	-0.239	-0.152
-490.508	-200.000	0.031	-0.138
-489.493	-24.636	-0.114	-0.068
-488.478	10.414	-0.376	-0.286
-487.464	134.996	-0.170	-0.221
-486.449	-34.015	-0.246	0.135
-485.435	-200.000	0.034	-0.250
-484.420	78.773	-0.057	0.061
-483.405	-200.000	-0.084	-0.381
-482.391	-82.860	-0.197	0.064
-481.376	-66.051	0.358	0.143
-480.362	-44.420	-0.048	-0.024
-479.347	800.000	-0.016	-0.057
-478.332	-200.000	-0.086	-0.428
-477.318	-42.974	0.248	0.126
-476.303	-200.000	-0.055	-0.255
-475.289	178.640	0.229	0.334
-474.274	-200.000	-0.035	0.182
-473.259	480.893	0.046	0.105
-472.245	800.000	-0.009	0.029
-471.230	264.644	0.192	0.333
-470.216	169.799	0.092	-0.131
-469.201	800.000	-0.038	-0.118
-468.186	236.905	0.075	-0.125
-467.172	-38.009	0.206	-0.109
-466.157	-103.091	-0.285	-0.067
-465.143	11.548	0.345	0.265
-464.128	-73.051	0.296	-0.108
-463.113	760.052	0.079	-0.213
-462.099	-153.296	0.331	0.023
-461.084	132.442	-0.187	0.240
-460.070	-200.000	-0.021	-0.130
-459.055	800.000	0.075	-0.216
-458.040	-160.269	-0.164	-0.009
-457.026	-47.674	0.255	-0.123
-456.011	148.470	-0.186	0.250
-454.997	800.000	-0.047	-0.171
-453.982	-42.006	0.296	0.151
-452.968	-68.521	-0.057	-0.022
-451.953	-157.124	-0.316	0.019
-450.938	-76.449	0.178	0.062
-449.924	-200.000	-0.001	0.423
-448.909	-98.318	0.068	-0.017
-447.895	-129.187	-0.324	0.045
-446.880	-65.626	0.222	0.089
-445.865	152.941	0.090	-0.122
-444.851	126.178	-0.050	0.064
-443.836	800.000	0.141	-0.565
-442.822	-67.660	-0.306	-0.120
-441.807	-7.211	0.164	-0.111
-440.792	-26.548	-0.324	-0.190
-439.778	-108.188	0.209	-0.045
-438.763	-90.562	-0.247	0.071
-437.749	-12.973	-0.150	0.098
-436.734	142.071	-0.037	-0.049
-435.719	-165.071	-0.216	-0.010
-434.705	53.635	-0.105	0.101
-433.690	26.400	0.366	0.306
-432.676	-79.466	0.184	0.062
-431.661	10.491	-0.118	-0.090
-430.646	110.311	-0.161	0.193
-429.632	88.573	-0.121	0.134
-428.617	105.723	0.086	-0.101
-427.603	24.865	0.097	0.080
-426.588	72.110	-0.200	-0.207
-425.573	2.660	0.205	0.148
-424.559	0.611	0.088	-0.063
-423.544	-153.611	0.124	-0.009
-422.530	112.767	0.057	0.069
-421.515	-200.000	0.022	0.107
-420.500	-86.431	0.070	0.021
-419.486	-0.382	0.122	0.087
-418.471	800.000	-0.066	0.201
-417.457	120.885	0.169	0.210
-416.442	-82.170	-0.206	-0.067
-415.428	254.516	0.116	0.198
-414.413	-200.000	-0.018	-0.253
-413.398	349.477	0.067	-0.132
-412.384	75.212	-0.237	0.249
-411.369	200.542	-0.130	0.200
-410.355	-200.000	0.007	0.346
-409.340	-89.601	-0.165	0.048
-408.325	-200.000	0.021	0.201
-407.311	190.636	-0.067	-0.100
-406.296	-113.985	0.091	-0.018
-405.282	180.525	0.090	0.132
-404.267	-31.188	-0.327	-0.184
-403.252	-117.167	0.279	-0.051
-402.238	9.294	-0.244	0.184
-401.223	268.968	-0.140	0.245
-400.209	188.788	-0.072	0.108
-399.194	90.511	0.149	0.166
-398.179	24.260	-0.124	-0.102
-397.165	-183.577	-0.204	-0.003
-396.150	-129.417	-0.205	-0.028
-395.136	-200.000	-0.006	-0.037
-394.121	-100.365	0.083	0.020
-393.106	223.726	0.033	-0.052
-392.092	374.861	-0.058	0.118
-391.077	-200.000	0.026	-0.231
-390.063	-105.540	0.191	-0.043
-389.048	-172.780	0.140	0.004
-388.033	-200.000	-0.052	-0.374
-387.019	-200.000	0.017	-0.158
-386.004	-60.132	0.318	-0.135
-384.990	-92.418	-0.076	0.021
-383.975	-76.738	-0.282	-0.098
-382.960	-121.150	-0.129	-0.021
-381.946	-132.904	-0.190	0.024
-380.931	87.417	0.230	-0.254
-379.917	800.000	0.023	0.074
-378.902	505.030	-0.005	-0.012
-377.888	254.241	-0.172	-0.293
-376.873	245.401	0.034	0.057
-375.858	-73.652	0.200	-0.072
-374.844	737.898	0.079	0.212
-373.829	-102.604	-0.119	0.028
-372.815	-200.000	0.016	-0.335
-371.800	81.796	0.102	-0.110
-370.785	-27.700	-0.440	0.254
-369.771	-1.571	0.077	0.054
-368.756	-200.000	-0.005	-0.081
-367.742	-200.000	-0.070	0.308
-366.727	255.738	0.106	0.181
-365.712	286.024	0.114	-0.205
-364.698	800.000	-0.011	0.035
-363.683	-4.200	-0.034	-0.024
-362.669	196.350	-0.069	0.105
-361.654	78.479	0.042	0.045
-360.639	6.245	-0.197	-0.145
-359.625	800.000	0.049	0.171
-358.610	-131.365	-0.207	-0.027
-357.596	10.154	-0.188	0.142
-356.581	-133.125	0.169	-0.021
-355.566	128.647	0.122	0.154
-354.552	641.208	0.118	0.300
-353.537	-102.656	0.152	-0.036
-352.523	-200.000	0.049	-0.264
-351.508	800.000	-0.100	-0.288
-350.493	-17.968	0.057	0.036
-349.479	483.806	-0.022	0.051
-348.464	800.000	0.085	0.244
-347.450	114.383	0.099	-0.120
-346.435	-171.815	0.038	0.001
-345.420	800.000	-0.150	-0.494
-344.406	800.000	0.071	0.199
-343.391	109.269	0.191	0.227
-342.377	-200.000	-0.031	0.251
-341.362	77.210	0.226	-0.238
-340.348	325.834	-0.028	-0.052
-339.333	-52.098	-0.115	0.053
-338.318	-200.000	-0.023	-0.165
-337.304	5.320	0.128	0.094
-336.289	33.262	-0.384	0.331
-335.275	65.872	0.110	0.111
-334.260	16.339	-0.128	-0.101
-333.245	-146.494	0.467	0.040
-332.231	-200.000	-0.025	0.156
-331.216	258.514	-0.272	0.466
-330.202	-200.000	-0.007	0.298
-329.187	-112.417	0.068	0.013
-328.172	233.806	0.022	0.037
-327.158	-200.000	-0.019	-0.126
-326.143	-68.411	0.272	0.105
-325.129	-100.190	-0.125	-0.031
-324.114	40.882	0.149	0.134
-323.099	-200.000	-0.055	0.318
-322.085	-60.229	0.105	0.044
-321.070	-200.000	0.065	0.572
-320.056	800.000	0.054	0.179
-319.041	800.000	-0.010	-0.038
-318.026	28.365	-0.206	-0.173
-317.012	223.003	0.158	0.254
-315.997	754.536	0.046	-0.124
-314.983	3.696	-0.174	0.126
-313.968	-77.456	0.109	0.037
-312.953	-124.158	-0.124	0.019
-311.939	800.000	-0.064	0.222
-310.924	-119.998	-0.074	-0.013
-309.910	272.179	0.104	0.182
-308.895	43.572	0.403	-0.366
-307.880	197.758	0.158	-0.240
-306.866	356.393	0.039	0.078
-305.851	660.779	-0.135	0.344
-304.837	-36.721	-0.139	-0.074
-303.822	-42.906	0.193	-0.097
-302.807	370.495	-0.057	0.114
-301.793	-200.000	-0.068	0.366
-300.778	-79.477	-0.109	-0.037
-299.764	-56.636	0.282	-0.124
-298.749	-200.000	-0.030	0.201
-297.735	133.216	-0.060	-0.077
-296.720	-127.750	-0.266	-0.038
-295.705	139.139	0.164	0.214
-294.691	-32.241	0.184	-0.102
-293.676	26.774	0.102	0.085
-292.662	-118.817	-0.188	-0.033
-291.647	-200.000	-0.011	-0.211
-290.632	83.383	0.162	0.176
-289.618	-200.000	-0.039	-0.198
-288.603	-11.024	0.083	0.054
-287.589	659.726	-0.052	0.132
-286.574	-146.136	0.018	0.002
-285.559	-72.455	-0.373	0.137
-284.545	755.443	0.065	0.175
-283.530	-200.000	-0.018	-0.517
-282.516	-123.522	0.269	-0.042
-281.501	-84.674	0.267	-0.083
-280.486	800.000	0.055	0.152
-279.472	14.667	-0.357	0.277
-278.457	-193.605	-0.394	0.003
-277.443	800.000	-0.027	-0.094
-276.428	374.672	-0.100	0.202
-275.413	290.486	0.094	0.169
-274.399	-200.000	0.000	0.154
-273.384	64.027	-0.262	0.261
-272.370	800.000	0.099	0.316
-271.355	2.750	0.033	-0.024
-270.340	-200.000	0.064	-0.426
-269.326	-200.000	-0.015	0.072
-268.311	800.000	-0.096	-0.274
-267.297	-200.000	0.020	-0.098
-266.282	-186.330	0.265	0.004
-265.267	-200.000	0.018	-0.192
-264.253	800.000	-0.068	-0.276
-263.238	-123.404	-0.342	-0.054
-262.224	24.613	-0.031	-0.026
-261.209	-58.504	-0.216	-0.093
-260.195	246.330	0.240	0.402
-259.180	-108.627	-0.087	0.018
-258.165	-96.454	-0.001	-0.000
-257.151	-200.000	0.011	-0.361
-256.136	41.129	0.109	0.098
-255.122	-69.512	-0.208	-0.079
-254.107	-88.525	0.148	-0.044
-253.092	74.810	0.392	0.409
-252.078	800.000	0.088	0.302
-251.063	458.876	-0.090	0.198
-250.049	488.896	-0.058	0.131
-249.034	-73.867	0.452	0.163
-248.019	-103.357	-0.265	0.062
-247.005	460.941	0.045	-0.099
-245.990	-115.369	0.304	-0.057
-244.976	-200.000	0.018	-0.173
-243.961	-95.634	0.267	-0.071
-242.946	-90.154	0.303	-0.087
-241.932	800.000	-0.070	-0.224
-240.917	-116.558	0.092	-0.017
-239.903	44.471	-0.166	0.151
-238.888	374.024	-0.026	0.053
-237.873	70.045	-0.255	0.261
-236.859	-35.397	-0.092	-0.049
-235.844	57.757	-0.189	-0.183
-234.830	-165.640	0.088	-0.004
-233.815	13.929	-0.021	-0.016
-232.800	-126.876	0.464	0.068
-231.786	-104.943	-0.309	0.070
-230.771	-19.942	-0.106	-0.065
-229.757	-200.000	0.243	0.001
-228.742	-200.000	-0.081	0.392
-227.727	275.205	0.201	-0.353
-226.713	235.688	-0.072	0.117
-225.698	-200.000	-0.031	-0.325
-224.684	800.000	-0.091	-0.268
-223.669	-167.776	-0.176	-0.007
-222.655	-144.685	-0.185	0.017
-221.640	187.622	-0.131	0.194
-220.625	8.864	-0.201	-0.150
-219.611	520.169	-0.038	-0.089
-218.596	-40.988	-0.240	-0.123
-217.582	-200.000	0.031	0.398
-216.567	800.000	-0.044	-0.182
-215.552	423.531	-0.107	-0.228
-214.538	322.011	0.051	0.096
-213.523	800.000	0.070	0.204
-212.509	55.139	-0.099	-0.095
-211.494	-19.410	-0.128	0.079
-210.479	-44.640	0.145	0.072
-209.465	-200.000	-0.003	-0.296
-208.450	-65.921	0.281	-0.111
-207.436	-200.000	-0.042	0.208
-206.421	102.870	0.127	-0.147
-205.406	116.289	0.011	-0.013
-204.392	-91.048	0.149	0.042
-203.377	606.271	0.126	-0.310
-202.363	257.752	0.063	-0.107
-201.348	-200.000	0.004	0.078
-200.333	140.024	0.102	0.133
-199.319	-129.700	-0.360	-0.049
-198.304	0.269	-0.486	-0.343
-197.290	172.038	0.176	-0.251
-196.275	-104.449	0.405	-0.093
-195.260	-200.000	0.004	-0.029
-194.246	277.517	0.052	0.092
-193.231	-50.186	0.170	-0.080
-192.217	-200.000	0.002	0.464
-191.202	292.559	0.222	0.399
-190.187	800.000	0.087	-0.312
-189.173	800.000	0.094	-0.265
-188.158	178.345	-0.156	-0.225
-187.144	181.130	0.222	0.322
-186.129	23.652	0.201	0.164
-185.114	29.092	-0.190	0.159
-184.100	108.376	-0.062	0.073
-183.085	128.945	-0.185	-0.233
-182.071	-200.000	-0.004	-0.114
-181.056	-149.034	-0.227	-0.018
-180.042	-200.000	0.094	-0.493
-179.027	800.000	0.037	-0.144
-178.012	-56.692	-0.119	-0.052
-176.998	161.406	-0.183	0.253
-175.983	-67.091	-0.115	0.045
-174.969	800.000	-0.117	-0.326
-173.954	244.795	-0.106	0.176
-172.939	562.992	-0.159	0.380
-171.925	25.555	-0.165	-0.136
-170.910	-82.525	0.300	0.096
-169.896	686.851	-0.142	-0.366
-168.881	-102.331	-0.090	-0.021
-167.866	124.051	0.054	0.067
-166.852	11.441	-0.052	-0.040
-165.837	-200.000	-0.007	0.236
-164.823	-200.000	0.006	0.154
-163.808	-97.532	0.343	-0.088
-162.793	-99.654	-0.187	0.046
-161.779	-76.731	-0.292	0.101
-160.764	-82.595	0.377	-0.121
-159.750	-20.015	-0.092	0.056
-158.735	-200.000	0.012	-0.207
-157.720	318.379	0.108	0.202
-156.706	800.000	0.098	-0.344
-155.691	-127.491	0.073	0.010
-154.677	39.403	0.176	-0.155
-153.662	-82.116	0.327	-0.105
-152.647	55.474	0.324	-0.310
-151.633	-39.255	0.168	0.087
-150.618	281.396	0.105	-0.185
-149.604	-106.128	0.216	-0.048
-148.589	64.123	0.195	0.194
-147.574	-200.000	0.021	-0.142
-146.560	-59.871	-0.193	0.081
-145.545	-92.123	-0.207	-0.058
-144.531	-153.536	-0.308	0.021
-143.516	-123.509	-0.204	0.032
-142.502	-200.000	-0.037	-0.244
-141.487	48.877	0.069	-0.064
-140.472	242.286	0.227	0.374
-139.458	227.517	-0.081	-0.129
-138.443	-50.976	0.050	0.023
-137.429	-200.000	-0.033	-0.227
-136.414	-52.141	-0.494	0.226
-135.399	148.336	-0.280	0.373
-134.385	38.743	-0.221	-0.195
-133.370	800.000	0.031	-0.130
-132.356	-38.413	0.181	0.094
-131.341	-96.107	-0.410	-0.108
-130.326	699.068	-0.167	-0.434
-129.312	-75.801	-0.223	0.078
-128.297	535.733	-0.092	0.214
-127.283	-77.377	0.086	0.029
-126.268	138.076	0.157	0.203
-125.253	186.106	-0.127	-0.186
-124.239	238.555	0.090	-0.148
-123.224	-64.705	-0.062	-0.025
-122.210	-200.000	-0.012	-0.067
-121.195	325.391	0.165	0.310
-120.180	228.907	0.178	0.287
-119.166	-99.443	0.196	0.049
-118.151	-200.000	-0.022	0.212
-117.137	194.778	-0.149	0.223
-116.122	15.525	-0.327	-0.253
-115.107	-26.537	0.047	0.027
-114.093	-118.941	-0.191	-0.033
-113.078	800.000	-0.060	0.203
-112.064	-32.712	0.176	0.096
-111.049	29.284	0.145	0.121
-110.034	160.677	0.134	0.185
-109.020	497.214	-0.201	0.457
-108.005	39.521	-0.166	0.147
-106.991	461.732	0.028	0.061
-105.976	-60.355	0.330	0.139
-104.962	257.129	-0.188	0.318
-103.947	-73.066	-0.143	0.052
-102.932	800.000	0.015	-0.057
-101.918	-60.605	-0.157	-0.066
-100.903	-44.510	0.115	0.057
-99.889	-182.793	0.079	-0.001
-98.874	-129.004	-0.247	-0.034
-97.859	-135.542	0.134	-0.016
-96.845	-61.136	-0.155	-0.064
-95.830	15.145	0.129	0.100
-94.816	19.432	0.168	-0.133
-93.801	-200.000	-0.037	-0.267
-92.786	271.201	0.091	0.158
-91.772	-9.310	-0.142	0.094
-90.757	800.000	0.009	0.028
-89.743	540.551	-0.099	0.233
-88.728	800.000	0.074	0.256
-87.713	-200.000	0.003	-0.228
-86.699	-200.000	0.053	0.457
-85.684	108.491	0.180	0.212
-84.670	-97.704	0.060	-0.015
-83.655	-200.000	0.036	-0.167
-82.640	5.631	-0.214	-0.156
-81.626	158.996	0.122	-0.167
-80.611	-200.000	-0.006	-0.368
-79.597	-38.392	-0.073	-0.038
-78.582	25.340	0.195	0.159
-77.567	-48.846	-0.123	0.058
-76.553	206.740	0.309	0.474
-75.538	381.340	0.089	0.181
-74.524	293.760	0.096	0.172
-73.509	800.000	-0.064	0.227
-72.494	-147.371	0.339	-0.028
-71.480	800.000	0.045	0.132
-70.465	243.422	-0.067	0.110
-69.451	172.947	0.121	0.172
-68.436	-32.346	0.352	-0.193
-67.422	-73.830	-0.264	0.094
-66.407	22.202	-0.174	-0.140
-65.392	800.000	-0.028	-0.085
-64.378	110.361	-0.214	-0.252
-63.363	52.400	-0.290	-0.273
-62.349	-198.707	-0.174	0.001
-61.334	93.818	-0.720	-0.803
-60.319	-10.314	0.393	0.256
-59.305	800.000	-0.419	-1.187
-58.290	416.146	0.532	1.117
-57.276	800.000	0.425	1.487
-56.261	-200.000	95.946	591.968
-55.246	570.776	1365.844	3268.924
-54.232	162.841	2539.139	3505.461
-53.217	113.842	2135.217	2552.103
-52.203	44.169	1600.614	1443.629
-51.188	35.892	1338.778	1157.900
-50.173	32.630	1297.356	1102.971
-49.159	54.274	1344.452	1272.392
-48.144	56.516	1361.303	1301.637
-47.130	36.000	1319.956	1142.076
-46.115	32.549	1302.884	1107.017
-45.100	32.358	1297.823	1101.556
-44.086	32.289	1294.896	1098.625
-43.071	32.185	1293.021	1096.387
-42.057	32.175	1290.485	1094.132
-41.042	32.186	1288.926	1092.834
-40.027	32.261	1287.329	1091.871
-39.013	32.248	1285.380	1090.101
-37.998	32.336	1283.271	1088.778
-36.984	32.351	1281.931	1087.686
-35.969	32.335	1280.692	1086.497
-34.954	32.362	1278.938	1085.119
-33.940	32.359	1277.269	1083.643
-32.925	32.304	1276.389	1082.537
-31.911	32.416	1274.262	1081.335
-30.896	32.328	1273.064	1079.771
-29.881	32.469	1271.953	1079.592
-28.867	32.421	1270.199	1077.790
-27.852	32.419	1268.937	1076.665
-26.838	32.480	1267.316	1075.595
-25.823	32.477	1265.909	1074.339
-24.809	32.396	1264.828	1072.914
-23.794	32.431	1263.546	1071.988
-22.779	32.338	1262.486	1070.512
-21.765	32.377	1261.072	1069.493
-20.750	32.320	1259.799	1068.048
-19.736	32.334	1258.322	1066.835
-18.721	32.190	1257.380	1065.178
-17.706	32.266	1255.914	1064.326
-16.692	32.365	1254.687	1063.800
-15.677	32.203	1253.760	1062.059
-14.663	32.291	1252.766	1061.669
-13.648	32.096	1251.756	1059.670
-12.633	32.295	1250.659	1059.822
-11.619	32.305	1249.867	1059.164
-10.604	32.289	1248.725	1058.064
-9.590	32.287	1248.104	1057.488
-8.575	32.192	1246.830	1055.830
-7.560	32.223	1246.169	1055.404
-6.546	32.151	1245.803	1054.646
-5.531	32.190	1244.612	1053.816
-4.517	32.300	1243.101	1053.113
-3.502	32.238	1242.564	1052.268
-2.487	32.124	1242.287	1051.355
-1.473	32.129	1237.939	1047.662
-0.458	30.868	1222.956	1027.987
0.556	27.869	1205.883	991.337
1.571	24.282	1211.768	976.483
2.586	23.402	1226.918	983.722
3.600	23.026	1215.884	972.717
4.615	17.076	1143.550	883.882
5.629	6.993	1066.707	775.212
6.644	2.364	1046.044	737.839
7.659	2.053	1044.223	734.992
8.673	1.995	1042.253	733.263
9.688	2.049	1041.340	732.813
10.702	2.396	1040.035	733.493
11.717	9.025	1049.141	771.823
12.731	19.031	1063.714	831.046
13.746	24.183	1069.435	860.394
14.761	25.138	1071.147	866.307
15.775	25.272	1070.681	866.505
16.790	25.008	1069.641	864.312
17.804	25.058	1068.842	863.832
18.819	25.083	1068.622	863.694
19.834	25.248	1068.404	864.239
20.848	25.309	1067.911	864.056
21.863	25.369	1067.324	863.793
22.877	25.099	1066.641	861.865
23.892	25.163	1065.752	861.382
24.907	25.085	1065.772	860.942
25.921	25.130	1064.478	860.039
26.936	25.125	1062.797	858.581
27.950	25.111	1061.460	857.360
28.965	25.107	1059.298	855.518
29.980	25.018	1058.272	854.191
30.994	25.382	1057.132	854.927
32.009	25.263	1056.292	853.607
33.023	24.970	1055.430	851.440
34.038	25.018	1054.793	851.079
35.053	25.271	1053.727	851.345
36.067	25.299	1052.753	850.616
37.082	25.203	1052.673	850.021
38.096	25.448	1052.110	850.649
39.111	25.491	1051.346	850.160
40.126	25.363	1049.457	847.953
41.140	24.943	1047.756	844.525
42.155	24.726	1046.409	842.339
43.169	24.973	1045.449	842.655
44.184	24.836	1044.764	841.384
45.199	24.753	1043.818	840.160
46.213	24.783	1043.109	839.654
47.228	25.043	1042.041	839.942
48.242	25.093	1041.138	839.372
49.257	25.137	1040.722	839.169
50.271	25.298	1039.836	839.132
51.286	25.325	1039.256	838.717
52.301	25.357	1038.266	837.991
53.315	25.194	1037.512	836.549
54.330	25.213	1036.593	835.825
55.344	25.224	1035.459	834.885
56.359	25.081	1034.736	833.565
57.374	25.083	1033.369	832.398
58.388	24.994	1033.118	831.709
59.403	24.884	1032.247	830.424
60.417	24.841	1031.454	829.512
61.432	24.953	1031.069	829.651
62.447	25.017	1030.341	829.285
63.461	24.999	1030.084	828.924
64.476	25.066	1028.242	827.676
65.490	24.852	1027.366	825.909
66.505	24.909	1027.144	825.920
67.520	24.978	1026.330	825.512
68.534	24.704	1025.565	823.563
69.549	24.518	1024.278	821.599
70.563	24.509	1023.589	820.935
71.578	24.377	1022.701	819.540
72.593	24.367	1021.519	818.477
73.607	24.433	1021.133	818.398
74.622	24.786	1020.717	819.611
75.636	24.866	1019.721	819.104
76.651	24.654	1019.185	817.629
77.666	24.563	1018.144	816.308
78.680	24.630	1017.780	816.249
79.695	24.758	1017.250	816.336
80.709	24.844	1016.339	815.923
81.724	24.784	1015.854	815.192
82.739	24.834	1015.331	814.928
83.753	25.158	1015.053	816.105
84.768	25.457	1013.891	816.456
85.782	25.657	1013.168	816.713
86.797	25.500	1012.329	815.249
87.812	25.309	1011.147	813.360
88.826	25.403	1010.231	812.978
89.841	25.551	1009.274	812.807
90.855	25.480	1009.052	812.234
91.870	25.456	1007.716	810.979
92.884	25.316	1006.569	809.351
93.899	25.186	1005.687	807.987
94.914	25.415	1005.285	808.623
95.928	25.181	1004.062	806.517
96.943	25.097	1002.403	804.735
97.957	24.861	1001.291	802.713
98.972	24.689	1000.497	801.233
99.987	24.969	1000.069	802.074
101.001	25.166	999.028	802.048
102.016	25.125	998.396	801.287
103.030	25.182	997.408	800.677
104.045	24.907	996.442	798.604
105.060	24.897	995.152	797.455
106.074	24.977	994.684	797.369
107.089	25.320	994.224	798.451
108.103	25.187	993.265	797.023
109.118	24.950	991.970	794.863
110.133	24.964	991.118	794.169
111.147	24.770	989.564	791.996
112.162	24.615	989.059	790.834
113.176	24.931	988.297	791.553
114.191	24.857	987.784	790.744
115.206	24.555	986.603	788.396
116.220	24.643	985.572	787.889
117.235	24.664	984.973	787.435
118.249	24.555	984.499	786.508
119.264	24.472	983.659	785.400
120.279	24.567	982.636	784.932
121.293	24.558	982.284	784.543
122.308	24.678	981.364	784.262
123.322	24.660	979.961	782.994
124.337	24.538	978.772	781.441
125.352	24.070	977.023	777.933
126.366	23.969	976.411	776.933
127.381	24.829	976.518	780.707
128.395	25.152	975.431	781.174
129.410	25.132	975.067	780.725
130.424	25.166	973.825	779.812
131.439	25.171	973.248	779.299
132.454	25.258	971.927	778.552
133.468	25.194	971.151	777.582
134.483	25.154	970.635	776.929
135.497	25.365	970.155	777.388
136.512	25.452	968.983	776.759
137.527	25.363	968.242	775.710
138.541	25.470	967.637	775.618
139.556	25.484	966.784	774.927
140.570	25.498	966.251	774.490
141.585	25.519	964.884	773.417
142.600	25.486	963.720	772.274
143.614	25.612	963.667	772.705
144.629	25.687	962.652	772.143
145.643	25.522	961.706	770.609
146.658	25.419	960.276	768.956
147.673	25.319	959.329	767.701
148.687	25.109	958.521	766.089
149.702	25.242	956.844	765.251
150.716	25.050	956.208	763.853
151.731	25.423	955.406	764.735
152.746	25.490	955.136	764.734
153.760	25.623	954.663	764.854
154.775	25.669	954.025	764.470
155.789	25.670	952.870	763.482
156.804	25.571	952.188	762.447
157.819	25.457	951.728	761.528
158.833	25.691	950.986	761.861
159.848	25.741	949.687	760.964
160.862	25.509	948.340	758.838
161.877	25.674	947.104	758.477
162.892	25.679	946.460	757.912
163.906	25.636	945.262	756.705
164.921	25.443	944.494	755.213
165.935	25.600	943.725	755.191
166.950	25.553	942.676	754.088
167.964	25.563	941.663	753.255
168.979	25.443	941.051	752.196
169.994	25.361	939.998	750.942
171.008	25.641	939.764	751.861
172.023	25.551	938.610	750.494
173.037	25.318	937.719	748.743
174.052	25.286	936.540	747.603
175.067	25.400	935.806	747.427
176.081	25.573	935.168	747.568
177.096	25.312	934.772	746.102
178.110	25.004	934.246	744.337
179.125	24.931	933.027	742.998
180.140	24.960	933.004	743.031
181.154	25.234	932.445	743.658
182.169	25.374	932.698	744.372
183.183	25.517	932.295	744.579
184.198	25.452	931.104	743.293
185.213	25.410	930.471	742.550
186.227	25.540	929.938	742.595
187.242	25.493	929.022	741.605
188.256	25.657	928.378	741.701
189.271	25.630	927.696	740.980
190.286	25.310	926.719	738.815
191.300	24.882	924.687	735.371
192.315	23.974	923.327	730.500
193.329	23.837	923.421	729.945
194.344	24.908	923.327	734.204
195.359	25.305	923.811	736.152
196.373	25.494	922.883	736.121
197.388	25.358	922.505	735.197
198.402	25.348	922.165	734.819
199.417	25.495	921.197	734.584
200.432	25.337	920.055	732.962
201.446	25.065	919.725	731.527
202.461	25.123	919.389	731.433
203.475	24.249	917.263	726.117
204.490	23.510	915.710	721.818
205.504	24.417	916.088	725.742
206.519	25.005	915.983	727.984
207.534	25.142	915.554	728.133
208.548	25.609	915.380	729.825
209.563	25.311	914.223	727.631
210.577	25.269	913.916	727.152
211.592	25.651	913.641	728.418
212.607	25.686	912.221	727.362
213.621	25.551	912.172	726.711
214.636	25.635	911.658	726.580
215.650	25.597	910.645	725.555
216.665	25.797	910.122	725.878
217.680	25.659	909.040	724.397
218.694	25.177	908.023	721.583
219.709	25.050	907.372	720.491
220.723	25.439	907.108	721.781
221.738	25.474	906.519	721.388
222.753	25.522	905.853	720.987
223.767	25.543	905.420	720.662
224.782	25.781	905.196	721.376
225.796	25.817	904.623	720.999
226.811	25.116	903.031	716.865
227.826	24.495	901.573	713.163
228.840	24.670	901.637	713.849
229.855	24.742	900.728	713.356
230.869	24.352	899.490	710.758
231.884	24.753	899.955	712.659
232.899	25.455	899.672	715.167
233.913	25.298	898.871	713.841
234.928	25.390	898.200	713.611
235.942	25.395	897.812	713.260
236.957	25.112	896.410	710.963
237.972	25.099	895.920	710.459
238.986	25.203	895.622	710.574
240.001	25.230	894.923	710.061
241.015	25.282	894.837	710.138
242.030	25.415	894.489	710.321
243.045	25.379	894.339	709.999
244.059	25.649	893.456	710.301
245.074	25.439	892.565	708.702
246.088	24.951	891.995	706.263
247.103	25.321	891.535	707.293
248.117	25.941	891.371	709.541
249.132	26.239	890.771	710.173
250.147	26.223	890.454	709.796
251.161	26.374	889.988	709.955
252.176	26.354	889.312	709.272
253.190	26.334	889.408	709.208
254.205	26.551	888.820	709.526
255.220	26.500	887.830	708.476
256.234	26.240	887.446	707.089
257.249	26.357	886.279	706.555
258.263	26.284	885.783	705.811
259.278	26.368	885.023	705.471
260.293	26.399	884.840	705.380
261.307	26.248	883.924	704.002
262.322	26.174	882.838	702.786
263.336	25.258	881.345	697.973
264.351	24.477	878.926	692.968
265.366	24.418	879.288	692.963
266.380	25.552	879.659	697.596
267.395	26.005	879.521	699.182
268.409	25.953	878.903	698.428
269.424	26.072	878.678	698.647
270.439	26.274	877.744	698.622
271.453	26.275	877.066	698.026
272.468	26.319	876.931	698.026
273.482	26.548	876.141	698.220
274.497	26.037	875.037	695.310
275.512	25.659	874.556	693.408
276.526	26.131	874.228	694.905
277.541	26.262	873.779	694.989
278.555	25.923	873.127	693.108
279.570	25.865	872.435	692.273
280.585	26.073	871.851	692.547
281.599	25.902	871.131	691.259
282.614	25.379	869.393	687.814
283.628	25.468	868.978	687.768
284.643	25.806	868.845	688.893
285.657	25.390	867.702	686.338
286.672	25.158	866.976	684.817
287.687	25.623	866.929	686.494
288.701	25.824	866.143	686.574
289.716	25.524	865.317	684.718
290.730	25.461	864.846	684.047
291.745	25.158	863.723	681.943
292.760	25.561	863.944	683.590
293.774	26.319	864.762	687.060
294.789	26.755	863.936	688.000
295.803	26.793	863.338	687.608
296.818	27.025	862.830	688.019
297.833	26.261	861.626	684.105
298.847	26.283	861.135	683.739
299.862	26.495	860.822	684.233
300.876	26.702	860.444	684.653
301.891	26.640	859.790	683.839
302.906	26.160	858.932	681.287
303.920	26.479	858.498	682.085
304.935	26.764	858.562	683.148
305.949	26.709	857.563	682.087
306.964	26.364	856.864	680.170
307.979	26.478	856.561	680.300
308.993	26.865	856.456	681.612
310.008	26.803	855.837	680.824
311.022	26.601	854.609	679.031
312.037	26.392	854.275	677.923
313.052	26.133	853.261	676.085
314.066	25.225	851.914	671.562
315.081	25.052	850.707	669.904
316.095	25.827	851.451	673.329
317.110	26.377	851.374	675.264
318.125	25.567	849.679	670.840
319.139	24.447	847.964	665.257
320.154	24.492	847.641	665.109
321.168	25.461	848.242	669.132
322.183	26.123	848.099	671.423
323.197	26.109	848.355	671.516
324.212	26.434	847.827	672.245
325.227	26.436	847.320	671.793
326.241	26.371	846.371	670.740
327.256	26.327	845.294	669.664
328.270	26.136	845.366	668.953
329.285	25.913	844.361	667.272
330.300	25.845	843.178	666.028
331.314	26.091	843.355	667.019
332.329	26.384	843.167	667.894
333.343	26.523	843.209	668.383
334.358	26.477	842.609	667.676
335.373	26.648	842.651	668.281
336.387	26.918	842.330	668.963
337.402	27.007	842.097	669.046
338.416	26.924	841.615	668.300
339.431	27.069	841.204	668.448
340.446	27.225	840.903	668.721
341.460	26.986	840.476	667.444
342.475	26.893	839.872	666.566
343.489	27.005	839.069	666.280
344.504	27.157	839.118	666.816
345.519	27.304	838.943	667.158
346.533	27.293	838.544	666.741
347.548	27.438	837.526	666.405
348.562	27.367	837.285	665.893
349.577	27.362	836.466	665.164
350.592	27.388	835.880	664.735
351.606	27.411	835.013	664.070
352.621	27.266	834.360	662.965
353.635	27.125	833.516	661.720
354.650	26.590	831.872	658.415
355.665	25.624	830.703	653.920
356.679	25.854	830.795	654.771
357.694	26.589	830.064	656.805
358.708	26.163	829.781	654.978
359.723	26.823	829.566	657.143
360.738	27.055	828.995	657.472
361.752	27.157	828.714	657.559
362.767	27.574	828.097	658.518
363.781	27.560	828.100	658.412
364.796	27.819	827.648	658.931
365.810	27.910	827.518	659.095
366.825	27.794	826.709	657.975
367.840	27.421	825.944	655.966
368.854	26.994	825.457	653.981
369.869	27.118	824.761	653.821
370.883	27.012	824.582	653.239
371.898	26.948	824.175	652.629
372.913	27.105	823.909	652.922
373.927	27.194	823.328	652.724
374.942	27.464	822.724	653.157
375.956	27.443	822.496	652.842
376.971	27.460	822.425	652.791
377.986	27.784	822.013	653.566
379.000	27.786	821.157	652.834
380.015	27.555	820.268	651.246
381.029	27.658	819.724	651.123
382.044	27.735	819.508	651.166
383.059	27.860	818.735	650.942
384.073	27.937	818.041	650.608
385.088	27.794	817.396	649.525
386.102	27.471	816.811	647.856
387.117	27.334	816.432	647.013
388.132	27.209	815.233	645.561
389.146	26.588	814.435	642.668
390.161	26.915	814.609	643.910
391.175	27.519	813.943	645.467
392.190	27.090	813.171	643.279
393.205	25.866	810.811	637.030
394.219	24.289	809.077	630.043
395.234	24.153	808.903	629.370
396.248	25.940	810.293	636.715
397.263	27.274	811.495	642.318
398.278	27.157	811.316	641.705
399.292	26.886	810.301	639.890
400.307	26.984	809.620	639.641
401.321	27.061	809.675	639.898
402.336	27.493	809.446	641.183
403.350	27.889	809.463	642.533
404.365	28.261	808.880	643.322
405.380	28.383	808.507	643.397
406.394	28.495	808.522	643.743
407.409	28.370	808.011	642.842
408.423	28.349	807.493	642.300
409.438	28.381	807.283	642.189
410.453	28.455	806.789	641.997
411.467	28.439	806.193	641.411
412.482	28.442	805.583	640.877
413.496	28.442	805.531	640.781
414.511	28.517	804.942	640.516
415.526	28.391	804.345	639.544
416.540	28.152	803.941	638.333
417.555	27.930	803.276	636.976
418.569	28.180	802.841	637.446
419.584	28.073	802.201	636.509
420.599	27.906	801.422	635.255
421.613	111.449	1285.495	1457.505
422.628	96.196	1356.040	1457.588
