DTS Sentinel unit serial number:	SN413079Multiplexer serial number:	ORYXHardware model number:	OX4-SRSoftware version number:	ORYX F/W v4.00 Oryx Data Collector v3.7.2.0data status	okinstallation	princeton_trtdifferential loss correction	single-endedforward channel	channel 1reverse channel	N/Adate	2019/09/12time	18:48:34forward acquisition time	15.00reverse acquisition time	0.00gamma	496.2192k internal	0.2319k external	0.2319temperature offset calibration	1.0118default loss term (dB/km)	0.3790temperature slope calibration	1.0000multiplexer offset coefficient	1.0000multiplexer slope coefficient	1.0000fibre end	0.00T internal ref (°C)	32.94T ext. ref 1 (°C)	2.97T ext. ref 2 (°C)	27.47length (m)	temperature (°C)	Stokes	anti-Stokes-747.200	326.327	0.271	-0.525
-746.185	407.252	-0.133	-0.285
-745.171	12.390	0.385	0.300
-744.156	-16.786	-0.329	0.211
-743.142	800.000	-0.134	-0.427
-742.127	143.327	0.344	0.464
-741.112	-9.572	0.560	-0.378
-740.098	665.791	0.024	-0.064
-739.083	-39.366	-0.332	-0.176
-738.069	-65.301	0.450	-0.183
-737.054	-153.635	-1.040	-0.073
-736.039	0.217	-0.157	0.114
-735.025	31.047	0.425	0.368
-734.010	24.125	-0.390	-0.325
-732.996	-175.124	-0.350	0.010
-731.981	119.739	0.514	-0.644
-730.966	-129.094	0.155	0.022
-729.952	-101.064	-0.227	-0.056
-728.937	-200.000	-0.008	0.206
-727.923	407.288	-0.394	-0.841
-726.908	-77.250	-0.512	0.180
-725.894	-44.936	-0.386	0.194
-724.879	-92.974	-0.605	-0.171
-723.864	-49.013	-0.332	-0.161
-722.850	800.000	0.085	0.324
-721.835	-200.000	0.040	0.354
-720.821	0.720	-0.553	0.400
-719.806	800.000	0.179	-0.577
-718.791	180.341	0.283	0.420
-717.777	99.693	0.269	-0.315
-716.762	-116.180	-0.543	0.102
-715.748	-87.969	-0.124	-0.038
-714.733	-200.000	-0.023	0.196
-713.718	-200.000	0.028	-0.516
-712.704	-200.000	-0.110	-0.541
-711.689	610.109	-0.210	0.530
-710.675	800.000	0.206	-0.890
-709.660	-175.004	-0.511	0.014
-708.645	102.057	0.115	-0.135
-707.631	800.000	0.330	-1.034
-706.616	-200.000	0.040	-0.380
-705.602	42.143	-0.377	0.346
-704.587	594.369	-0.134	-0.336
-703.572	255.325	-0.219	0.380
-702.558	-200.000	-0.042	0.347
-701.543	-124.560	0.298	-0.047
-700.529	678.166	-0.218	-0.572
-699.514	-200.000	-0.018	-0.748
-698.499	800.000	-0.059	-0.218
-697.485	-124.947	-0.602	-0.094
-696.470	-200.000	-0.011	0.515
-695.456	35.414	0.187	0.165
-694.441	171.949	0.256	-0.372
-693.426	-49.351	-0.258	-0.124
-692.412	416.502	-0.194	0.418
-691.397	233.425	-0.418	-0.694
-690.383	77.149	-0.395	0.424
-689.368	74.865	-0.576	0.613
-688.354	34.737	-0.787	-0.695
-687.339	-200.000	-0.147	-0.740
-686.324	-200.000	0.029	0.274
-685.310	568.509	0.164	0.403
-684.295	643.814	-0.124	0.320
-683.281	-200.000	0.042	0.282
-682.266	-200.000	-0.033	-0.219
-681.251	70.317	-0.331	-0.345
-680.237	-82.387	0.542	-0.178
-679.222	-169.252	-0.654	-0.024
-678.208	542.703	0.180	0.433
-677.193	-80.568	0.544	-0.183
-676.178	-153.289	-0.598	-0.042
-675.164	-93.849	0.767	0.213
-674.149	800.000	0.099	-0.292
-673.135	800.000	0.218	-0.824
-672.120	-200.000	0.057	0.326
-671.105	-22.613	0.788	0.481
-670.091	139.968	-0.252	-0.335
-669.076	-112.141	0.538	0.109
-668.062	-8.960	-0.579	-0.391
-667.047	145.750	0.020	0.027
-666.032	800.000	-0.223	0.632
-665.018	-24.653	0.458	0.275
-664.003	-200.000	-0.071	0.408
-662.989	-88.852	0.130	-0.039
-661.974	-43.528	-0.927	0.472
-660.959	-102.568	-0.264	0.064
-659.945	-165.760	-0.876	-0.038
-658.930	-200.000	0.012	-1.259
-657.916	-200.000	-0.103	0.714
-656.901	-200.000	0.035	-0.183
-655.886	-59.375	0.561	-0.243
-654.872	-200.000	-0.037	-0.584
-653.857	585.023	-0.176	-0.436
-652.843	-95.155	-0.522	-0.142
-651.828	800.000	-0.275	-1.165
-650.814	126.197	0.213	-0.272
-649.799	800.000	-0.109	-0.325
-648.784	-4.445	0.413	-0.288
-647.770	-188.213	0.930	-0.012
-646.755	-168.591	0.640	0.025
-645.741	-200.000	0.003	0.290
-644.726	57.026	0.145	0.143
-643.711	407.218	0.133	0.283
-642.697	617.571	-0.088	0.223
-641.682	106.213	-0.301	0.359
-640.668	646.644	0.103	-0.266
-639.653	112.719	-0.391	-0.477
-638.638	800.000	-0.112	0.481
-637.624	-51.200	-0.504	0.238
-636.609	122.257	-0.135	-0.170
-635.595	-200.000	-0.015	0.241
-634.580	69.061	0.641	0.663
-633.565	-26.476	0.464	-0.274
-632.551	-200.000	0.009	-0.556
-631.536	691.067	-0.255	-0.674
-630.522	268.155	0.298	0.526
-629.507	525.093	0.294	0.697
-628.492	-123.393	0.314	-0.050
-627.478	616.301	-0.163	0.411
-626.463	-31.621	0.163	-0.092
-625.449	-100.077	0.272	0.068
-624.434	-94.718	-0.667	0.182
-623.419	-106.541	-0.196	0.044
-622.405	-200.000	0.116	-0.602
-621.390	-108.147	0.522	-0.114
-620.376	100.940	0.578	-0.676
-619.361	-90.795	-0.296	0.086
-618.346	-177.067	0.863	0.022
-617.332	-200.000	0.044	-0.265
-616.317	-112.683	-0.546	0.109
-615.303	12.631	-0.963	0.748
-614.288	17.270	0.496	-0.396
-613.273	-200.000	0.132	0.794
-612.259	-145.082	-0.733	0.067
-611.244	295.225	-0.181	0.334
-610.230	-73.289	0.205	-0.076
-609.215	57.901	-0.101	-0.099
-608.201	-117.107	0.600	0.110
-607.186	-191.321	0.588	0.006
-606.171	-200.000	-0.071	-0.368
-605.157	-59.174	-0.673	-0.292
-604.142	102.836	0.345	-0.407
-603.128	-78.743	-0.354	0.122
-602.113	-124.714	0.614	-0.096
-601.098	-200.000	-0.088	-0.503
-600.084	-60.870	-0.636	-0.271
-599.069	526.113	0.195	-0.461
-598.055	94.608	-0.130	0.149
-597.040	-163.949	0.195	0.009
-596.025	-33.010	0.748	-0.417
-595.011	153.010	-0.617	-0.849
-593.996	273.191	0.178	-0.317
-592.982	-200.000	-0.015	-0.676
-591.967	133.558	-0.489	-0.636
-590.952	-164.397	-0.405	-0.019
-589.938	-200.000	-0.008	0.390
-588.923	123.232	0.227	-0.287
-587.909	-200.000	0.073	0.840
-586.894	-67.132	0.404	-0.160
-585.879	-142.815	-0.626	0.061
-584.865	-200.000	-0.053	0.407
-583.850	-25.400	0.617	-0.367
-582.836	162.208	0.453	-0.639
-581.821	-87.125	-0.098	-0.030
-580.806	120.491	0.434	0.542
-579.792	-91.813	-0.246	0.070
-578.777	-200.000	0.027	-0.322
-577.763	-88.687	-0.373	0.111
-576.748	-200.000	-0.006	0.312
-575.733	39.750	0.056	0.050
-574.719	-200.000	-0.010	0.207
-573.704	-200.000	-0.015	0.613
-572.690	-12.562	-0.400	0.262
-571.675	-200.000	-0.019	-0.579
-570.661	800.000	0.005	-0.016
-569.646	164.476	0.227	0.321
-568.631	556.563	0.404	-0.977
-567.617	-71.755	0.567	0.212
-566.602	-200.000	-0.119	0.592
-565.588	90.679	-0.502	-0.565
-564.573	455.181	-0.319	-0.710
-563.558	368.869	0.300	-0.609
-562.544	-133.569	-0.703	0.088
-561.529	324.335	0.410	-0.786
-560.515	-99.760	0.182	-0.046
-559.500	52.410	-0.340	0.326
-558.485	8.014	0.548	0.413
-557.471	348.483	-0.645	1.278
-556.456	-50.483	0.187	-0.088
-555.442	-49.171	0.497	-0.239
-554.427	-144.638	-0.900	-0.083
-553.412	-11.224	-0.463	0.307
-552.398	6.804	0.483	-0.361
-551.383	-111.111	0.582	-0.120
-550.369	-141.810	-0.542	-0.054
-549.354	521.219	-0.338	0.795
-548.339	37.160	1.064	0.946
-547.325	-200.000	-0.141	-0.855
-546.310	800.000	0.075	0.281
-545.296	-81.337	-0.408	0.135
-544.281	206.974	-0.375	0.587
-543.266	-200.000	-0.034	0.253
-542.252	151.505	0.494	0.675
-541.237	-54.749	0.464	-0.210
-540.223	-10.554	-0.359	-0.239
-539.208	-98.584	-0.731	-0.187
-538.193	-65.685	0.759	0.305
-537.179	-112.994	-0.343	0.068
-536.164	800.000	0.158	0.498
-535.150	265.979	0.296	0.518
-534.135	800.000	0.288	1.125
-533.121	-35.807	0.788	0.428
-532.106	514.533	-0.275	-0.644
-531.091	540.036	-0.176	0.420
-530.077	-144.225	0.352	0.033
-529.062	-200.000	0.205	1.299
-528.048	-80.151	-0.379	0.127
-527.033	131.671	0.012	-0.015
-526.018	800.000	0.037	0.144
-525.004	-56.633	-0.227	-0.101
-523.989	23.961	0.404	-0.334
-522.975	717.548	0.205	-0.546
-521.960	-95.380	0.165	0.044
-520.945	-200.000	0.023	-0.546
-519.931	-200.000	-0.745	-0.002
-518.916	-122.680	-0.539	0.088
-517.902	-107.052	1.228	-0.272
-516.887	-144.995	-0.886	0.081
-515.872	26.411	-0.350	0.294
-514.858	265.032	-0.308	0.538
-513.843	-200.000	-0.094	-0.436
-512.829	-200.000	0.004	0.028
-511.814	-200.000	-0.106	0.685
-510.799	153.844	0.550	0.755
-509.785	5.285	-0.662	-0.490
-508.770	287.152	-0.736	-1.334
-507.756	-102.108	-0.603	0.145
-506.741	434.130	0.467	-1.018
-505.726	14.758	-0.046	0.036
-504.712	800.000	0.181	-0.558
-503.697	-37.188	0.232	0.124
-502.683	-93.256	-0.172	-0.048
-501.668	32.039	0.481	0.415
-500.653	97.613	-0.183	0.211
-499.639	-200.000	-0.015	0.421
-498.624	-54.131	-0.528	-0.241
-497.610	-200.000	-0.043	-0.948
-496.595	118.246	0.477	-0.590
-495.581	-19.064	-0.399	-0.249
-494.566	-200.000	-0.109	-0.496
-493.551	-169.177	0.579	-0.022
-492.537	-145.875	0.505	0.045
-491.522	-135.785	0.376	-0.045
-490.508	-131.689	-0.628	-0.083
-489.493	-159.801	-0.449	0.025
-488.478	-118.659	0.284	0.050
-487.464	-200.000	0.074	0.426
-486.449	-120.385	0.423	-0.072
-485.435	-109.729	0.190	0.040
-484.420	-96.803	-0.195	0.051
-483.405	15.486	0.308	0.242
-482.391	211.331	0.172	-0.271
-481.376	-200.000	-0.066	0.545
-480.362	74.325	-0.264	-0.277
-479.347	591.542	-0.116	0.287
-478.332	800.000	-0.233	0.790
-477.318	-200.000	0.154	-0.865
-476.303	-150.390	-0.219	0.017
-475.289	102.864	-0.351	0.412
-474.274	-156.364	-0.863	0.054
-473.259	578.156	0.130	-0.317
-472.245	-3.199	0.663	-0.462
-471.230	-46.495	-0.566	-0.278
-470.216	80.009	-0.377	-0.406
-469.201	-133.500	0.176	0.022
-468.186	44.689	-0.091	-0.084
-467.172	-83.389	-0.710	0.228
-466.157	-200.000	-0.170	-0.758
-465.143	-200.000	-0.134	-0.784
-464.128	-73.298	-0.420	-0.154
-463.113	-200.000	0.130	0.717
-462.099	153.668	-0.480	0.659
-461.084	-105.142	0.406	0.093
-460.070	-200.000	0.092	-0.659
-459.055	47.000	-0.690	0.642
-458.040	-98.920	0.536	0.136
-457.026	113.000	-0.175	0.213
-456.011	-101.852	1.017	-0.246
-454.997	-3.115	0.182	0.127
-453.982	-55.139	-0.303	-0.136
-452.968	-47.367	-1.061	0.516
-451.953	680.954	-0.181	-0.473
-450.938	11.352	-0.124	-0.095
-449.924	35.085	0.395	-0.346
-448.909	-107.647	0.153	-0.033
-447.895	-200.000	0.038	0.643
-446.880	169.911	-0.179	0.255
-445.865	-76.246	0.055	0.020
-444.851	-49.391	-0.400	0.191
-443.836	453.827	0.225	0.497
-442.822	45.479	0.326	-0.301
-441.807	-86.395	0.432	0.133
-440.792	-200.000	0.034	-0.244
-439.778	369.058	-0.077	0.155
-438.763	138.324	-0.101	-0.132
-437.749	216.337	0.693	1.101
-436.734	45.202	-0.700	-0.645
-435.719	-200.000	-0.068	0.475
-434.705	145.624	0.148	-0.198
-433.690	71.023	-0.427	-0.442
-432.676	443.684	-0.395	0.866
-431.661	-122.352	0.289	0.047
-430.646	-200.000	0.007	0.809
-429.632	-74.961	-0.857	-0.307
-428.617	800.000	-0.377	-1.422
-427.603	67.482	-0.166	-0.169
-426.588	417.886	0.393	-0.838
-425.573	-124.723	0.922	0.143
-424.559	753.656	-0.257	-0.693
-423.544	107.321	0.212	0.251
-422.530	-200.000	-0.138	0.647
-421.515	-121.457	0.691	-0.115
-420.500	50.170	-0.496	0.468
-419.486	-200.000	-0.034	0.295
-418.471	189.409	-0.182	0.272
-417.457	-200.000	0.028	-0.876
-416.442	755.010	0.098	-0.264
-415.428	750.886	0.196	0.527
-414.413	105.866	0.080	0.094
-413.398	800.000	-0.093	-0.346
-412.384	-200.000	0.099	1.257
-411.369	-200.000	-0.011	-0.447
-410.355	172.221	0.223	-0.320
-409.340	85.302	-0.438	-0.480
-408.325	-200.000	0.033	0.642
-407.311	-142.135	0.689	-0.068
-406.296	-143.668	0.904	-0.086
-405.282	45.628	0.726	0.670
-404.267	449.727	0.300	-0.661
-403.252	-28.888	0.163	-0.093
-402.238	394.654	0.292	0.608
-401.223	-80.868	-0.225	0.075
-400.209	-110.738	0.764	0.157
-399.194	-10.485	-0.455	-0.301
-398.179	-90.492	0.505	-0.146
-397.165	-35.371	-0.323	0.175
-396.150	152.182	0.167	0.227
-395.136	-113.600	-0.554	-0.108
-394.121	800.000	-0.276	0.833
-393.106	-23.893	-0.272	0.162
-392.092	504.088	0.054	-0.125
-391.077	86.377	-0.638	0.701
-390.063	-71.042	0.619	-0.232
-389.048	-7.663	0.656	0.442
-388.033	-42.829	-0.541	-0.274
-387.019	39.436	-0.449	0.401
-386.004	800.000	0.324	0.999
-384.990	258.015	0.160	-0.275
-383.975	388.568	-0.440	0.909
-382.960	275.188	0.053	0.094
-381.946	-86.255	-0.403	0.124
-380.931	-75.969	0.547	-0.193
-379.917	413.600	-0.430	-0.913
-378.902	-94.238	-0.434	-0.118
-377.888	144.048	0.172	0.228
-376.873	216.335	-0.742	1.176
-375.858	174.225	-0.198	-0.285
-374.844	-94.997	0.301	-0.081
-373.829	18.588	-0.476	0.380
-372.815	800.000	0.146	0.590
-371.800	1.020	0.497	-0.355
-370.785	-115.086	0.893	-0.169
-369.771	105.384	-0.225	0.265
-368.756	-89.673	-0.491	0.143
-367.742	-149.931	-0.404	0.031
-366.727	800.000	-0.064	-0.203
-365.712	397.012	-0.160	0.333
-364.698	262.522	-0.295	-0.509
-363.683	-78.966	0.266	0.090
-362.669	-2.971	0.598	-0.416
-361.654	-200.000	0.027	-0.588
-360.639	-200.000	-0.004	-0.451
-359.625	-200.000	-0.044	0.202
-358.610	-60.852	-0.370	-0.156
-357.596	-157.745	0.645	-0.038
-356.581	-132.648	-0.308	0.039
-355.566	-6.071	-0.562	-0.383
-354.552	35.992	0.714	-0.626
-353.537	-200.000	-0.054	-0.300
-352.523	-173.633	0.746	-0.022
-351.508	-12.891	0.623	-0.404
-350.493	-148.778	-0.231	-0.019
-349.479	800.000	-0.366	-1.270
-348.464	-76.433	-0.322	0.113
-347.450	-105.541	-0.963	0.218
-346.435	179.881	0.411	-0.600
-345.420	-90.470	-0.227	0.065
-344.406	10.720	-0.489	-0.372
-343.391	800.000	0.258	-0.883
-342.377	77.125	0.152	-0.161
-341.362	-115.061	0.302	0.057
-340.348	-183.551	-0.193	-0.003
-339.333	136.601	0.513	-0.667
-338.318	-149.407	-0.477	0.038
-337.304	-200.000	-0.011	0.144
-336.289	134.312	0.356	-0.459
-335.275	-61.402	-0.649	-0.272
-334.260	-105.043	0.551	-0.126
-333.245	-100.571	0.480	-0.118
-332.231	298.466	0.360	0.659
-331.216	-200.000	-0.075	-0.717
-330.202	358.521	-0.155	0.309
-329.187	41.171	0.426	-0.384
-328.172	325.025	-0.167	-0.317
-327.158	800.000	0.166	0.497
-326.143	800.000	0.145	-0.507
-325.129	-39.309	0.407	-0.213
-324.114	-22.181	-0.840	0.507
-323.099	144.387	0.342	0.454
-322.085	-56.861	-0.140	0.061
-321.070	-200.000	-0.018	-0.259
-320.056	800.000	0.110	-0.408
-319.041	196.881	0.180	0.273
-318.026	244.714	-0.099	0.166
-317.012	-71.683	-0.356	0.132
-315.997	800.000	0.051	-0.175
-314.983	800.000	-0.162	-0.608
-313.968	554.341	0.283	0.677
-312.953	520.937	0.239	-0.558
-311.939	-200.000	-0.027	0.656
-310.924	-18.950	0.278	0.172
-309.910	-200.000	0.204	0.920
-308.895	-200.000	0.110	0.507
-307.880	-41.512	-0.239	-0.122
-306.866	6.574	-0.495	-0.366
-305.851	305.198	-0.664	1.226
-304.837	256.766	-0.209	-0.356
-303.822	-63.448	-0.422	0.172
-302.807	30.065	-0.839	-0.712
-301.793	-69.822	0.240	0.091
-300.778	57.689	0.022	0.021
-299.764	88.123	-0.566	0.624
-298.749	-101.129	-0.288	0.070
-297.735	-154.161	0.475	-0.032
-296.720	-122.692	-0.636	-0.102
-295.705	-132.465	-1.048	-0.134
-294.691	-62.946	0.647	-0.266
-293.676	-200.000	-0.084	-0.395
-292.662	66.537	-0.657	0.664
-291.647	-200.000	-0.001	-0.529
-290.632	-28.755	0.317	-0.181
-289.618	24.477	0.416	-0.342
-288.603	800.000	0.150	-0.443
-287.589	237.188	0.167	0.275
-286.574	64.390	-0.153	-0.153
-285.559	-79.056	-0.527	-0.178
-284.545	-53.269	-0.768	-0.350
-283.530	606.415	0.367	-0.908
-282.516	-101.819	0.423	0.102
-281.501	9.544	0.534	0.402
-280.486	542.532	-0.045	-0.106
-279.472	-19.634	-0.648	0.399
-278.457	389.013	-0.482	0.991
-277.443	69.585	0.521	-0.533
-276.428	-200.000	0.047	-0.490
-275.413	-119.836	0.112	0.019
-274.399	87.419	0.382	-0.420
-273.384	-200.000	-0.006	-0.340
-272.370	-127.328	-0.319	-0.046
-271.355	800.000	0.195	0.706
-270.340	800.000	0.199	0.587
-269.326	438.389	0.230	-0.498
-268.311	4.957	0.153	-0.112
-267.297	16.738	-0.597	-0.469
-266.282	-84.407	-0.274	-0.086
-265.267	146.384	0.264	-0.352
-264.253	-72.763	0.219	0.080
-263.238	-113.359	-0.331	0.064
-262.224	-200.000	0.013	-0.211
-261.209	-106.544	-0.536	0.119
-260.195	136.605	-0.533	-0.691
-259.180	266.909	0.211	0.366
-258.165	59.860	-0.244	-0.239
-257.151	83.622	0.592	0.640
-256.136	-56.783	-0.417	0.183
-255.122	-63.346	-0.167	0.068
-254.107	-39.060	-0.652	0.341
-253.092	-125.583	-0.233	0.035
-252.078	174.556	-0.781	-1.121
-251.063	-200.000	0.056	0.758
-250.049	-18.148	0.501	-0.311
-249.034	42.617	-0.151	0.137
-248.019	-129.324	-0.187	-0.026
-247.005	-61.286	-0.279	0.117
-245.990	800.000	0.274	0.847
-244.976	800.000	0.050	0.144
-243.961	263.336	-0.153	0.263
-242.946	800.000	0.079	0.234
-241.932	-124.763	0.562	0.086
-240.917	-92.926	-0.380	0.105
-239.903	15.598	0.473	0.368
-238.888	588.341	-0.091	0.223
-237.873	634.097	0.121	-0.304
-236.859	-108.618	-0.219	-0.047
-235.844	-14.980	0.369	0.234
-234.830	-200.000	-0.054	0.244
-233.815	172.934	-0.376	0.537
-232.800	729.703	0.193	-0.512
-231.786	800.000	-0.220	-0.944
-230.771	353.935	0.422	-0.832
-229.757	-50.526	0.487	-0.228
-228.742	800.000	-0.048	-0.162
-227.727	-106.500	-0.399	-0.088
-226.713	91.504	-0.230	0.256
-225.698	293.603	0.478	-0.865
-224.684	90.639	0.389	0.432
-223.669	14.296	0.282	0.218
-222.655	91.345	-0.419	-0.467
-221.640	-83.411	0.430	0.137
-220.625	-200.000	0.069	-0.737
-219.611	-56.638	-0.035	-0.015
-218.596	70.921	0.856	-0.879
-217.582	42.943	-0.552	0.498
-216.567	251.257	-0.340	0.574
-215.552	63.401	0.341	-0.339
-214.538	696.438	-0.279	0.726
-213.523	-200.000	-0.121	0.001
-212.509	44.473	0.354	0.322
-211.494	800.000	-0.060	0.258
-210.479	-80.746	-0.511	0.168
-209.465	-144.528	0.316	-0.029
-208.450	-119.405	-0.570	-0.098
-207.436	-200.000	-0.014	0.607
-206.421	-135.912	-1.321	-0.154
-205.406	447.869	0.391	-0.853
-204.392	116.615	0.238	0.290
-203.377	113.341	0.819	0.984
-202.363	-200.000	0.020	0.237
-201.348	220.009	0.249	-0.396
-200.333	1.823	0.110	-0.078
-199.319	-75.696	-0.372	-0.131
-198.304	-82.596	0.239	0.077
-197.290	-37.524	0.812	-0.429
-196.275	-73.910	-0.262	-0.094
-195.260	3.233	-0.666	0.480
-194.246	145.766	-0.519	0.689
-193.231	-146.936	0.675	0.057
-192.217	9.164	-0.078	-0.059
-191.202	-38.427	-0.758	0.397
-190.187	126.375	-0.285	0.358
-189.173	67.559	0.373	0.377
-188.158	187.862	-0.480	0.710
-187.144	283.565	0.285	-0.506
-186.129	118.294	0.331	0.404
-185.114	-200.000	-0.018	0.462
-184.100	-85.276	0.188	-0.058
-183.085	-200.000	0.016	-0.344
-182.071	292.600	0.387	0.698
-181.056	-200.000	-0.004	0.509
-180.042	-166.357	-0.803	-0.033
-179.027	724.473	0.232	0.613
-178.012	-82.049	-0.366	-0.118
-176.998	51.289	0.353	0.332
-175.983	-200.000	0.044	0.440
-174.969	800.000	0.048	0.169
-173.954	-200.000	-0.110	-1.484
-172.939	-153.357	0.519	-0.036
-171.925	-43.340	0.265	-0.132
-170.910	-200.000	-0.056	-0.344
-169.896	141.003	0.260	0.340
-168.881	-21.564	0.163	0.098
-167.866	113.255	0.542	0.650
-166.852	41.457	0.456	0.408
-165.837	45.404	-0.662	-0.604
-164.823	-126.808	-0.380	0.055
-163.808	-181.583	0.399	-0.008
-162.793	-200.000	-0.042	-0.591
-161.779	20.650	0.361	0.289
-160.764	-16.465	0.362	-0.227
-159.750	-160.434	-0.165	-0.009
-158.735	-200.000	-0.188	0.937
-157.720	-200.000	-0.011	-0.474
-156.706	-200.000	0.046	-1.106
-155.691	-200.000	0.038	-0.208
-154.677	800.000	-0.128	-0.364
-153.662	-139.358	0.804	-0.085
-152.647	-12.264	0.324	0.209
-151.633	-82.506	0.497	-0.159
-150.618	-93.372	0.416	0.114
-149.604	-153.504	0.478	-0.033
-148.589	-61.676	-0.419	0.174
-147.574	476.774	0.231	0.516
-146.560	-200.000	0.141	-0.852
-145.545	-116.105	0.296	-0.054
-144.531	425.263	0.189	-0.403
-143.516	800.000	-0.079	-0.248
-142.502	-200.000	-0.021	0.092
-141.487	-143.486	0.354	0.033
-140.472	-200.000	0.010	-0.393
-139.458	136.088	0.531	0.684
-138.443	184.806	-0.405	0.594
-137.429	800.000	-0.039	0.111
-136.414	29.575	0.456	-0.383
-135.399	-10.570	-0.111	0.073
-134.385	-200.000	-0.036	0.210
-133.370	176.898	-0.053	0.076
-132.356	92.394	0.024	0.027
-131.341	-80.502	0.069	0.023
-130.326	344.740	-0.368	0.713
-129.312	-80.435	0.714	-0.235
-128.297	-200.000	-0.064	0.584
-127.283	-110.576	0.325	0.066
-126.268	-66.711	0.831	0.325
-125.253	-97.493	-0.770	-0.198
-124.239	755.850	-0.170	0.453
-123.224	-200.000	0.022	-0.727
-122.210	566.234	0.102	0.244
-121.195	407.327	-0.238	-0.496
-120.180	-77.670	0.105	0.036
-119.166	800.000	-0.086	0.359
-118.151	-55.464	0.657	-0.291
-117.137	-105.514	-0.326	0.073
-116.122	-49.118	-0.495	0.234
-115.107	778.657	-0.221	0.596
-114.093	-103.143	0.837	-0.195
-113.078	393.730	-0.201	-0.413
-112.064	58.025	-0.188	0.182
-111.049	-200.000	0.030	0.521
-110.034	576.907	-0.241	-0.582
-109.020	-194.058	0.496	0.004
-108.005	75.418	-0.357	0.372
-106.991	-200.000	0.086	-0.693
-105.976	-90.075	0.695	0.200
-104.962	52.430	-0.334	0.314
-103.947	-43.552	0.091	0.045
-102.932	-200.000	-0.051	-0.329
-101.918	440.076	0.185	-0.399
-100.903	-154.304	-0.775	-0.051
-99.889	-16.410	-0.229	-0.143
-98.874	97.902	0.154	0.175
-97.859	186.690	0.037	-0.054
-96.845	31.226	0.365	0.309
-95.830	-200.000	-0.084	0.397
-94.816	-19.396	-0.422	-0.258
-93.801	-82.655	-1.266	-0.404
-92.786	103.333	-0.126	-0.146
-91.772	-127.231	-0.520	-0.075
-90.757	-115.875	-0.973	-0.179
-89.743	444.700	0.233	0.503
-88.728	725.913	0.289	-0.761
-87.713	-122.829	0.888	-0.141
-86.699	800.000	-0.067	0.274
-85.684	143.955	-0.277	0.364
-84.670	-32.540	0.658	-0.361
-83.655	-98.507	0.427	-0.108
-82.640	214.843	-0.160	-0.249
-81.626	-138.802	0.351	-0.038
-80.611	-200.000	0.020	0.333
-79.597	59.426	0.470	-0.456
-78.582	-35.464	-0.575	-0.308
-77.567	-200.000	-0.034	-0.606
-76.553	-91.178	-0.433	0.122
-75.538	39.586	-0.263	-0.232
-74.524	-200.000	-0.047	0.362
-73.509	-200.000	-0.041	-0.491
-72.494	800.000	0.243	0.791
-71.480	-140.268	-0.608	-0.063
-70.465	176.390	-0.371	0.531
-69.451	800.000	0.212	0.682
-68.436	-26.848	0.556	0.320
-67.422	702.263	-0.166	0.432
-66.407	64.053	-0.513	0.508
-65.392	-35.888	0.640	-0.341
-64.378	669.864	-0.172	-0.439
-63.363	-142.925	-0.366	-0.035
-62.349	4.084	-0.457	0.329
-61.334	27.271	-1.384	-1.145
-60.319	591.187	-0.237	0.577
-59.305	52.745	-0.385	-0.363
-58.290	430.014	0.690	1.470
-57.276	-200.000	0.413	1.994
-56.261	-200.000	94.187	575.406
-55.246	661.046	1360.771	3452.002
-54.232	202.407	2526.063	3839.141
-53.217	119.313	2126.440	2591.075
-52.203	44.730	1596.670	1446.069
-51.188	36.708	1334.646	1160.839
-50.173	33.292	1294.465	1105.922
-49.159	56.330	1344.932	1286.739
-48.144	57.570	1360.998	1309.433
-47.130	36.489	1318.624	1145.420
-46.115	32.967	1301.388	1109.756
-45.100	32.919	1296.610	1105.353
-44.086	33.133	1293.870	1104.228
-43.071	32.709	1291.621	1099.790
-42.057	32.799	1289.704	1098.636
-41.042	33.062	1287.245	1098.026
-40.027	32.763	1286.930	1095.975
-39.013	32.835	1284.489	1094.271
-37.998	32.850	1283.612	1093.567
-36.984	32.862	1281.843	1092.090
-35.969	32.948	1279.040	1090.152
-34.954	32.758	1278.704	1088.728
-33.940	33.048	1276.153	1088.183
-32.925	33.114	1274.301	1086.939
-31.911	32.986	1273.577	1085.545
-30.896	32.990	1272.620	1084.707
-29.881	32.920	1271.120	1082.986
-28.867	33.148	1268.488	1082.006
-27.852	33.122	1267.744	1081.176
-26.838	33.234	1265.940	1080.234
-25.823	33.116	1265.153	1078.847
-24.809	32.999	1264.415	1077.510
-23.794	32.911	1262.682	1075.489
-22.779	33.154	1260.543	1075.004
-21.765	33.245	1259.444	1074.540
-20.750	33.096	1258.544	1072.888
-19.736	32.833	1257.875	1070.781
-18.721	33.202	1255.403	1070.721
-17.706	33.023	1255.455	1069.714
-16.692	32.919	1254.598	1068.350
-15.677	32.755	1253.657	1066.578
-14.663	32.850	1252.012	1065.671
-13.648	32.833	1251.079	1064.743
-12.633	32.874	1249.529	1063.612
-11.619	32.953	1249.163	1063.705
-10.604	33.050	1248.872	1063.959
-9.590	32.743	1247.778	1061.257
-8.575	32.865	1246.842	1061.105
-7.560	32.471	1246.427	1058.494
-6.546	32.759	1245.417	1059.215
-5.531	32.631	1243.861	1057.129
-4.517	32.979	1242.537	1057.911
-3.502	32.812	1243.017	1057.344
-2.487	32.855	1241.884	1056.580
-1.473	33.039	1237.031	1053.434
-0.458	31.362	1221.403	1030.839
0.556	28.721	1204.937	992.317
1.571	25.088	1208.870	975.738
2.586	23.772	1224.419	980.939
3.600	23.110	1213.626	968.580
4.615	17.410	1140.539	880.748
5.629	7.786	1065.752	776.162
6.644	3.500	1045.796	741.001
7.659	3.008	1042.961	736.569
8.673	2.885	1041.959	735.208
9.688	2.492	1040.870	732.497
10.702	3.381	1038.795	735.216
11.717	9.380	1046.903	769.661
12.731	19.162	1061.006	827.178
13.746	24.137	1066.911	855.675
14.761	25.097	1066.931	860.221
15.775	24.662	1066.257	857.515
16.790	24.296	1066.278	855.701
17.804	24.256	1065.879	855.114
18.819	24.568	1064.321	855.283
19.834	24.390	1065.029	854.920
20.848	24.849	1063.468	855.787
21.863	24.638	1062.894	854.243
22.877	24.451	1062.726	853.136
23.892	24.443	1061.856	852.326
24.907	24.501	1061.403	852.162
25.921	24.523	1060.485	851.455
26.936	24.517	1057.884	849.264
27.950	24.371	1057.494	848.184
28.965	24.248	1056.453	846.687
29.980	24.147	1054.729	844.752
30.994	24.602	1053.660	845.977
32.009	24.526	1052.700	844.772
33.023	24.211	1052.048	842.684
34.038	24.281	1050.993	842.097
35.053	24.453	1049.702	841.798
36.067	24.344	1049.518	841.063
37.082	24.605	1048.016	841.013
38.096	24.548	1048.676	841.196
39.111	24.682	1047.058	840.457
40.126	24.417	1045.938	838.239
41.140	24.300	1044.252	836.264
42.155	23.724	1044.777	833.906
43.169	23.959	1043.223	833.693
44.184	24.104	1041.293	832.757
45.199	23.933	1039.866	830.744
46.213	24.030	1040.129	831.333
47.228	24.427	1038.983	832.194
48.242	24.665	1037.575	832.102
49.257	24.525	1037.846	831.595
50.271	24.705	1036.654	831.400
51.286	24.647	1036.372	830.834
52.301	24.571	1035.256	829.513
53.315	24.393	1034.230	827.793
54.330	24.430	1032.423	826.440
55.344	24.262	1032.797	825.888
56.359	24.603	1031.451	826.318
57.374	24.312	1030.310	823.985
58.388	24.130	1030.697	823.382
59.403	24.253	1029.220	822.697
60.417	24.037	1028.699	821.209
61.432	24.361	1027.300	821.513
62.447	24.145	1027.639	820.718
63.461	24.227	1026.373	820.013
64.476	24.280	1025.244	819.278
65.490	24.169	1024.182	817.851
66.505	24.221	1023.922	817.806
67.520	24.193	1022.878	816.773
68.534	23.958	1022.699	815.482
69.549	23.785	1021.058	813.307
70.563	23.757	1020.304	812.508
71.578	23.702	1019.305	811.389
72.593	23.249	1018.977	808.985
73.607	23.818	1017.381	810.243
74.622	23.975	1017.854	811.266
75.636	23.677	1018.054	809.992
76.651	24.003	1015.876	809.671
77.666	24.058	1015.446	809.507
78.680	24.030	1014.452	808.514
79.695	23.820	1014.621	807.627
80.709	23.940	1014.387	807.911
81.724	24.188	1013.633	808.367
82.739	24.017	1013.411	807.343
83.753	24.619	1011.580	808.534
84.768	24.780	1011.779	809.353
85.782	25.207	1010.665	810.318
86.797	24.745	1009.241	807.022
87.812	24.775	1008.438	806.442
88.826	24.611	1007.771	805.100
89.841	24.757	1006.913	805.000
90.855	24.752	1006.271	804.392
91.870	24.579	1005.872	803.225
92.884	24.675	1004.883	802.797
93.899	24.479	1003.200	800.501
94.914	24.551	1002.076	799.855
95.928	24.723	1002.351	800.774
96.943	24.667	1000.714	799.146
97.957	24.470	999.545	797.264
98.972	24.651	998.560	797.212
99.987	24.516	998.519	796.506
101.001	24.588	997.151	795.668
102.016	24.691	996.091	795.207
103.030	24.671	996.481	795.361
104.045	24.839	994.082	794.119
105.060	24.633	993.284	792.501
106.074	24.569	991.970	791.100
107.089	24.691	992.040	791.625
108.103	24.355	991.028	789.259
109.118	24.013	990.345	787.135
110.133	24.046	989.052	786.184
111.147	24.231	986.910	785.225
112.162	24.228	986.975	785.195
113.176	24.242	986.207	784.574
114.191	24.541	985.088	784.928
115.206	24.116	984.533	782.551
116.220	24.147	983.824	782.054
117.235	23.859	983.365	780.357
118.249	23.987	981.915	779.698
119.264	23.950	981.576	779.199
120.279	23.863	979.534	777.129
121.293	23.756	980.546	777.394
122.308	23.988	978.890	777.026
123.322	24.004	977.886	776.227
124.337	23.718	976.936	774.160
125.352	23.436	975.769	771.938
126.366	23.770	974.729	772.500
127.381	24.289	974.770	774.721
128.395	24.192	975.171	774.548
129.410	24.363	973.118	773.593
130.424	24.265	973.365	773.293
131.439	24.527	971.948	773.236
132.454	24.419	971.522	772.361
133.468	24.607	969.850	771.773
134.483	24.800	969.428	772.204
135.497	24.271	969.520	769.927
136.512	24.490	968.375	769.892
137.527	24.818	966.907	770.070
138.541	24.552	967.071	768.986
139.556	24.394	966.270	767.603
140.570	24.758	964.893	768.002
141.585	24.738	964.364	767.428
142.600	24.599	963.640	766.189
143.614	25.054	961.876	766.663
144.629	25.076	961.589	766.462
145.643	24.992	960.603	765.249
146.658	24.667	959.281	762.742
147.673	24.473	958.702	761.385
148.687	24.477	957.006	759.991
149.702	23.960	958.242	758.699
150.716	24.498	956.233	759.330
151.731	24.516	955.208	758.525
152.746	24.290	954.736	757.125
153.760	24.556	953.895	757.517
154.775	24.504	954.319	757.570
155.789	24.713	952.424	756.880
156.804	24.612	951.246	755.449
157.819	24.654	950.945	755.322
158.833	24.833	950.752	755.860
159.848	24.779	950.415	755.298
160.862	25.175	948.658	755.502
161.877	24.772	946.876	752.321
162.892	24.641	945.616	750.701
163.906	24.918	944.321	750.772
164.921	24.517	944.668	749.297
165.935	24.971	942.997	749.808
166.950	24.798	942.764	748.830
167.964	24.568	941.723	746.974
168.979	24.778	940.641	746.927
169.994	24.514	940.416	745.581
171.008	24.882	939.312	746.175
172.023	24.889	939.082	745.957
173.037	24.991	938.094	745.529
174.052	24.963	936.988	744.468
175.067	24.733	936.511	743.066
176.081	24.381	935.532	740.766
177.096	24.581	934.696	740.866
178.110	24.289	934.275	739.255
179.125	24.001	933.452	737.347
180.140	24.086	933.682	737.815
181.154	24.358	933.108	738.422
182.169	25.015	932.196	740.352
183.183	24.906	931.608	739.367
184.198	24.688	931.451	738.280
185.213	24.784	929.678	737.205
186.227	24.855	929.921	737.623
187.242	24.792	929.577	737.027
188.256	24.837	928.553	736.333
189.271	24.871	927.994	735.963
190.286	24.771	926.227	734.090
191.300	24.484	925.257	732.078
192.315	23.613	925.266	728.446
193.329	23.734	924.655	728.398
194.344	24.188	924.341	729.946
195.359	24.752	924.510	732.327
196.373	24.805	923.434	731.624
197.388	25.333	922.771	733.193
198.402	25.579	921.733	733.308
199.417	25.193	921.509	731.490
200.432	24.997	922.116	731.106
201.446	24.868	921.034	729.657
202.461	25.097	920.325	729.964
203.475	24.481	918.989	726.335
204.490	24.156	917.418	723.709
205.504	24.565	918.010	725.771
206.519	24.882	917.679	726.737
207.534	24.803	917.409	726.138
208.548	24.822	915.868	724.929
209.563	25.234	914.612	725.538
210.577	24.804	915.132	724.144
211.592	25.412	913.938	725.593
212.607	25.128	914.102	724.513
213.621	25.069	913.845	724.004
214.636	25.162	913.368	723.939
215.650	25.249	912.107	723.228
216.665	24.803	911.072	720.547
217.680	24.999	910.103	720.504
218.694	25.007	908.810	719.449
219.709	24.707	909.132	718.434
220.723	24.759	908.296	717.920
221.738	24.853	907.162	717.336
222.753	24.923	906.895	717.343
223.767	24.702	906.801	716.318
224.782	25.082	906.582	717.605
225.796	25.260	905.564	717.448
226.811	24.557	905.233	714.309
227.826	24.523	903.019	712.364
228.840	24.855	902.244	713.012
229.855	24.808	902.356	712.850
230.869	24.680	902.031	712.021
231.884	24.648	901.322	711.273
232.899	24.938	900.385	711.621
233.913	24.486	900.738	710.041
234.928	24.756	900.276	710.687
235.942	24.431	898.703	708.092
236.957	24.723	897.771	708.454
237.972	24.253	898.330	706.968
238.986	24.687	896.507	707.186
240.001	24.621	896.337	706.730
241.015	24.718	895.722	706.567
242.030	24.693	896.454	706.984
243.045	24.875	895.183	706.636
244.059	24.844	893.568	705.176
245.074	24.936	893.707	705.585
246.088	24.846	894.321	705.655
247.103	25.146	892.687	705.483
248.117	25.532	892.748	706.985
249.132	25.487	892.532	706.577
250.147	26.112	891.020	707.769
251.161	25.711	891.337	706.383
252.176	25.825	891.198	706.660
253.190	25.785	890.209	705.653
254.205	25.951	889.034	705.313
255.220	25.780	888.783	704.380
256.234	25.605	888.964	703.779
257.249	25.485	887.687	702.236
258.263	25.662	886.246	701.723
259.278	25.370	886.182	700.473
260.293	25.591	886.127	701.229
261.307	25.979	885.054	701.828
262.322	25.724	885.885	701.432
263.336	25.338	883.798	698.217
264.351	25.153	881.563	695.672
265.366	25.499	881.795	697.134
266.380	25.580	881.408	697.080
267.395	25.583	880.898	696.627
268.409	25.791	879.593	696.336
269.424	25.177	881.036	695.038
270.439	25.430	879.432	694.690
271.453	25.324	878.187	693.237
272.468	25.382	879.006	694.045
273.482	25.750	877.918	694.545
274.497	25.220	877.785	692.334
275.512	25.626	876.529	692.847
276.526	25.973	875.133	693.015
277.541	25.720	875.836	692.537
278.555	25.776	875.646	692.542
279.570	26.106	874.352	692.724
280.585	25.808	874.343	691.510
281.599	25.362	873.103	688.759
282.614	25.288	871.388	687.064
283.628	25.362	870.810	686.830
284.643	25.252	871.632	686.994
285.657	25.295	870.069	685.866
286.672	25.608	868.773	685.980
287.687	25.624	868.980	686.144
288.701	25.645	868.702	685.943
289.716	25.391	867.418	683.901
290.730	25.159	867.776	683.240
291.745	25.470	866.577	683.417
292.760	25.646	866.176	683.708
293.774	26.206	865.787	685.469
294.789	26.183	865.399	685.011
295.803	25.793	865.418	683.488
296.818	25.976	863.652	682.728
297.833	25.746	863.152	681.400
298.847	25.763	862.784	681.114
299.862	25.953	862.002	681.152
300.876	25.542	862.304	679.776
301.891	26.237	861.143	681.427
302.906	25.663	860.702	678.853
303.920	25.865	861.261	679.995
304.935	26.050	861.125	680.525
305.949	26.295	859.641	680.213
306.964	25.705	859.129	677.528
307.979	25.609	858.063	676.268
308.993	26.043	857.361	677.285
310.008	25.973	857.149	676.793
311.022	26.061	856.520	676.569
312.037	26.017	855.097	675.219
313.052	25.893	854.037	673.859
314.066	25.037	854.125	670.665
315.081	25.171	853.771	670.829
316.095	25.554	852.290	671.038
317.110	25.730	852.870	672.093
318.125	25.282	852.025	669.695
319.139	24.964	850.978	667.629
320.154	24.713	850.597	666.335
321.168	25.295	850.293	668.204
322.183	25.434	850.509	668.834
323.197	25.252	850.397	668.006
324.212	25.355	849.753	667.825
325.227	25.393	848.487	666.913
326.241	25.621	846.977	666.513
327.256	25.379	847.162	665.702
328.270	25.095	845.861	663.568
329.285	25.179	845.963	663.901
330.300	24.872	845.346	662.224
331.314	25.231	844.824	663.083
332.329	25.579	844.308	663.904
333.343	25.575	844.851	664.258
334.358	25.330	844.602	663.096
335.373	25.705	843.577	663.616
336.387	25.540	844.595	663.750
337.402	26.015	843.783	664.806
338.416	26.201	843.585	665.274
339.431	26.428	842.446	665.152
340.446	26.334	842.773	665.006
341.460	25.909	843.223	663.738
342.475	25.910	842.088	662.791
343.489	26.316	841.499	663.760
344.504	26.564	841.224	664.392
345.519	26.354	839.953	662.563
346.533	26.622	839.197	662.887
347.548	26.390	839.524	662.236
348.562	26.120	839.415	661.104
349.577	26.297	838.074	660.636
350.592	25.997	836.593	658.315
351.606	26.140	835.879	658.217
352.621	25.682	836.320	656.834
353.635	25.538	835.313	655.460
354.650	25.357	834.146	653.828
355.665	25.247	833.613	652.953
356.679	25.889	832.864	654.639
357.694	26.008	832.394	654.644
358.708	25.917	831.773	653.770
359.723	25.745	831.079	652.544
360.738	25.770	830.949	652.473
361.752	25.621	830.018	651.146
362.767	26.318	828.836	652.679
363.781	26.629	828.960	653.842
364.796	26.370	828.728	652.667
365.810	26.351	828.355	652.247
366.825	26.359	828.161	652.065
367.840	26.657	827.051	652.204
368.854	26.320	826.170	650.240
369.869	25.973	826.469	649.169
370.883	26.230	826.347	649.940
371.898	26.402	825.154	649.561
372.913	26.336	824.614	648.844
373.927	25.870	824.582	647.086
374.942	25.859	824.363	646.820
375.956	26.529	823.376	648.388
376.971	26.319	822.941	647.238
377.986	26.333	822.715	647.052
379.000	26.435	823.375	647.880
380.015	26.333	821.365	645.875
381.029	26.318	820.867	645.373
382.044	26.736	820.795	646.754
383.059	26.596	820.412	645.895
384.073	26.735	818.650	644.946
385.088	26.414	818.029	643.257
386.102	26.041	817.664	641.585
387.117	26.202	816.707	641.349
388.132	26.068	816.121	640.357
389.146	26.145	815.635	640.191
390.161	26.480	816.809	642.247
391.175	26.979	815.139	642.644
392.190	26.301	815.453	640.432
393.205	25.684	813.909	636.982
394.219	25.092	812.520	633.745
395.234	24.986	812.124	633.005
396.248	25.472	812.201	634.727
397.263	26.033	812.385	636.796
398.278	25.908	811.906	635.923
399.292	25.588	811.189	634.176
400.307	25.342	810.710	632.879
401.321	25.336	810.797	632.868
402.336	26.061	810.430	635.082
403.350	26.142	810.839	635.631
404.365	26.608	809.946	636.511
405.380	26.691	809.423	636.335
406.394	27.038	807.748	636.178
407.409	27.214	807.554	636.587
408.423	27.002	807.975	636.119
409.438	26.795	807.900	635.279
410.453	26.983	807.025	635.192
411.467	26.277	806.865	632.540
412.482	26.469	806.422	632.807
413.496	26.892	806.397	634.212
414.511	26.676	805.796	632.927
415.526	26.570	805.569	632.322
416.540	26.641	804.587	631.745
417.555	26.919	803.195	631.561
418.569	27.213	803.148	632.494
419.584	26.874	803.073	631.200
420.599	26.556	803.068	630.034
421.613	160.447	1370.799	1793.016
422.628	139.366	1453.558	1793.101
