DTS Sentinel unit serial number:	SN413079Multiplexer serial number:	ORYXHardware model number:	OX4-SRSoftware version number:	ORYX F/W v4.00 Oryx Data Collector v3.7.2.0data status	okinstallation	princeton_trtdifferential loss correction	single-endedforward channel	channel 1reverse channel	N/Adate	2019/09/17time	22:18:35forward acquisition time	60.00reverse acquisition time	0.00gamma	496.2192k internal	0.2340k external	0.2340temperature offset calibration	0.9979default loss term (dB/km)	0.3790temperature slope calibration	1.0000multiplexer offset coefficient	1.0000multiplexer slope coefficient	1.0000fibre end	0.00T internal ref (°C)	25.56T ext. ref 1 (°C)	0.17T ext. ref 2 (°C)	18.57length (m)	temperature (°C)	Stokes	anti-Stokes-747.200	-199.804	0.104	0.001
-746.185	2.747	0.115	0.083
-745.171	81.328	-0.092	0.099
-744.156	87.807	-0.207	0.230
-743.142	-48.527	-0.227	0.110
-742.127	-200.000	0.091	0.574
-741.112	119.702	0.278	0.345
-740.098	228.578	-0.142	0.231
-739.083	294.532	0.112	0.204
-738.069	-200.000	0.016	0.399
-737.054	68.237	0.303	-0.311
-736.039	371.114	-0.100	-0.202
-735.025	800.000	0.061	0.213
-734.010	191.422	0.030	-0.045
-732.996	-200.000	-0.020	-0.518
-731.981	-200.000	0.011	0.171
-730.966	52.471	0.170	-0.163
-729.952	-25.908	-0.290	-0.171
-728.937	-130.491	-0.691	-0.094
-727.923	-87.320	-0.434	0.132
-726.908	-16.479	0.225	-0.143
-725.894	-60.073	0.242	-0.103
-724.879	-181.217	0.213	-0.004
-723.864	108.657	-0.076	0.091
-722.850	-67.550	-0.352	0.138
-721.835	0.824	0.203	-0.145
-720.821	-55.095	0.267	-0.120
-719.806	412.395	-0.049	-0.104
-718.791	800.000	-0.054	0.192
-717.777	44.167	0.195	0.179
-716.762	36.332	0.232	-0.205
-715.748	-143.558	0.253	0.024
-714.733	34.253	-0.178	0.155
-713.718	-200.000	-0.078	-0.453
-712.704	800.000	0.061	-0.246
-711.689	-43.007	0.176	0.089
-710.675	-114.791	-0.068	0.013
-709.660	30.797	0.090	-0.077
-708.645	-26.924	-0.215	0.126
-707.631	-159.174	0.146	0.008
-706.616	-200.000	0.017	-0.102
-705.602	173.221	-0.177	0.255
-704.587	-142.441	-0.222	0.022
-703.572	-200.000	-0.001	-0.120
-702.558	-200.000	-0.009	-0.191
-701.543	31.672	0.150	0.129
-700.529	-200.000	-0.046	0.212
-699.514	-200.000	0.023	0.120
-698.499	-95.301	-0.267	0.072
-697.485	800.000	0.043	-0.129
-696.470	-97.064	-0.337	-0.088
-695.456	-37.254	0.234	-0.125
-694.441	-200.000	-0.038	-0.227
-693.426	380.082	0.132	0.271
-692.412	53.840	-0.132	-0.127
-691.397	-68.395	0.222	0.086
-690.383	-77.451	-0.448	-0.156
-689.368	40.756	0.196	-0.177
-688.354	-53.668	0.185	-0.085
-687.339	69.977	-0.186	-0.192
-686.324	32.048	-0.206	0.177
-685.310	56.176	-0.029	-0.028
-684.295	-22.319	0.134	-0.081
-683.281	-200.000	0.003	-0.198
-682.266	293.474	0.096	0.175
-681.251	738.291	-0.022	-0.059
-680.237	-24.587	0.340	-0.202
-679.222	207.019	-0.158	0.247
-678.208	-49.508	0.174	-0.083
-677.193	-125.553	-0.150	-0.023
-676.178	-75.182	-0.319	-0.114
-675.164	800.000	0.058	0.203
-674.149	12.415	-0.040	0.031
-673.135	194.855	-0.048	0.072
-672.120	-71.364	0.147	0.055
-671.105	800.000	0.066	-0.276
-670.091	422.833	-0.159	-0.341
-669.076	81.808	0.106	-0.115
-668.062	106.346	-0.174	0.206
-667.047	293.659	0.074	-0.135
-666.032	-110.023	-0.064	0.013
-665.018	-200.000	-0.011	0.071
-664.003	189.973	-0.165	0.248
-662.989	800.000	0.024	-0.084
-661.974	36.278	-0.246	-0.217
-660.959	-79.319	-0.531	-0.180
-659.945	-68.853	0.135	-0.052
-658.930	800.000	-0.056	-0.174
-657.916	315.776	0.058	-0.109
-656.901	120.646	-0.267	0.332
-655.886	-42.407	0.069	0.035
-654.872	182.045	0.110	0.162
-653.857	-93.620	0.537	-0.148
-652.843	23.879	-0.258	-0.213
-651.828	3.203	-0.376	-0.274
-650.814	-200.000	-0.041	-0.219
-649.799	39.796	0.350	-0.314
-648.784	29.603	0.175	-0.149
-647.770	-43.609	-0.156	0.078
-646.755	-140.092	0.097	0.010
-645.741	731.511	-0.061	0.164
-644.726	192.999	0.097	0.146
-643.711	-137.251	-0.161	-0.018
-642.697	-200.000	0.049	0.332
-641.682	20.435	-0.081	0.066
-640.668	-200.000	0.026	-0.304
-639.653	-118.357	-0.302	0.054
-638.638	-200.000	0.032	0.342
-637.624	-139.161	-0.195	0.021
-636.609	-93.894	0.143	-0.039
-635.595	-53.723	0.251	-0.114
-634.580	-48.700	-0.098	-0.047
-633.565	800.000	0.052	-0.223
-632.551	-139.485	0.170	-0.018
-631.536	155.716	-0.058	0.079
-630.522	-88.677	-0.060	-0.018
-629.507	-116.089	-0.221	-0.041
-628.492	-50.059	0.337	-0.159
-627.478	70.291	-0.117	-0.120
-626.463	303.638	-0.137	0.253
-625.449	5.825	0.100	0.074
-624.434	222.018	0.169	0.271
-623.419	-200.000	0.009	-0.060
-622.405	800.000	-0.101	0.346
-621.390	-200.000	-0.018	0.122
-620.376	-128.246	-0.087	-0.012
-619.361	-180.213	-0.131	-0.003
-618.346	-82.668	-0.299	0.097
-617.332	-109.905	-0.329	0.069
-616.317	-46.088	-0.166	-0.082
-615.303	-200.000	0.027	-0.162
-614.288	-138.864	-0.430	0.047
-613.273	109.576	0.291	-0.348
-612.259	-200.000	0.005	-0.332
-611.244	-200.000	-0.028	-0.348
-610.230	-115.930	0.147	-0.027
-609.215	-37.130	0.533	0.284
-608.201	-17.791	-0.042	0.026
-607.186	182.850	-0.153	0.225
-606.171	125.555	0.216	-0.272
-605.157	511.622	-0.078	0.181
-604.142	67.208	0.245	-0.249
-603.128	-118.704	-0.283	-0.050
-602.113	47.180	-0.196	-0.182
-601.098	-51.341	-0.438	0.204
-600.084	-200.000	0.033	0.263
-599.069	34.994	-0.364	0.318
-598.055	38.751	0.087	-0.077
-597.040	800.000	-0.020	0.080
-596.025	-200.000	0.013	-0.232
-595.011	55.898	-0.056	-0.054
-593.996	800.000	0.082	-0.308
-592.982	82.524	-0.255	-0.276
-591.967	-200.000	0.053	-0.254
-590.952	-96.573	0.199	0.052
-589.938	-161.053	-0.160	0.008
-588.923	-4.036	-0.144	-0.100
-587.909	-200.000	0.030	-0.175
-586.894	800.000	-0.065	-0.185
-585.879	-200.000	-0.040	-0.218
-584.865	480.205	0.032	-0.072
-583.850	-124.528	-0.329	-0.051
-582.836	-78.506	-0.187	-0.064
-581.821	-146.441	-0.344	0.030
-580.806	31.715	-0.122	0.105
-579.792	85.714	0.106	-0.116
-578.777	-200.000	-0.059	-0.368
-577.763	208.873	0.045	-0.070
-576.748	315.734	0.083	-0.157
-575.733	-127.799	0.426	0.061
-574.719	800.000	-0.032	-0.120
-573.704	2.657	0.124	-0.089
-572.690	-102.220	-0.101	0.024
-571.675	-200.000	-0.022	0.223
-570.661	112.025	0.075	0.090
-569.646	800.000	0.026	0.087
-568.631	58.846	-0.031	0.030
-567.617	70.547	-0.215	0.221
-566.602	323.302	0.063	0.119
-565.588	135.923	-0.113	-0.147
-564.573	-67.210	-0.162	-0.064
-563.558	758.220	-0.032	-0.087
-562.544	800.000	-0.069	0.248
-561.529	3.849	-0.152	-0.111
-560.515	540.466	-0.085	-0.202
-559.500	329.113	0.189	-0.362
-558.485	-200.000	0.005	-0.083
-557.471	54.258	0.214	0.205
-556.456	294.446	0.102	-0.185
-555.442	-104.518	0.177	-0.041
-554.427	444.796	-0.149	-0.326
-553.412	-45.754	-0.132	0.065
-552.398	-59.568	-0.162	0.069
-551.383	-58.016	0.202	-0.088
-550.369	-9.031	-0.048	-0.032
-549.354	-31.544	0.285	-0.160
-548.339	-116.846	0.145	-0.027
-547.325	107.081	-0.115	-0.136
-546.310	10.368	0.073	-0.055
-545.296	-200.000	-0.007	-0.054
-544.281	693.603	0.089	-0.232
-543.266	448.298	-0.102	0.223
-542.252	328.826	0.068	0.130
-541.237	-200.000	-0.078	0.352
-540.223	438.714	-0.102	0.222
-539.208	75.496	-0.137	0.144
-538.193	194.299	-0.061	0.092
-537.179	157.836	-0.096	-0.133
-536.164	800.000	-0.022	-0.093
-535.150	139.520	0.098	-0.128
-534.135	-200.000	0.074	-0.463
-533.121	-116.589	-0.366	-0.067
-532.106	84.332	-0.149	-0.162
-531.091	79.272	-0.097	0.104
-530.077	-55.195	0.209	-0.094
-529.062	57.429	0.156	0.152
-528.048	800.000	0.022	-0.063
-527.033	50.274	0.255	-0.240
-526.018	-186.695	0.250	0.003
-525.004	78.599	-0.166	0.177
-523.989	-200.000	-0.003	-0.102
-522.975	-143.328	0.551	-0.053
-521.960	-200.000	-0.005	0.332
-520.945	-105.681	-0.054	0.012
-519.931	366.697	0.037	-0.074
-518.916	-157.433	-0.085	0.005
-517.902	-200.000	0.050	0.264
-516.887	234.449	0.141	0.232
-515.872	-200.000	-0.016	-0.265
-514.858	-145.105	-0.366	-0.033
-513.843	84.850	0.193	-0.210
-512.829	-200.000	-0.028	-0.239
-511.814	-36.306	0.272	-0.146
-510.799	-41.210	0.041	0.021
-509.785	-152.899	0.341	-0.024
-508.770	29.002	-0.107	-0.090
-507.756	800.000	0.085	0.241
-506.741	743.169	0.069	0.184
-505.726	37.480	0.041	-0.036
-504.712	-78.006	-0.219	-0.075
-503.697	-4.650	-0.114	0.078
-502.683	800.000	0.031	0.122
-501.668	-37.500	0.139	0.074
-500.653	-99.002	0.310	0.078
-499.639	-141.966	-0.163	-0.016
-498.624	-200.000	0.028	0.186
-497.610	-200.000	0.016	-0.213
-496.595	317.354	0.258	-0.484
-495.581	-67.098	0.134	0.053
-494.566	-20.191	-0.305	-0.186
-493.551	81.029	-0.049	0.052
-492.537	224.912	-0.100	0.161
-491.522	207.647	-0.046	-0.072
-490.508	-49.962	-0.118	0.056
-489.493	238.313	0.198	-0.327
-488.478	-103.720	0.105	-0.024
-487.464	37.636	0.086	-0.076
-486.449	-200.000	0.015	-0.187
-485.435	74.438	-0.047	0.049
-484.420	76.495	-0.184	-0.193
-483.405	-200.000	0.011	0.091
-482.391	75.040	-0.196	-0.205
-481.376	13.296	0.235	0.180
-480.362	124.003	0.049	0.061
-479.347	10.163	-0.248	-0.187
-478.332	37.668	0.198	0.174
-477.318	-22.147	0.089	0.054
-476.303	33.043	0.330	0.284
-475.289	-119.201	-0.112	0.019
-474.274	-110.035	0.222	-0.046
-473.259	318.513	-0.201	-0.378
-472.245	292.037	-0.085	0.154
-471.230	-200.000	0.043	-0.191
-470.216	0.398	-0.127	-0.090
-469.201	355.406	-0.127	-0.250
-468.186	12.023	-0.110	0.084
-467.172	-200.000	-0.068	0.347
-466.157	97.882	-0.130	0.148
-465.143	333.058	-0.092	-0.176
-464.128	114.669	-0.087	0.105
-463.113	-30.750	-0.083	-0.046
-462.099	673.172	0.131	-0.336
-461.084	-94.950	-0.408	0.109
-460.070	-132.867	0.291	-0.037
-459.055	-200.000	-0.016	-0.158
-458.040	-146.538	0.101	0.009
-457.026	83.621	-0.169	-0.183
-456.011	-141.479	-0.205	-0.021
-454.997	65.490	-0.192	-0.193
-453.982	29.439	-0.212	0.179
-452.968	442.608	-0.085	0.185
-451.953	-125.936	-0.250	0.037
-450.938	-15.914	0.141	0.089
-449.924	455.412	-0.130	-0.286
-448.909	-200.000	0.008	-0.103
-447.895	275.022	-0.156	0.274
-446.880	800.000	0.038	0.149
-445.865	-200.000	-0.004	0.131
-444.851	-200.000	-0.224	0.001
-443.836	12.189	0.107	-0.081
-442.822	800.000	-0.124	-0.485
-441.807	-21.116	0.084	-0.051
-440.792	-200.000	0.011	0.215
-439.778	289.536	-0.134	0.241
-438.763	-57.142	-0.227	-0.099
-437.749	-143.596	-0.127	0.012
-436.734	-200.000	-0.026	0.212
-435.719	309.903	-0.028	-0.052
-434.705	-200.000	0.024	-0.198
-433.690	-43.410	0.290	-0.145
-432.676	-69.770	-0.306	0.116
-431.661	800.000	0.070	-0.191
-430.646	-19.486	0.195	0.119
-429.632	-200.000	-0.064	-0.297
-428.617	-12.369	-0.300	-0.194
-427.603	221.049	0.128	0.204
-426.588	40.107	0.319	-0.284
-425.573	-200.000	-0.008	0.082
-424.559	50.613	0.110	0.103
-423.544	-200.000	-0.035	-0.179
-422.530	-97.636	-0.155	0.040
-421.515	-200.000	-0.014	0.160
-420.500	-1.616	0.045	0.032
-419.486	-9.561	-0.097	-0.064
-418.471	339.966	-0.117	-0.226
-417.457	-200.000	-0.068	0.371
-416.442	-200.000	-0.005	-0.021
-415.428	-174.112	0.094	0.003
-414.413	-43.192	0.168	-0.084
-413.398	2.527	0.223	0.160
-412.384	-200.000	0.009	-0.116
-411.369	270.867	-0.095	-0.166
-410.355	-95.628	-0.144	-0.038
-409.340	-200.000	-0.055	-0.342
-408.325	-200.000	0.024	-0.298
-407.311	-200.000	0.019	0.240
-406.296	104.840	0.357	0.416
-405.282	231.129	-0.110	-0.178
-404.267	241.779	-0.180	-0.298
-403.252	-59.026	0.174	0.074
-402.238	800.000	-0.065	-0.249
-401.223	344.370	0.149	0.289
-400.209	270.439	0.160	-0.279
-399.194	-200.000	-0.054	0.406
-398.179	75.858	-0.115	0.121
-397.165	-121.456	0.249	0.041
-396.150	135.664	-0.185	-0.238
-395.136	179.011	0.058	-0.085
-394.121	-109.100	0.356	0.075
-393.106	17.184	0.238	0.187
-392.092	126.886	0.105	0.131
-391.077	-200.000	0.000	-0.119
-390.063	457.223	0.052	0.114
-389.048	31.846	-0.213	0.181
-388.033	57.152	0.070	-0.067
-387.019	-14.093	0.365	-0.233
-386.004	-200.000	0.002	0.188
-384.990	-77.697	-0.134	-0.046
-383.975	-74.917	0.039	0.014
-382.960	6.494	0.221	0.163
-381.946	33.535	0.115	-0.099
-380.931	-159.178	-0.415	-0.023
-379.917	-200.000	0.039	0.612
-378.902	-143.566	0.231	0.022
-377.888	302.414	-0.088	0.161
-376.873	-88.205	0.167	0.049
-375.858	675.909	0.044	0.113
-374.844	-106.143	-0.144	-0.032
-373.829	463.248	0.101	0.222
-372.815	-14.878	-0.143	0.091
-371.800	189.757	0.144	-0.213
-370.785	-200.000	0.011	0.240
-369.771	-33.348	0.124	-0.068
-368.756	-200.000	0.060	-0.305
-367.742	51.630	0.188	0.176
-366.727	272.012	0.082	0.143
-365.712	800.000	-0.048	-0.172
-364.698	17.923	-0.191	-0.151
-363.683	-62.880	-0.063	-0.026
-362.669	45.982	-0.365	0.334
-361.654	800.000	0.016	0.058
-360.639	138.380	-0.142	0.183
-359.625	-200.000	-0.002	0.212
-358.610	95.543	0.139	0.157
-357.596	88.670	0.140	-0.154
-356.581	-40.346	0.319	0.164
-355.566	92.765	0.374	-0.417
-354.552	800.000	-0.102	0.350
-353.537	-23.394	0.111	-0.066
-352.523	173.721	0.149	-0.213
-351.508	-200.000	-0.005	-0.139
-350.493	800.000	-0.053	0.157
-349.479	-27.471	-0.205	0.118
-348.464	18.768	0.075	0.060
-347.450	265.605	0.038	0.065
-346.435	705.507	0.058	0.150
-345.420	-35.077	0.099	-0.053
-344.406	800.000	0.176	0.551
-343.391	31.256	0.275	-0.233
-342.377	-200.000	-0.039	-0.338
-341.362	7.782	0.068	-0.050
-340.348	513.038	0.048	0.110
-339.333	136.278	0.134	0.173
-338.318	453.538	0.054	-0.118
-337.304	-23.883	-0.039	0.023
-336.289	122.331	0.095	-0.118
-335.275	-200.000	-0.011	0.236
-334.260	48.529	-0.221	-0.205
-333.245	800.000	0.038	0.137
-332.231	800.000	0.077	-0.318
-331.216	237.411	0.169	0.276
-330.202	800.000	0.071	0.242
-329.187	-200.000	-0.010	-0.411
-328.172	-137.298	-0.164	0.018
-327.158	115.060	-0.279	0.336
-326.143	420.309	-0.158	-0.333
-325.129	-3.142	0.056	-0.039
-324.114	-105.841	-0.201	-0.045
-323.099	-200.000	0.006	0.327
-322.085	800.000	-0.025	-0.100
-321.070	60.885	-0.126	-0.124
-320.056	444.321	-0.063	0.135
-319.041	-81.235	0.362	-0.118
-318.026	-200.000	-0.043	0.230
-317.012	-94.476	0.348	0.093
-315.997	21.185	-0.191	0.153
-314.983	303.563	-0.116	-0.211
-313.968	570.984	-0.118	-0.283
-312.953	99.254	-0.093	0.106
-311.939	-200.000	-0.010	-0.223
-310.924	542.141	0.088	0.207
-309.910	57.815	0.210	-0.203
-308.895	641.095	0.108	0.271
-307.880	-200.000	-0.058	-0.531
-306.866	-105.177	0.124	0.028
-305.851	-56.872	0.440	-0.192
-304.837	-28.467	0.089	-0.051
-303.822	-81.189	0.122	-0.040
-302.807	-30.558	-0.287	0.160
-301.793	-200.000	0.057	0.343
-300.778	224.560	0.030	0.048
-299.764	-14.215	-0.110	-0.070
-298.749	65.660	0.121	0.120
-297.735	480.305	-0.070	-0.157
-296.720	37.383	-0.317	-0.277
-295.705	-48.618	0.388	0.184
-294.691	17.736	0.126	0.098
-293.676	-99.339	-0.164	-0.041
-292.662	-119.427	0.135	0.023
-291.647	-200.000	-0.044	0.221
-290.632	1.182	-0.303	0.214
-289.618	-117.716	0.187	-0.033
-288.603	97.006	-0.328	0.370
-287.589	-6.567	0.111	0.075
-286.574	100.194	-0.122	0.139
-285.559	-46.270	-0.133	-0.064
-284.545	422.590	0.094	0.198
-283.530	-0.049	0.226	-0.159
-282.516	3.773	-0.176	-0.127
-281.501	-75.150	-0.211	-0.074
-280.486	-200.000	-0.017	0.255
-279.472	-200.000	-0.001	0.075
-278.457	130.245	-0.155	0.196
-277.443	-127.406	0.479	0.069
-276.428	574.483	0.116	0.278
-275.413	348.858	-0.126	-0.245
-274.399	-200.000	0.015	0.137
-273.384	-82.645	0.208	-0.066
-272.370	800.000	-0.014	-0.044
-271.355	366.458	0.104	0.207
-270.340	-63.149	0.104	-0.042
-269.326	-101.834	-0.287	0.068
-268.311	151.825	0.080	0.107
-267.297	-133.709	0.203	-0.025
-266.282	38.290	0.131	-0.114
-265.267	-152.075	-0.387	0.028
-264.253	-109.478	0.320	0.066
-263.238	-55.509	0.182	-0.080
-262.224	-143.084	-0.138	0.013
-261.209	-200.000	0.073	-0.380
-260.195	-21.636	-0.226	0.136
-259.180	-162.894	-0.411	0.020
-258.165	373.252	0.079	-0.159
-257.151	331.573	0.039	0.075
-256.136	166.480	0.147	0.206
-255.122	171.329	-0.116	0.164
-254.107	346.539	-0.058	0.112
-253.092	139.188	0.192	0.249
-252.078	-65.559	0.129	-0.051
-251.063	-42.338	-0.254	-0.128
-250.049	334.722	0.107	0.204
-249.034	-102.173	-0.326	-0.077
-248.019	697.212	0.152	-0.392
-247.005	220.541	0.093	0.146
-245.990	-29.063	0.215	-0.121
-244.976	144.596	-0.056	0.074
-243.961	65.915	-0.173	0.172
-242.946	-101.372	0.142	0.034
-241.932	82.508	0.151	-0.161
-240.917	-121.489	0.110	0.018
-239.903	0.914	-0.205	0.144
-238.888	274.562	-0.190	0.330
-237.873	126.545	0.119	0.148
-236.859	64.052	-0.166	-0.164
-235.844	-20.695	0.184	0.111
-234.830	-21.944	0.305	0.182
-233.815	145.078	-0.121	0.159
-232.800	-95.143	0.171	0.045
-231.786	38.689	0.053	0.046
-230.771	-200.000	-0.028	-0.325
-229.757	-13.265	0.068	0.044
-228.742	59.574	-0.243	-0.235
-227.727	6.320	0.360	-0.262
-226.713	-200.000	0.103	-0.577
-225.698	-12.371	-0.229	-0.147
-224.684	691.796	-0.094	0.242
-223.669	-97.944	-0.414	-0.105
-222.655	-134.984	-0.045	-0.005
-221.640	150.854	0.090	-0.121
-220.625	153.653	0.125	-0.168
-219.611	800.000	0.117	0.323
-218.596	800.000	-0.100	0.367
-217.582	-135.868	-0.160	-0.018
-216.567	-93.063	-0.092	-0.025
-215.552	12.674	0.034	-0.026
-214.538	800.000	-0.057	0.196
-213.523	-200.000	-0.003	0.205
-212.509	-96.286	-0.336	0.088
-211.494	-8.412	-0.188	0.124
-210.479	-40.057	0.162	0.083
-209.465	-30.529	0.132	-0.074
-208.450	-200.000	-0.014	0.131
-207.436	-200.000	-0.005	0.205
-206.421	-114.602	-0.228	-0.043
-205.406	311.578	0.101	-0.185
-204.392	327.559	-0.169	0.318
-203.377	-200.000	-0.053	-0.266
-202.363	-161.254	0.301	0.015
-201.348	394.504	0.083	-0.169
-200.333	-154.778	0.196	-0.013
-199.319	84.247	0.088	-0.095
-198.304	-40.056	0.270	-0.138
-197.290	109.545	-0.185	0.218
-196.275	-168.543	-0.248	-0.009
-195.260	-94.281	0.225	0.060
-194.246	-60.814	-0.262	0.109
-193.231	442.937	-0.069	-0.148
-192.217	800.000	-0.036	-0.132
-191.202	-26.792	0.247	-0.142
-190.187	-200.000	0.029	-0.254
-189.173	-46.270	0.298	-0.144
-188.158	-200.000	-0.036	-0.167
-187.144	-153.630	-0.434	-0.029
-186.129	-114.577	-0.349	-0.066
-185.114	312.502	0.132	0.244
-184.100	-200.000	0.025	-0.121
-183.085	-79.182	-0.236	0.079
-182.071	-148.527	0.268	-0.021
-181.056	-69.712	-0.319	0.119
-180.042	-190.734	0.162	0.002
-179.027	-200.000	0.029	0.218
-178.012	235.539	0.067	0.108
-176.998	157.963	0.163	0.222
-175.983	121.910	-0.122	0.149
-174.969	-96.485	0.434	0.112
-173.954	241.764	-0.102	-0.168
-172.939	397.780	-0.072	-0.148
-171.925	96.005	-0.280	-0.313
-170.910	-200.000	-0.024	0.188
-169.896	-7.860	0.340	0.225
-168.881	-14.328	0.200	-0.126
-167.866	13.682	-0.292	-0.223
-166.852	-15.933	0.066	-0.041
-165.837	226.911	0.200	0.318
-164.823	-167.487	-0.184	-0.007
-163.808	-172.885	0.101	-0.003
-162.793	-200.000	0.055	0.333
-161.779	-62.023	-0.100	0.041
-160.764	-132.311	0.051	-0.006
-159.750	77.674	0.049	0.052
-158.735	101.740	0.072	0.083
-157.720	-82.573	-0.082	0.026
-156.706	282.645	-0.110	0.194
-155.691	-200.000	-0.014	-0.106
-154.677	-64.707	0.108	0.043
-153.662	-200.000	-0.042	0.301
-152.647	-154.403	-0.380	-0.025
-151.633	800.000	-0.023	0.082
-150.618	-5.754	-0.184	-0.124
-149.604	-82.172	-0.220	0.070
-148.589	130.333	0.176	0.220
-147.574	-180.829	0.348	-0.007
-146.560	-130.505	-0.199	0.026
-145.545	-50.859	0.187	-0.086
-144.531	-23.105	-0.104	-0.061
-143.516	117.154	-0.042	-0.050
-142.502	226.764	0.041	-0.065
-141.487	244.138	0.096	-0.157
-140.472	-200.000	-0.006	0.199
-139.458	51.838	-0.364	0.340
-138.443	124.477	-0.220	-0.271
-137.429	48.179	-0.088	-0.080
-136.414	800.000	-0.016	-0.056
-135.399	249.027	-0.050	-0.083
-134.385	19.772	0.153	-0.121
-133.370	-64.809	0.174	-0.069
-132.356	-3.038	-0.163	0.112
-131.341	650.995	0.082	-0.206
-130.326	-35.706	0.024	-0.013
-129.312	460.801	-0.161	-0.352
-128.297	-109.394	0.205	0.043
-127.283	-59.949	-0.307	-0.129
-126.268	800.000	-0.026	-0.072
-125.253	800.000	-0.083	0.271
-124.239	403.526	-0.031	-0.065
-123.224	245.013	0.083	0.136
-122.210	-89.480	-0.284	-0.082
-121.195	171.206	-0.138	0.193
-120.180	-90.374	-0.140	0.040
-119.166	10.864	-0.380	-0.284
-118.151	188.837	-0.096	0.140
-117.137	-200.000	0.070	-0.306
-116.122	158.113	0.103	-0.139
-115.107	-200.000	0.028	0.165
-114.093	365.872	-0.102	0.201
-113.078	8.371	0.218	0.160
-112.064	35.996	0.142	0.122
-111.049	-200.000	0.023	-0.142
-110.034	-67.907	0.339	-0.130
-109.020	87.277	0.250	0.271
-108.005	-200.000	0.045	-0.452
-106.991	-120.591	0.162	-0.027
-105.976	-200.000	0.004	0.026
-104.962	-200.000	0.076	0.406
-103.947	106.460	-0.105	-0.122
-102.932	-1.104	-0.127	-0.088
-101.918	-56.734	0.165	0.072
-100.903	-200.000	-0.043	-0.435
-99.889	-200.000	-0.040	0.201
-98.874	-8.130	-0.053	-0.035
-97.859	-200.000	-0.014	0.177
-96.845	-200.000	0.002	0.038
-95.830	800.000	0.027	-0.092
-94.816	-200.000	-0.047	0.445
-93.801	-200.000	-0.008	0.067
-92.786	562.128	-0.049	-0.115
-91.772	609.785	-0.108	-0.263
-90.757	-111.801	0.337	-0.067
-89.743	-36.453	-0.155	-0.082
-88.728	-24.957	-0.124	-0.072
-87.713	-200.000	-0.005	-0.372
-86.699	800.000	-0.006	0.020
-85.684	340.823	-0.099	-0.190
-84.670	616.621	-0.040	0.098
-83.655	275.583	-0.027	0.048
-82.640	800.000	0.094	0.286
-81.626	-200.000	0.044	-0.198
-80.611	-90.339	0.240	0.068
-79.597	703.324	0.102	0.264
-78.582	-91.280	0.210	-0.059
-77.567	333.950	-0.074	0.139
-76.553	800.000	0.137	-0.441
-75.538	-47.684	-0.090	0.043
-74.524	-72.980	0.307	-0.110
-73.509	800.000	0.065	-0.240
-72.494	-21.616	0.304	0.181
-71.480	-84.410	-0.269	-0.083
-70.465	-25.310	0.069	-0.040
-69.451	-75.942	0.119	0.041
-68.436	487.976	0.085	-0.189
-67.422	800.000	0.042	0.162
-66.407	423.587	0.073	0.154
-65.392	40.129	0.210	-0.184
-64.378	4.387	-0.256	0.183
-63.363	-200.000	0.027	0.347
-62.349	-200.000	0.013	0.246
-61.334	185.902	-0.783	-1.137
-60.319	152.097	0.500	0.666
-59.305	461.073	-0.497	-1.081
-58.290	123.166	0.897	1.096
-57.276	539.837	0.680	1.580
-56.261	-200.000	119.319	616.987
-55.246	410.134	1530.764	3166.796
-54.232	148.285	2679.894	3530.597
-53.217	97.473	2123.903	2380.894
-52.203	36.291	1570.741	1351.221
-51.188	28.842	1317.411	1089.302
-50.173	26.064	1279.877	1042.201
-49.159	50.544	1343.927	1240.542
-48.144	48.792	1358.187	1243.243
-47.130	28.873	1308.062	1081.582
-46.115	25.675	1289.751	1047.813
-45.100	25.516	1284.486	1042.573
-44.086	25.404	1281.942	1039.817
-43.071	25.416	1279.880	1038.171
-42.057	25.295	1278.162	1036.042
-41.042	25.361	1276.568	1035.084
-40.027	25.396	1274.600	1033.652
-39.013	25.565	1272.689	1033.033
-37.998	25.463	1271.063	1031.087
-36.984	25.473	1269.768	1030.049
-35.969	25.539	1268.007	1028.961
-34.954	25.475	1266.239	1027.119
-33.940	25.595	1264.875	1026.655
-32.925	25.561	1263.293	1025.136
-31.911	25.559	1262.031	1024.060
-30.896	25.667	1260.466	1023.362
-29.881	25.717	1259.049	1022.460
-28.867	25.657	1257.908	1021.149
-27.852	25.723	1256.541	1020.371
-26.838	25.704	1255.296	1019.216
-25.823	25.649	1254.138	1017.923
-24.809	25.585	1252.819	1016.450
-23.794	25.619	1251.525	1015.554
-22.779	25.617	1250.330	1014.528
-21.765	25.537	1249.615	1013.461
-20.750	25.690	1247.626	1012.665
-19.736	25.599	1246.271	1011.015
-18.721	25.607	1245.396	1010.311
-17.706	25.586	1244.030	1009.046
-16.692	25.548	1242.943	1007.908
-15.677	25.557	1242.307	1007.408
-14.663	25.626	1240.408	1006.209
-13.648	25.471	1239.957	1004.939
-12.633	25.527	1238.766	1004.244
-11.619	25.508	1238.566	1003.938
-10.604	25.484	1237.331	1002.762
-9.590	25.451	1236.406	1001.787
-8.575	25.534	1234.739	1000.862
-7.560	25.429	1234.187	999.790
-6.546	25.543	1233.177	999.565
-5.531	25.477	1232.952	998.975
-4.517	25.482	1232.060	998.241
-3.502	25.406	1230.962	996.891
-2.487	25.491	1230.110	996.634
-1.473	25.421	1225.856	992.763
-0.458	23.619	1210.781	970.667
0.556	18.317	1194.749	932.496
1.571	14.520	1201.264	916.663
2.586	13.729	1215.905	923.352
3.600	13.696	1204.097	914.125
4.615	10.034	1134.043	841.820
5.629	3.445	1063.328	756.988
6.644	0.374	1045.606	729.467
7.659	0.034	1043.646	726.392
8.673	0.160	1042.832	726.370
9.688	0.122	1041.831	725.421
10.702	0.392	1039.021	724.700
11.717	4.324	1044.244	747.244
12.731	11.502	1053.678	788.705
13.746	16.068	1058.922	814.677
14.761	16.841	1059.453	818.746
15.775	16.024	1057.565	813.274
16.790	14.940	1055.696	806.539
17.804	14.441	1053.856	802.662
18.819	14.033	1053.346	800.240
19.834	13.869	1051.616	798.067
20.848	13.702	1050.850	796.614
21.863	13.376	1050.380	794.618
22.877	13.210	1049.427	793.032
23.892	13.129	1049.003	792.254
24.907	13.277	1048.175	792.263
25.921	13.280	1047.033	791.348
26.936	13.306	1046.471	790.977
27.950	13.293	1045.736	790.286
28.965	13.462	1044.078	789.771
29.980	13.415	1043.088	788.730
30.994	13.397	1042.257	787.944
32.009	13.439	1040.920	787.066
33.023	13.342	1040.328	786.088
34.038	13.400	1039.050	785.328
35.053	13.322	1038.448	784.432
36.067	13.228	1037.884	783.489
37.082	13.359	1036.967	783.351
38.096	13.246	1036.175	782.147
39.111	13.317	1035.495	781.900
40.126	13.190	1034.455	780.447
41.140	13.130	1033.420	779.314
42.155	13.076	1031.950	777.880
43.169	13.084	1031.074	777.189
44.184	13.113	1030.112	776.533
45.199	13.141	1029.068	775.809
46.213	13.153	1027.868	774.894
47.228	13.269	1026.878	774.618
48.242	13.233	1025.437	773.298
49.257	13.292	1024.376	772.705
50.271	13.377	1023.986	772.739
51.286	13.314	1022.997	771.629
52.301	13.307	1022.173	770.905
53.315	13.235	1021.221	769.786
54.330	13.107	1020.674	768.709
55.344	13.205	1019.394	768.135
56.359	13.245	1019.011	767.963
57.374	13.194	1017.775	766.725
58.388	13.267	1016.626	766.132
59.403	13.078	1016.423	765.037
60.417	13.132	1015.105	764.223
61.432	13.062	1014.656	763.494
62.447	13.116	1013.645	762.916
63.461	13.076	1012.845	762.064
64.476	13.124	1011.846	761.463
65.490	12.985	1011.649	760.610
66.505	13.111	1010.569	760.310
67.520	13.248	1009.505	760.071
68.534	13.193	1008.839	759.249
69.549	13.160	1008.339	758.656
70.563	13.196	1007.301	757.971
71.578	13.066	1006.864	756.981
72.593	13.101	1005.840	756.304
73.607	13.106	1005.492	755.996
74.622	13.185	1004.532	755.572
75.636	13.076	1004.039	754.633
76.651	13.041	1003.482	753.990
77.666	13.134	1002.768	753.809
78.680	13.078	1002.023	752.928
79.695	13.258	1000.912	752.845
80.709	13.102	1000.603	751.835
81.724	13.146	999.971	751.497
82.739	13.168	999.428	751.123
83.753	13.235	998.462	750.635
84.768	13.361	997.148	750.151
85.782	13.399	996.614	749.854
86.797	13.350	995.582	748.788
87.812	13.334	995.272	748.419
88.826	13.327	993.960	747.334
89.841	13.303	992.959	746.405
90.855	13.249	992.431	745.701
91.870	13.249	991.886	745.225
92.884	13.372	990.554	744.712
93.899	13.465	989.646	744.380
94.914	13.431	988.678	743.432
95.928	13.479	988.085	743.139
96.943	13.500	986.982	742.340
97.957	13.355	986.463	741.233
98.972	13.282	985.976	740.472
99.987	13.355	985.079	740.059
101.001	13.372	983.926	739.206
102.016	13.307	983.230	738.325
103.030	13.384	982.606	738.135
104.045	13.302	981.723	737.043
105.060	13.401	980.809	736.730
106.074	13.141	980.127	734.999
107.089	13.222	979.016	734.460
108.103	13.287	978.108	734.004
109.118	13.248	977.004	732.934
110.133	13.308	976.076	732.440
111.147	13.195	975.744	731.627
112.162	13.200	974.869	730.925
113.176	13.322	973.891	730.666
114.191	13.398	973.151	730.383
115.206	13.188	972.970	729.258
116.220	13.237	971.389	728.224
117.235	13.439	970.456	728.346
118.249	13.393	969.736	727.540
119.264	13.283	969.013	726.450
120.279	13.261	968.256	725.724
121.293	13.357	967.368	725.416
122.308	13.304	966.758	724.660
123.322	13.234	965.808	723.578
124.337	13.295	964.542	722.831
125.352	13.305	963.152	721.769
126.366	13.189	962.734	720.886
127.381	13.234	961.680	720.228
128.395	13.299	961.045	719.974
129.410	13.207	959.749	718.539
130.424	13.174	959.580	718.203
131.439	13.209	958.439	717.437
132.454	13.430	957.308	717.489
133.468	13.230	956.710	716.109
134.483	13.347	956.168	716.146
135.497	13.290	955.342	715.220
136.512	13.480	954.177	715.103
137.527	13.422	953.468	714.260
138.541	13.356	952.620	713.276
139.556	13.268	952.267	712.567
140.570	13.395	951.085	712.170
141.585	13.496	950.297	711.948
142.600	13.587	949.461	711.652
143.614	13.469	949.168	710.863
144.629	13.541	948.419	710.547
145.643	13.440	947.565	709.412
146.658	13.466	945.977	708.269
147.673	13.457	945.372	707.715
148.687	13.545	944.122	707.093
149.702	13.586	943.680	706.874
150.716	13.501	942.826	705.812
151.731	13.484	942.348	705.318
152.746	13.337	941.952	704.334
153.760	13.446	941.424	704.341
154.775	13.460	940.980	704.005
155.789	13.622	939.970	703.875
156.804	13.575	939.115	702.973
157.819	13.607	938.862	702.857
158.833	13.493	938.207	701.823
159.848	13.802	936.898	702.086
160.862	13.810	935.835	701.261
161.877	13.591	935.285	699.862
162.892	13.559	934.549	699.116
163.906	13.549	933.585	698.293
164.921	13.646	932.363	697.723
165.935	13.606	931.688	696.989
166.950	13.659	931.172	696.765
167.964	13.712	930.229	696.219
168.979	13.511	929.586	694.832
169.994	13.678	928.391	694.576
171.008	13.742	927.675	694.250
172.023	13.778	927.081	693.894
173.037	13.813	926.239	693.349
174.052	13.842	925.206	692.633
175.067	13.804	924.934	692.211
176.081	13.729	924.610	691.593
177.096	13.742	924.111	691.213
178.110	13.674	923.373	690.317
179.125	13.672	922.816	689.831
180.140	13.731	922.409	689.713
181.154	13.760	921.848	689.353
182.169	13.883	921.103	689.243
183.183	13.663	921.183	688.328
184.198	13.776	920.351	688.114
185.213	13.947	918.915	687.690
186.227	13.938	918.452	687.247
187.242	13.831	918.133	686.502
188.256	13.960	917.294	686.349
189.271	13.882	916.739	685.550
190.286	13.872	915.972	684.876
191.300	13.826	915.048	683.932
192.315	13.754	914.564	683.214
193.329	13.776	914.144	682.932
194.344	13.849	913.606	682.768
195.359	13.858	912.802	682.144
196.373	14.055	911.929	682.240
197.388	13.952	911.857	681.702
198.402	13.956	911.386	681.308
199.417	14.051	910.555	681.015
200.432	14.125	909.700	680.618
201.446	14.117	909.196	680.147
202.461	14.342	908.771	680.688
203.475	14.183	908.502	679.777
204.490	14.147	907.612	678.906
205.504	14.064	907.083	678.111
206.519	14.079	906.035	677.328
207.534	14.151	905.704	677.313
208.548	14.098	904.833	676.387
209.563	14.172	903.868	675.908
210.577	14.189	903.893	675.935
211.592	14.162	903.333	675.349
212.607	14.124	902.219	674.299
213.621	14.247	901.216	673.990
214.636	14.274	900.450	673.467
215.650	14.242	899.856	672.834
216.665	14.361	899.066	672.664
217.680	14.380	898.607	672.337
218.694	14.302	897.771	671.338
219.709	14.294	897.550	671.079
220.723	14.309	896.533	670.320
221.738	14.470	895.821	670.377
222.753	14.235	895.292	668.977
223.767	14.504	894.735	669.581
224.782	14.524	893.895	668.977
225.796	14.445	893.790	668.521
226.811	14.462	892.764	667.761
227.826	14.570	891.848	667.448
228.840	14.623	891.267	667.167
229.855	14.511	890.296	665.933
230.869	14.442	889.581	665.064
231.884	14.374	889.217	664.462
232.899	14.562	888.440	664.571
233.913	14.461	887.999	663.781
234.928	14.400	887.293	662.952
235.942	14.580	886.477	662.998
236.957	14.552	886.018	662.485
237.972	14.656	885.246	662.265
238.986	14.511	884.969	661.422
240.001	14.553	884.161	660.926
241.015	14.536	883.530	660.329
242.030	14.676	883.073	660.484
243.045	14.688	882.680	660.176
244.059	14.559	881.928	659.047
245.074	14.555	881.488	658.644
246.088	14.583	880.680	658.093
247.103	14.671	880.019	657.888
248.117	14.709	879.904	657.894
249.132	14.756	879.420	657.659
250.147	14.796	878.474	657.051
251.161	14.846	877.681	656.594
252.176	14.896	876.988	656.216
253.190	14.946	876.370	655.890
254.205	15.004	875.697	655.557
255.220	15.021	875.207	655.198
256.234	14.991	874.588	654.560
257.249	15.088	873.594	654.135
258.263	15.026	872.812	653.252
259.278	15.041	872.120	652.735
260.293	15.148	871.719	652.793
261.307	15.206	871.265	652.622
262.322	15.217	870.422	651.973
263.336	15.175	869.988	651.429
264.351	15.235	869.063	650.912
265.366	15.304	868.460	650.669
266.380	15.149	868.169	649.794
267.395	15.093	867.369	648.918
268.409	15.236	866.298	648.613
269.424	15.332	865.624	648.424
270.439	15.055	865.635	647.302
271.453	15.149	864.768	646.962
272.468	15.243	864.311	646.925
273.482	15.319	863.562	646.599
274.497	15.364	863.096	646.368
275.512	15.455	862.020	645.852
276.526	15.293	862.163	645.281
277.541	15.282	861.515	644.697
278.555	15.263	861.174	644.311
279.570	15.396	860.096	643.957
280.585	15.530	858.988	643.586
281.599	15.469	858.383	642.839
282.614	15.480	858.126	642.634
283.628	15.472	857.351	641.967
284.643	15.431	857.014	641.500
285.657	15.438	856.287	640.926
286.672	15.312	855.925	640.116
287.687	15.606	854.774	640.320
288.701	15.377	854.856	639.453
289.716	15.554	854.121	639.520
290.730	15.687	853.158	639.249
291.745	15.611	852.769	638.612
292.760	15.695	851.972	638.276
293.774	15.629	851.476	637.597
294.789	15.662	850.778	637.144
295.803	15.552	850.217	636.250
296.818	15.493	849.805	635.662
297.833	15.674	848.594	635.385
298.847	15.660	848.219	634.994
299.862	15.613	847.775	634.429
300.876	15.594	847.510	634.104
301.891	15.805	846.471	634.064
302.906	15.740	846.212	633.569
303.920	15.844	845.632	633.470
304.935	16.001	844.821	633.397
305.949	15.847	844.203	632.302
306.964	15.901	843.828	632.167
307.979	15.888	842.864	631.340
308.993	15.814	842.434	630.683
310.008	15.885	842.098	630.643
311.022	15.885	841.808	630.368
312.037	15.879	840.888	629.603
313.052	15.827	840.316	628.922
314.066	15.927	839.660	628.750
315.081	15.861	839.326	628.199
316.095	15.892	838.839	627.893
317.110	15.777	838.724	627.324
318.125	15.938	837.678	627.087
319.139	15.916	837.177	626.573
320.154	15.921	837.112	626.487
321.168	15.858	836.821	625.981
322.183	16.020	835.870	625.814
323.197	16.041	835.339	625.438
324.212	16.039	834.679	624.883
325.227	16.008	834.351	624.467
326.241	15.974	833.746	623.834
327.256	16.041	832.721	623.259
328.270	16.034	831.971	622.618
329.285	16.029	831.742	622.370
330.300	16.110	831.055	622.101
331.314	16.071	830.844	621.742
332.329	16.156	830.294	621.592
333.343	16.094	829.810	620.944
334.358	16.192	829.219	620.808
335.373	16.342	828.939	621.096
336.387	16.076	828.981	620.095
337.402	16.207	828.742	620.344
338.416	16.134	828.336	619.716
339.431	16.371	827.640	620.008
340.446	16.388	827.238	619.716
341.460	16.322	826.947	619.203
342.475	16.370	826.757	619.179
343.489	16.491	826.126	619.096
344.504	16.368	825.333	617.997
345.519	16.366	825.018	617.700
346.533	16.407	824.753	617.596
347.548	16.474	823.776	617.053
348.562	16.262	823.561	616.064
349.577	16.382	822.873	615.933
350.592	16.319	822.167	615.121
351.606	16.469	821.607	615.194
352.621	16.416	820.919	614.431
353.635	16.183	820.485	613.204
354.650	16.383	819.576	613.196
355.665	16.507	819.148	613.274
356.679	16.584	818.409	612.945
357.694	16.536	818.000	612.408
358.708	16.602	817.389	612.136
359.723	16.506	816.805	611.300
360.738	16.491	816.283	610.799
361.752	16.565	815.515	610.437
362.767	16.587	815.183	610.213
363.781	16.567	815.038	609.979
364.796	16.693	814.183	609.739
365.810	16.742	813.836	609.603
366.825	16.835	813.581	609.690
367.840	16.877	813.062	609.399
368.854	16.748	812.366	608.361
369.869	16.692	811.977	607.815
370.883	16.759	811.516	607.656
371.898	16.935	811.028	607.868
372.913	16.844	811.089	607.534
373.927	17.009	810.297	607.476
374.942	16.867	809.860	606.587
375.956	16.909	809.626	606.509
376.971	16.854	809.314	606.025
377.986	16.997	808.780	606.083
379.000	17.012	808.000	605.499
380.015	17.021	807.454	605.068
381.029	17.012	806.947	604.602
382.044	17.156	806.083	604.413
383.059	17.271	805.638	604.435
384.073	17.035	805.425	603.383
385.088	16.983	804.858	602.719
386.102	16.948	804.333	602.150
387.117	17.211	803.547	602.439
388.132	17.001	803.222	601.399
389.146	17.056	802.825	601.245
390.161	17.166	802.184	601.100
391.175	17.174	801.918	600.877
392.190	17.089	801.460	600.179
393.205	17.180	800.673	599.858
394.219	17.038	801.027	599.569
395.234	17.122	800.329	599.288
396.248	17.030	799.805	598.518
397.263	17.064	799.133	598.082
398.278	17.129	798.689	597.928
399.292	17.130	798.364	597.634
400.307	17.127	797.806	597.155
401.321	17.090	797.575	596.798
402.336	17.221	796.599	596.475
403.350	17.159	796.568	596.180
404.365	17.286	796.089	596.213
405.380	17.235	795.593	595.612
406.394	17.425	795.138	595.882
407.409	17.242	794.866	594.988
408.423	17.491	794.451	595.495
409.438	17.489	794.176	595.229
410.453	17.510	793.583	594.803
411.467	17.624	792.678	594.472
412.482	17.629	792.930	594.626
413.496	17.450	792.381	593.535
414.511	17.556	792.093	593.638
415.526	17.523	791.541	593.057
416.540	17.641	790.787	592.850
417.555	17.666	790.274	592.499
418.569	17.558	790.080	591.926
419.584	17.657	789.495	591.778
420.599	17.564	789.508	591.416
421.613	113.691	1296.231	1483.833
422.628	97.722	1370.041	1483.921
