DTS Sentinel unit serial number:	SN413079Multiplexer serial number:	ORYXHardware model number:	OX4-SRSoftware version number:	ORYX F/W v4.00 Oryx Data Collector v3.7.2.0data status	okinstallation	princeton_trtdifferential loss correction	single-endedforward channel	channel 1reverse channel	N/Adate	2019/09/17time	02:38:35forward acquisition time	60.00reverse acquisition time	0.00gamma	496.2192k internal	0.2323k external	0.2323temperature offset calibration	0.9958default loss term (dB/km)	0.3790temperature slope calibration	1.0000multiplexer offset coefficient	1.0000multiplexer slope coefficient	1.0000fibre end	0.00T internal ref (°C)	29.81T ext. ref 1 (°C)	0.12T ext. ref 2 (°C)	24.83length (m)	temperature (°C)	Stokes	anti-Stokes-747.200	-200.000	0.038	0.269
-746.185	724.636	-0.163	0.438
-745.171	-95.652	0.191	-0.052
-744.156	245.585	0.065	0.110
-743.142	23.262	0.167	-0.139
-742.127	800.000	-0.058	0.187
-741.112	-35.093	0.140	0.077
-740.098	800.000	-0.026	0.109
-739.083	-147.091	0.071	0.006
-738.069	-200.000	0.037	0.274
-737.054	800.000	-0.051	0.183
-736.039	-145.496	-0.597	-0.054
-735.025	243.209	0.087	0.147
-734.010	-108.759	-0.070	-0.015
-732.996	123.026	-0.184	-0.232
-731.981	396.822	0.103	-0.217
-730.966	-200.000	0.035	0.240
-729.952	800.000	0.105	-0.316
-728.937	248.705	0.156	0.266
-727.923	-103.924	-0.144	-0.034
-726.908	286.001	-0.155	0.282
-725.894	-36.339	0.095	-0.051
-724.879	270.029	-0.189	-0.335
-723.864	-43.633	-0.309	0.157
-722.850	-116.676	-0.135	0.025
-721.835	-60.514	0.142	-0.061
-720.821	-127.151	0.153	-0.023
-719.806	708.535	-0.056	0.150
-718.791	-39.326	-0.186	-0.099
-717.777	-50.290	-0.110	0.052
-716.762	19.344	0.120	-0.097
-715.748	-68.546	0.214	-0.084
-714.733	-194.995	-0.324	-0.003
-713.718	-200.000	0.004	0.111
-712.704	741.909	-0.090	0.244
-711.689	66.726	0.080	-0.082
-710.675	-131.877	-0.342	-0.045
-709.660	800.000	-0.042	-0.184
-708.645	-7.609	0.269	0.184
-707.631	800.000	-0.080	-0.331
-706.616	276.488	0.094	-0.168
-705.602	470.700	0.043	-0.097
-704.587	-200.000	-0.009	0.068
-703.572	44.960	0.045	0.042
-702.558	-200.000	-0.028	-0.437
-701.543	-200.000	-0.015	0.094
-700.529	-200.000	0.026	0.207
-699.514	-164.334	0.341	0.016
-698.499	-18.826	-0.184	-0.116
-697.485	-130.803	-0.381	0.052
-696.470	-200.000	-0.057	0.413
-695.456	-200.000	0.022	0.102
-694.441	-14.284	-0.213	-0.138
-693.426	551.317	0.061	0.147
-692.412	-183.714	-0.225	0.004
-691.397	-85.996	-0.217	-0.068
-690.383	-200.000	-0.081	0.467
-689.368	-62.083	-0.179	-0.075
-688.354	-7.791	-0.061	-0.041
-687.339	800.000	0.084	0.290
-686.324	-121.566	-0.208	-0.035
-685.310	184.144	0.122	0.182
-684.295	634.493	0.114	-0.291
-683.281	40.684	-0.147	0.134
-682.266	17.738	0.207	-0.166
-681.251	16.085	-0.159	-0.126
-680.237	-130.620	-0.353	0.048
-679.222	-200.000	-0.004	-0.056
-678.208	124.360	0.155	0.197
-677.193	-200.000	-0.006	-0.033
-676.178	-103.581	0.318	0.075
-675.164	29.712	0.148	0.127
-674.149	-200.000	-0.038	0.309
-673.135	-200.000	-0.014	0.111
-672.120	-200.000	-0.009	0.221
-671.105	-61.275	-0.114	-0.048
-670.091	136.702	0.218	-0.287
-669.076	-200.000	-0.021	0.131
-668.062	430.106	0.146	0.318
-667.047	-146.373	-0.160	0.014
-666.032	-128.945	0.340	-0.048
-665.018	72.767	-0.116	0.122
-664.003	-124.937	-0.317	-0.049
-662.989	758.867	-0.155	0.424
-661.974	-114.432	-0.089	-0.017
-660.959	-105.171	0.368	0.085
-659.945	-1.989	0.118	-0.083
-658.930	-120.940	-0.387	-0.066
-657.916	-166.043	-0.222	0.010
-656.901	391.899	0.073	0.152
-655.886	-33.481	-0.207	0.115
-654.872	-117.812	0.114	0.021
-653.857	-151.222	-0.173	-0.013
-652.843	65.645	-0.290	-0.296
-651.828	-126.969	0.267	-0.039
-650.814	800.000	-0.086	0.356
-649.799	-145.114	-0.225	-0.021
-648.784	220.840	-0.222	-0.358
-647.770	-200.000	0.026	-0.266
-646.755	-200.000	0.004	0.042
-645.741	-27.181	0.531	-0.311
-644.726	118.251	-0.106	-0.131
-643.711	9.070	0.448	-0.340
-642.697	32.666	0.011	0.010
-641.682	-1.610	0.107	-0.076
-640.668	383.830	-0.124	-0.258
-639.653	32.932	-0.074	0.065
-638.638	-72.204	-0.308	0.115
-637.624	-200.000	0.070	0.318
-636.609	62.369	-0.166	-0.167
-635.595	800.000	-0.096	0.266
-634.580	10.706	-0.119	0.091
-633.565	27.353	0.098	-0.083
-632.551	-1.903	-0.382	0.270
-631.536	102.656	0.139	0.163
-630.522	-174.233	-0.148	0.004
-629.507	21.620	-0.222	-0.182
-628.492	778.268	-0.078	0.215
-627.478	-25.991	-0.302	-0.179
-626.463	104.074	0.013	0.015
-625.449	-200.000	0.022	0.113
-624.434	-130.362	-0.297	0.041
-623.419	800.000	-0.090	-0.316
-622.405	-144.880	0.120	0.011
-621.390	-132.278	-0.160	-0.021
-620.376	321.859	-0.109	0.209
-619.361	-200.000	0.003	-0.237
-618.346	86.641	0.167	0.185
-617.332	31.595	0.163	0.141
-616.317	800.000	-0.041	0.177
-615.303	800.000	0.050	-0.146
-614.288	58.126	0.196	0.193
-613.273	776.850	0.102	0.279
-612.259	722.535	-0.006	0.017
-611.244	-141.400	-0.105	-0.011
-610.230	246.446	0.104	-0.176
-609.215	-111.143	0.330	-0.068
-608.201	139.484	0.069	0.092
-607.186	-200.000	0.007	-0.079
-606.171	291.110	-0.071	0.130
-605.157	-118.965	0.116	0.020
-604.142	1.585	0.109	-0.079
-603.128	800.000	-0.075	0.326
-602.113	-200.000	0.058	0.266
-601.098	-200.000	-0.008	-0.043
-600.084	-22.152	-0.329	-0.200
-599.069	-35.999	-0.280	-0.152
-598.055	-86.541	0.096	0.030
-597.040	68.306	-0.147	0.151
-596.025	800.000	0.024	0.093
-595.011	-72.441	-0.303	-0.112
-593.996	75.917	-0.107	-0.114
-592.982	-99.972	0.480	0.120
-591.967	-200.000	-0.016	-0.213
-590.952	24.203	-0.122	0.101
-589.938	-132.126	-0.265	0.035
-588.923	-200.000	-0.005	-0.103
-587.909	-200.000	0.058	-0.287
-586.894	84.757	0.065	-0.072
-585.879	112.203	0.094	-0.114
-584.865	-47.957	0.351	-0.170
-583.850	-75.214	0.352	0.126
-582.836	-12.006	0.205	-0.135
-581.821	800.000	0.047	0.201
-580.806	221.590	-0.111	0.178
-579.792	80.162	-0.187	0.202
-578.777	-200.000	-0.054	0.415
-577.763	-200.000	-0.035	0.171
-576.748	308.379	-0.174	0.326
-575.733	177.113	0.173	0.253
-574.719	-38.075	0.208	0.111
-573.704	-16.816	-0.217	-0.138
-572.690	-157.957	0.118	0.007
-571.675	800.000	-0.152	0.444
-570.661	-37.896	-0.190	-0.101
-569.646	-7.879	-0.164	-0.111
-568.631	39.721	0.268	0.241
-567.617	198.356	0.160	-0.246
-566.602	-6.401	-0.299	-0.204
-565.588	582.045	-0.109	0.268
-564.573	100.770	-0.073	-0.085
-563.558	-25.531	0.199	-0.118
-562.544	-109.109	-0.337	0.072
-561.529	-106.393	-0.299	-0.067
-560.515	-114.338	-0.333	-0.064
-559.500	-200.000	0.034	-0.232
-558.485	139.057	0.047	0.061
-557.471	800.000	-0.032	0.099
-556.456	133.089	-0.140	0.181
-555.442	-200.000	0.028	-0.351
-554.427	224.241	0.142	0.231
-553.412	-48.050	0.194	0.094
-552.398	-133.293	-0.134	0.017
-551.383	-19.142	-0.306	0.190
-550.369	-200.000	-0.008	0.141
-549.354	-37.297	-0.245	-0.131
-548.339	-200.000	0.008	0.094
-547.325	-200.000	-0.000	-0.521
-546.310	-92.727	-0.160	-0.045
-545.296	127.327	-0.048	-0.061
-544.281	-109.682	-0.083	-0.017
-543.266	-90.091	0.282	0.082
-542.252	-163.382	-0.304	-0.015
-541.237	48.164	0.254	0.238
-540.223	553.015	-0.069	-0.165
-539.208	42.779	-0.121	-0.111
-538.193	2.504	-0.305	0.221
-537.179	-112.999	0.080	-0.016
-536.164	213.272	0.179	-0.284
-535.150	800.000	0.040	-0.168
-534.135	132.510	0.186	-0.240
-533.121	-131.457	0.111	-0.015
-532.106	325.155	0.018	0.034
-531.091	-177.940	-0.148	-0.004
-530.077	315.646	-0.080	-0.151
-529.062	-117.476	-0.230	0.042
-528.048	-200.000	-0.021	-0.266
-527.033	-115.551	0.382	0.072
-526.018	800.000	-0.078	-0.264
-525.004	785.934	0.140	-0.385
-523.989	44.177	0.273	0.251
-522.975	-29.258	-0.051	-0.029
-521.960	-123.892	0.213	-0.034
-520.945	-103.386	-0.330	-0.078
-519.931	147.287	-0.019	-0.025
-518.916	-8.090	-0.117	0.079
-517.902	70.141	-0.080	-0.083
-516.887	800.000	0.058	-0.240
-515.872	-9.531	-0.294	0.196
-514.858	448.980	-0.046	-0.102
-513.843	51.004	0.096	-0.092
-512.829	-31.282	-0.120	0.068
-511.814	44.362	-0.078	-0.072
-510.799	-200.000	0.003	0.156
-509.785	-147.891	-0.267	0.022
-508.770	800.000	-0.068	-0.262
-507.756	800.000	-0.081	0.252
-506.741	45.471	-0.100	-0.092
-505.726	-6.863	0.070	0.048
-504.712	-116.852	-0.172	-0.031
-503.697	-20.681	0.210	-0.129
-502.683	-158.099	-0.167	0.010
-501.668	-128.754	0.341	0.048
-500.653	-11.464	0.241	0.158
-499.639	-85.506	-0.318	-0.099
-498.624	266.027	-0.052	0.090
-497.610	800.000	-0.073	-0.223
-496.595	-200.000	-0.009	0.080
-495.581	-166.590	-0.257	0.011
-494.566	226.246	0.104	-0.168
-493.551	-106.324	-0.056	-0.012
-492.537	138.644	-0.183	0.240
-491.522	-127.338	0.263	-0.038
-490.508	-37.772	0.057	0.030
-489.493	-200.000	0.022	-0.157
-488.478	-110.056	0.131	-0.027
-487.464	-200.000	-0.034	0.179
-486.449	-149.893	-0.165	-0.013
-485.435	-19.590	0.181	0.112
-484.420	-152.056	-0.251	0.018
-483.405	-102.142	-0.214	0.052
-482.391	37.948	-0.030	-0.027
-481.376	-200.000	0.003	0.171
-480.362	232.075	-0.050	0.083
-479.347	800.000	0.040	-0.131
-478.332	136.032	0.082	-0.106
-477.318	614.339	0.018	-0.045
-476.303	-200.000	0.010	0.084
-475.289	-134.612	-0.070	0.008
-474.274	445.708	0.086	0.190
-473.259	347.813	0.107	0.210
-472.245	-200.000	0.001	0.160
-471.230	-92.881	0.361	-0.101
-470.216	-200.000	-0.017	-0.435
-469.201	4.780	-0.101	-0.074
-468.186	228.587	-0.113	-0.184
-467.172	800.000	-0.089	-0.311
-466.157	136.189	0.153	-0.200
-465.143	-134.692	0.435	0.053
-464.128	137.948	0.086	0.113
-463.113	-200.000	-0.033	-0.245
-462.099	-74.163	0.158	-0.057
-461.084	-200.000	0.112	-0.512
-460.070	147.017	0.133	-0.179
-459.055	-115.069	0.255	0.048
-458.040	139.594	-0.210	0.276
-457.026	29.842	-0.059	0.050
-456.011	346.317	0.109	-0.214
-454.997	231.231	0.151	-0.247
-453.982	-200.000	0.043	0.203
-452.968	493.016	-0.136	-0.310
-451.953	-81.354	-0.206	-0.068
-450.938	-200.000	-0.057	0.553
-449.924	-111.648	0.055	-0.011
-448.909	36.917	-0.074	0.066
-447.895	-119.036	0.188	-0.033
-446.880	-58.697	0.276	-0.119
-445.865	199.394	0.113	0.173
-444.851	-83.484	-0.192	0.061
-443.836	-105.846	0.323	-0.073
-442.822	718.489	-0.068	0.181
-441.807	800.000	-0.029	-0.121
-440.792	-200.000	-0.052	-0.255
-439.778	-65.057	-0.303	-0.122
-438.763	-99.893	-0.137	-0.034
-437.749	114.665	0.076	0.092
-436.734	122.768	-0.226	0.282
-435.719	-200.000	-0.044	0.365
-434.705	-200.000	0.106	0.521
-433.690	-81.528	-0.103	0.034
-432.676	-62.258	0.237	-0.099
-431.661	503.241	-0.115	-0.265
-430.646	-1.420	-0.211	-0.149
-429.632	87.322	0.347	0.382
-428.617	-200.000	0.033	0.278
-427.603	42.146	-0.201	-0.182
-426.588	4.627	0.346	0.253
-425.573	-152.728	0.399	-0.028
-424.559	800.000	0.058	0.193
-423.544	-200.000	0.057	-0.328
-422.530	70.438	-0.083	0.086
-421.515	-29.616	0.096	-0.055
-420.500	800.000	0.057	0.244
-419.486	-200.000	0.065	0.384
-418.471	-140.663	-0.112	0.012
-417.457	26.661	0.321	0.268
-416.442	-78.151	-0.116	0.040
-415.428	-70.270	0.189	0.072
-414.413	20.390	-0.028	0.023
-413.398	33.836	0.077	0.067
-412.384	-49.676	-0.416	-0.197
-411.369	-200.000	-0.017	-0.161
-410.355	-200.000	0.042	-0.198
-409.340	291.974	-0.140	-0.254
-408.325	-66.249	0.176	0.070
-407.311	-10.486	-0.115	-0.076
-406.296	-152.884	-0.291	0.020
-405.282	-200.000	-0.018	0.127
-404.267	-200.000	0.013	0.075
-403.252	-130.096	0.076	-0.010
-402.238	-178.111	-0.150	-0.004
-401.223	-148.524	-0.182	0.015
-400.209	800.000	-0.075	-0.275
-399.194	-141.963	0.285	-0.028
-398.179	-200.000	-0.004	-0.030
-397.165	118.930	0.246	0.303
-396.150	7.570	0.305	0.227
-395.136	-77.271	-0.146	0.051
-394.121	-166.313	-0.107	0.004
-393.106	1.003	0.441	-0.315
-392.092	-85.200	0.141	-0.044
-391.077	-95.149	0.129	0.035
-390.063	-200.000	-0.086	-0.423
-389.048	-27.267	0.216	0.125
-388.033	-200.000	0.064	0.281
-387.019	408.835	0.063	-0.132
-386.004	-114.665	0.150	-0.029
-384.990	174.719	0.088	-0.127
-383.975	-88.749	-0.134	0.040
-382.960	-46.317	-0.468	-0.229
-381.946	-200.000	-0.005	-0.058
-380.931	-59.772	-0.134	0.057
-379.917	-200.000	0.006	-0.095
-378.902	341.312	0.229	-0.446
-377.888	282.451	-0.019	-0.033
-376.873	-119.027	0.311	-0.054
-375.858	61.505	-0.074	-0.073
-374.844	-125.494	0.167	-0.025
-373.829	-200.000	-0.370	-0.001
-372.815	147.500	0.066	0.088
-371.800	-150.703	0.067	0.005
-370.785	134.922	-0.138	-0.178
-369.771	242.908	-0.077	-0.129
-368.756	-104.546	-0.240	-0.055
-367.742	-89.304	0.105	0.031
-366.727	-94.641	0.169	-0.046
-365.712	-200.000	0.068	-0.426
-364.698	10.907	0.292	0.222
-363.683	79.784	-0.256	0.273
-362.669	118.262	0.123	0.150
-361.654	-115.044	-0.264	0.050
-360.639	7.603	0.162	0.121
-359.625	-166.616	-0.334	0.014
-358.610	60.689	-0.078	-0.077
-357.596	-200.000	-0.005	-0.182
-356.581	-128.137	-0.246	0.035
-355.566	-52.516	0.185	-0.085
-354.552	223.657	0.151	0.243
-353.537	111.751	-0.155	0.186
-352.523	-200.000	-0.009	0.161
-351.508	85.919	0.231	-0.253
-350.493	800.000	0.130	-0.398
-349.479	44.559	0.224	0.205
-348.464	272.035	-0.091	0.159
-347.450	-88.273	0.103	0.031
-346.435	244.608	0.146	-0.244
-345.420	800.000	0.048	0.137
-344.406	208.203	0.046	0.071
-343.391	-35.409	-0.218	0.118
-342.377	-65.063	-0.302	-0.121
-341.362	211.107	0.174	-0.272
-340.348	8.414	0.163	0.122
-339.333	98.317	-0.315	-0.361
-338.318	-200.000	0.024	0.182
-337.304	262.201	0.132	-0.227
-336.289	-200.000	0.001	0.378
-335.275	800.000	-0.065	0.275
-334.260	-200.000	0.013	0.182
-333.245	-111.679	0.186	0.037
-332.231	-136.140	-0.173	-0.020
-331.216	156.881	-0.138	0.189
-330.202	296.837	0.123	-0.224
-329.187	-89.974	-0.160	0.046
-328.172	-40.535	0.367	0.189
-327.158	-35.311	-0.087	0.047
-326.143	1.718	-0.220	0.158
-325.129	46.337	0.145	0.133
-324.114	-200.000	0.027	-0.129
-323.099	405.122	0.156	0.326
-322.085	-179.794	-0.140	0.003
-321.070	-90.931	-0.161	-0.046
-320.056	164.850	0.078	0.110
-319.041	1.676	0.182	-0.130
-318.026	316.507	-0.151	0.283
-317.012	800.000	-0.037	-0.120
-315.997	-44.131	-0.171	-0.085
-314.983	113.480	-0.220	0.265
-313.968	283.055	0.264	-0.471
-312.953	-144.848	0.240	0.022
-311.939	104.634	0.232	-0.271
-310.924	-90.649	-0.258	0.074
-309.910	-200.000	0.028	-0.231
-308.895	800.000	0.021	0.070
-307.880	-141.333	0.311	0.031
-306.866	-116.374	-0.243	-0.045
-305.851	415.708	-0.226	-0.478
-304.837	-200.000	-0.012	0.168
-303.822	789.122	0.140	0.383
-302.807	227.741	0.115	-0.186
-301.793	151.039	0.148	-0.199
-300.778	-65.484	-0.247	0.099
-299.764	-98.055	-0.213	0.054
-298.749	800.000	0.099	0.288
-297.735	-32.664	-0.084	-0.047
-296.720	800.000	-0.148	0.471
-295.705	370.003	-0.152	-0.305
-294.691	-200.000	-0.049	0.248
-293.676	-168.372	0.230	0.009
-292.662	-73.748	-0.084	-0.030
-291.647	640.773	-0.078	-0.198
-290.632	-24.707	0.296	0.175
-289.618	195.617	0.137	0.207
-288.603	340.611	0.221	-0.428
-287.589	10.712	0.233	0.176
-286.574	76.457	-0.096	0.101
-285.559	90.553	-0.180	-0.200
-284.545	-95.221	-0.292	-0.078
-283.530	90.277	0.088	-0.098
-282.516	103.595	-0.228	-0.265
-281.501	-93.833	-0.232	0.063
-280.486	-34.434	0.217	-0.118
-279.472	-19.032	-0.439	0.271
-278.457	316.117	0.140	-0.261
-277.443	42.554	0.141	0.127
-276.428	17.971	0.127	0.100
-275.413	-1.463	-0.204	-0.143
-274.399	-74.851	0.347	-0.124
-273.384	-86.651	-0.256	-0.078
-272.370	-136.905	-0.099	-0.011
-271.355	352.049	-0.201	0.394
-270.340	-53.468	-0.206	-0.093
-269.326	-38.630	0.231	-0.121
-268.311	-200.000	-0.030	-0.148
-267.297	800.000	0.157	-0.480
-266.282	-18.577	-0.425	-0.263
-265.267	534.945	0.031	0.072
-264.253	800.000	0.061	0.173
-263.238	-200.000	0.044	0.229
-262.224	-167.808	0.221	0.009
-261.209	138.174	0.037	-0.048
-260.195	-94.737	0.276	-0.074
-259.180	-68.491	-0.320	-0.123
-258.165	99.447	-0.085	0.097
-257.151	186.326	0.047	-0.070
-256.136	267.969	0.039	-0.069
-255.122	-200.000	0.040	0.197
-254.107	800.000	-0.087	0.306
-253.092	-144.508	0.528	0.048
-252.078	-200.000	0.025	0.215
-251.063	-32.561	0.077	0.042
-250.049	-200.000	-0.002	0.165
-249.034	-105.265	0.406	0.092
-248.019	17.036	0.233	0.183
-247.005	119.645	-0.263	-0.323
-245.990	42.591	-0.314	0.283
-244.976	-36.397	0.342	0.182
-243.961	549.100	0.033	-0.078
-242.946	-200.000	-0.030	-0.388
-241.932	228.360	-0.132	0.212
-240.917	-200.000	0.002	0.123
-239.903	176.053	-0.189	-0.272
-238.888	-89.383	-0.240	0.070
-237.873	469.686	0.044	0.097
-236.859	-49.915	-0.070	-0.033
-235.844	-79.568	-0.160	-0.054
-234.830	-200.000	-0.033	-0.283
-233.815	165.026	-0.104	0.145
-232.800	800.000	0.058	0.200
-231.786	-200.000	-0.012	-0.426
-230.771	39.530	-0.140	-0.124
-229.757	-47.259	0.265	0.128
-228.742	-97.000	0.140	-0.036
-227.727	-40.682	0.043	-0.022
-226.713	-134.949	-0.269	0.032
-225.698	-66.447	0.266	0.104
-224.684	315.998	-0.164	0.307
-223.669	-58.341	0.079	-0.034
-222.655	269.341	-0.169	0.294
-221.640	794.404	0.119	-0.324
-220.625	-27.420	-0.373	0.214
-219.611	-21.420	0.108	-0.065
-218.596	-112.789	0.222	0.044
-217.582	800.000	0.057	-0.196
-216.567	81.124	-0.302	-0.322
-215.552	-200.000	-0.093	-0.419
-214.538	71.114	-0.108	-0.111
-213.523	-106.809	0.251	0.055
-212.509	-165.941	0.087	-0.004
-211.494	-200.000	0.026	0.426
-210.479	-200.000	-0.035	-0.294
-209.465	427.757	-0.215	-0.459
-208.450	380.606	0.029	-0.058
-207.436	-20.822	0.088	-0.054
-206.421	-200.000	0.032	0.222
-205.406	-110.864	0.209	0.042
-204.392	1.049	0.041	0.029
-203.377	204.609	0.072	-0.110
-202.363	800.000	0.043	-0.135
-201.348	-200.000	-0.046	0.340
-200.333	-50.131	0.334	0.156
-199.319	-75.871	0.398	0.139
-198.304	-200.000	-0.010	-0.096
-197.290	-174.078	-0.071	-0.002
-196.275	-178.414	-0.291	0.007
-195.260	171.207	-0.066	-0.094
-194.246	-54.722	-0.196	0.088
-193.231	-61.881	0.453	0.187
-192.217	15.941	-0.301	-0.234
-191.202	-106.733	0.237	-0.052
-190.187	-200.000	-0.002	-0.112
-189.173	-200.000	0.004	0.110
-188.158	172.955	0.206	-0.293
-187.144	-200.000	0.021	-0.143
-186.129	57.511	0.092	0.089
-185.114	160.177	0.250	0.344
-184.100	376.250	0.069	-0.138
-183.085	9.117	0.188	-0.141
-182.071	40.119	0.068	0.061
-181.056	463.437	0.059	0.131
-180.042	-41.011	-0.180	-0.092
-179.027	-62.173	-0.311	0.128
-178.012	-200.000	0.041	0.257
-176.998	-200.000	0.037	-0.201
-175.983	98.757	0.126	0.143
-174.969	-121.498	-0.287	-0.047
-173.954	218.802	0.177	0.279
-172.939	210.373	-0.105	-0.162
-171.925	-124.344	-0.330	-0.051
-170.910	-194.894	0.119	0.001
-169.896	602.341	0.169	0.415
-168.881	221.230	-0.089	0.141
-167.866	281.560	-0.163	0.288
-166.852	-60.535	-0.058	0.025
-165.837	800.000	-0.090	0.276
-164.823	41.969	0.069	-0.062
-163.808	800.000	-0.087	-0.239
-162.793	166.262	0.248	0.347
-161.779	-43.841	0.058	0.029
-160.764	4.851	-0.150	-0.109
-159.750	800.000	-0.038	0.142
-158.735	-16.299	-0.209	-0.131
-157.720	587.375	0.147	0.358
-156.706	-45.574	-0.101	0.050
-155.691	-125.415	0.184	0.028
-154.677	-42.694	0.237	-0.119
-153.662	184.000	0.056	0.082
-152.647	-200.000	-0.003	-0.105
-151.633	31.329	0.134	-0.113
-150.618	800.000	-0.028	0.115
-149.604	-200.000	-0.032	-0.199
-148.589	-200.000	0.016	-0.080
-147.574	135.398	-0.188	0.241
-146.560	409.275	0.136	-0.284
-145.545	11.618	0.167	-0.126
-144.531	-132.092	0.328	0.042
-143.516	-61.396	0.286	0.119
-142.502	-200.000	-0.038	-0.292
-141.487	-85.941	0.248	0.076
-140.472	800.000	0.082	0.271
-139.458	-200.000	-0.005	0.050
-138.443	-30.077	0.311	0.175
-137.429	-52.178	-0.248	-0.114
-136.414	-200.000	0.003	0.117
-135.399	-200.000	-0.020	-0.165
-134.385	-200.000	-0.031	0.414
-133.370	-12.855	0.272	0.175
-132.356	51.114	0.165	0.154
-131.341	-200.000	0.017	0.234
-130.326	-75.902	0.093	-0.032
-129.312	-200.000	-0.021	-0.103
-128.297	-35.599	0.446	-0.239
-127.283	-145.678	-0.126	-0.011
-126.268	239.976	0.070	0.115
-125.253	-135.824	-0.256	0.030
-124.239	28.952	-0.104	0.087
-123.224	-200.000	-0.028	0.285
-122.210	-64.174	0.241	0.097
-121.195	-22.208	-0.203	0.122
-120.180	-119.372	0.349	-0.060
-119.166	-67.120	-0.382	-0.148
-118.151	-74.317	0.075	0.027
-117.137	-26.780	-0.039	0.022
-116.122	-44.176	-0.060	0.030
-115.107	221.543	0.034	0.054
-114.093	-200.000	-0.032	0.295
-113.078	185.222	-0.125	0.183
-112.064	262.029	0.057	-0.098
-111.049	-9.279	0.036	0.024
-110.034	-200.000	0.029	-0.199
-109.020	15.115	0.152	-0.117
-108.005	68.871	0.025	0.025
-106.991	-116.451	0.274	-0.050
-105.976	-61.516	0.220	0.091
-104.962	-83.802	0.067	-0.021
-103.947	-200.000	0.152	-0.000
-102.932	800.000	-0.070	-0.238
-101.918	39.256	-0.164	-0.144
-100.903	-200.000	-0.006	0.166
-99.889	168.837	-0.095	0.134
-98.874	-86.637	-0.252	-0.076
-97.859	707.383	0.062	-0.162
-96.845	-75.870	0.307	0.107
-95.830	207.102	0.156	0.239
-94.816	-137.993	0.347	-0.038
-93.801	-114.781	0.228	0.043
-92.786	33.688	0.255	0.218
-91.772	-200.000	0.060	-0.392
-90.757	178.867	-0.151	0.218
-89.743	-174.429	0.083	-0.002
-88.728	205.068	-0.152	0.232
-87.713	-85.647	0.210	0.064
-86.699	-200.000	0.001	0.178
-85.684	223.942	-0.171	-0.271
-84.670	23.309	-0.183	0.148
-83.655	-74.329	0.171	-0.061
-82.640	-200.000	0.027	-0.611
-81.626	261.302	-0.266	-0.453
-80.611	-114.472	0.152	0.029
-79.597	781.914	0.042	0.113
-78.582	114.180	-0.178	0.213
-77.567	-45.795	0.181	0.088
-76.553	-70.675	0.091	0.034
-75.538	-127.298	-0.228	-0.033
-74.524	-51.167	0.357	0.164
-73.509	800.000	-0.124	0.351
-72.494	-122.822	0.110	0.018
-71.480	-105.916	-0.453	0.100
-70.465	-186.678	-0.287	-0.004
-69.451	693.127	0.068	0.176
-68.436	82.191	-0.236	0.252
-67.422	29.090	0.217	-0.181
-66.407	-200.000	0.012	-0.141
-65.392	183.763	-0.096	-0.139
-64.378	-33.167	0.285	0.155
-63.363	-125.091	0.498	0.075
-62.349	-107.780	-0.064	-0.014
-61.334	204.088	-0.778	-1.185
-60.319	236.895	0.393	0.640
-59.305	800.000	-0.328	-1.005
-58.290	236.347	0.807	1.312
-57.276	346.142	0.876	1.693
-56.261	-200.000	106.042	578.229
-55.246	454.281	1461.751	3182.822
-54.232	148.957	2645.167	3516.279
-53.217	106.498	2157.392	2514.455
-52.203	41.264	1605.356	1426.578
-51.188	33.316	1342.832	1145.385
-50.173	30.214	1301.640	1091.975
-49.159	53.866	1354.768	1279.234
-48.144	54.645	1370.337	1298.561
-47.130	33.463	1325.638	1131.417
-46.115	30.016	1308.237	1096.165
-45.100	29.778	1303.158	1090.461
-44.086	29.785	1300.854	1088.533
-43.071	29.775	1298.692	1086.625
-42.057	29.618	1296.389	1083.734
-41.042	29.723	1294.907	1083.063
-40.027	29.745	1293.674	1082.117
-39.013	29.684	1291.509	1079.908
-37.998	29.756	1289.820	1078.872
-36.984	29.838	1287.713	1077.549
-35.969	29.838	1286.168	1076.211
-34.954	29.818	1284.734	1074.853
-33.940	29.781	1283.602	1073.646
-32.925	29.751	1282.445	1072.462
-31.911	29.896	1280.384	1071.534
-30.896	29.912	1279.218	1070.613
-29.881	29.973	1277.698	1069.652
-28.867	29.929	1275.919	1067.864
-27.852	29.956	1274.763	1067.007
-26.838	29.998	1273.501	1066.151
-25.823	29.924	1271.980	1064.411
-24.809	29.860	1270.858	1063.061
-23.794	29.948	1269.611	1062.481
-22.779	29.903	1268.349	1061.124
-21.765	29.850	1267.095	1059.730
-20.750	29.801	1266.197	1058.656
-19.736	29.765	1264.600	1057.073
-18.721	29.868	1263.457	1056.668
-17.706	29.839	1262.187	1055.393
-16.692	29.790	1260.848	1053.954
-15.677	29.680	1259.983	1052.563
-14.663	29.763	1258.740	1051.958
-13.648	29.697	1257.762	1050.722
-12.633	29.783	1256.712	1050.290
-11.619	29.756	1255.917	1049.431
-10.604	29.694	1255.177	1048.419
-9.590	29.745	1253.919	1047.616
-8.575	29.760	1253.350	1047.185
-7.560	29.822	1251.849	1046.239
-6.546	29.703	1251.164	1044.951
-5.531	29.767	1250.441	1044.668
-4.517	29.714	1249.634	1043.655
-3.502	29.836	1248.841	1043.638
-2.487	29.864	1247.487	1042.625
-1.473	29.824	1243.619	1039.127
-0.458	28.405	1228.906	1018.910
0.556	23.288	1212.778	982.956
1.571	19.890	1219.500	969.315
2.586	19.067	1234.373	976.382
3.600	18.809	1223.560	966.295
4.615	13.963	1150.154	882.555
5.629	4.896	1073.516	778.539
6.644	0.502	1053.804	742.587
7.659	0.058	1051.692	738.854
8.673	-0.088	1050.403	737.164
9.688	0.030	1048.770	736.532
10.702	0.240	1047.185	736.380
11.717	5.641	1054.098	767.704
12.731	14.214	1065.949	818.600
13.746	17.789	1068.980	838.455
14.761	17.069	1067.675	833.823
15.775	15.901	1065.882	826.619
16.790	15.024	1063.672	820.534
17.804	14.388	1062.017	816.071
18.819	13.908	1061.351	813.138
19.834	13.628	1060.216	810.826
20.848	13.465	1059.292	809.251
21.863	13.157	1057.890	806.603
22.877	13.146	1057.212	805.962
23.892	13.163	1056.539	805.461
24.907	12.976	1056.144	804.177
25.921	13.149	1055.132	804.180
26.936	13.260	1053.883	803.694
27.950	13.193	1053.270	802.828
28.965	13.260	1052.337	802.375
29.980	13.285	1050.969	801.381
30.994	13.390	1050.005	801.083
32.009	13.243	1048.962	799.507
33.023	13.296	1048.101	799.032
34.038	13.203	1046.722	797.465
35.053	13.180	1045.991	796.725
36.067	13.208	1045.304	796.266
37.082	13.229	1044.244	795.489
38.096	13.276	1043.989	795.449
39.111	13.247	1042.770	794.311
40.126	13.229	1041.900	793.495
41.140	13.115	1040.929	792.136
42.155	13.004	1039.948	790.787
43.169	13.108	1038.539	790.145
44.184	12.959	1037.390	788.488
45.199	13.067	1036.469	788.233
46.213	13.142	1035.145	787.517
47.228	13.248	1034.330	787.328
48.242	13.152	1033.356	786.060
49.257	13.158	1032.176	785.122
50.271	13.199	1031.763	784.934
51.286	13.138	1030.957	783.963
52.301	13.304	1029.575	783.629
53.315	13.057	1028.844	781.832
54.330	13.078	1027.567	780.893
55.344	13.094	1026.641	780.195
56.359	13.055	1025.854	779.344
57.374	12.899	1025.507	778.276
58.388	13.059	1023.644	777.547
59.403	13.023	1023.409	777.129
60.417	13.029	1022.414	776.334
61.432	13.105	1021.351	775.818
62.447	12.916	1021.246	774.778
63.461	12.928	1020.023	773.841
64.476	13.036	1019.096	773.573
65.490	13.024	1018.472	772.974
66.505	12.992	1017.820	772.263
67.520	12.994	1016.883	771.494
68.534	13.049	1016.327	771.261
69.549	12.955	1016.150	770.616
70.563	13.061	1014.964	770.145
71.578	12.994	1014.154	769.151
72.593	12.970	1013.468	768.451
73.607	12.897	1013.088	767.755
74.622	12.904	1012.382	767.183
75.636	13.033	1011.107	766.747
76.651	12.842	1010.683	765.472
77.666	12.865	1010.640	765.477
78.680	12.969	1009.644	765.139
79.695	12.943	1008.660	764.205
80.709	13.047	1008.314	764.358
81.724	13.181	1007.633	764.392
82.739	13.096	1007.095	763.525
83.753	13.202	1005.924	763.059
84.768	13.287	1004.941	762.637
85.782	13.335	1004.030	762.098
86.797	13.201	1003.872	761.295
87.812	13.218	1002.480	760.250
88.826	13.021	1001.955	758.878
89.841	13.131	1001.083	758.657
90.855	13.245	999.984	758.281
91.870	13.370	998.885	757.950
92.884	13.359	998.364	757.440
93.899	13.330	997.364	756.481
94.914	13.393	996.317	755.906
95.928	13.303	995.644	754.919
96.943	13.348	994.695	754.339
97.957	13.355	994.282	753.989
98.972	13.218	993.405	752.637
99.987	13.204	992.351	751.706
101.001	13.360	991.088	751.389
102.016	13.365	990.553	750.943
103.030	13.245	989.658	749.652
104.045	13.201	989.304	749.117
105.060	13.248	988.302	748.509
106.074	13.201	987.377	747.527
107.089	13.111	986.616	746.480
108.103	13.177	985.332	745.739
109.118	13.112	984.742	744.933
110.133	13.003	983.848	743.697
111.147	13.113	983.259	743.683
112.162	13.123	982.250	742.901
113.176	13.225	981.147	742.459
114.191	13.240	980.520	741.987
115.206	13.182	980.016	741.280
116.220	13.207	979.074	740.611
117.235	13.209	977.839	739.623
118.249	13.222	976.958	738.948
119.264	13.259	976.308	738.557
120.279	13.113	975.946	737.565
121.293	13.213	974.758	737.046
122.308	12.942	974.429	735.525
123.322	13.120	972.924	735.116
124.337	13.359	971.653	735.153
125.352	13.085	970.609	733.081
126.366	13.205	969.432	732.661
127.381	13.065	968.784	731.487
128.395	13.131	968.140	731.228
129.410	13.244	966.953	730.766
130.424	13.219	966.293	730.090
131.439	13.197	965.445	729.289
132.454	13.250	964.980	729.107
133.468	13.257	963.919	728.272
134.483	13.233	962.746	727.216
135.497	13.174	962.172	726.456
136.512	13.280	961.271	726.177
137.527	13.285	960.419	725.494
138.541	13.222	959.655	724.575
139.556	13.190	959.126	723.973
140.570	13.471	958.142	724.397
141.585	13.303	957.639	723.217
142.600	13.338	957.103	722.898
143.614	13.356	955.833	721.956
144.629	13.509	954.843	721.809
145.643	13.306	954.264	720.423
146.658	13.315	952.956	719.414
147.673	13.231	952.417	718.580
148.687	13.247	951.451	717.854
149.702	13.164	950.830	716.963
150.716	13.209	950.103	716.548
151.731	13.390	949.255	716.627
152.746	13.251	948.753	715.581
153.760	13.266	947.939	714.970
154.775	13.312	947.570	714.827
155.789	13.428	946.862	714.732
156.804	13.435	946.117	714.138
157.819	13.531	945.396	713.944
158.833	13.569	944.847	713.629
159.848	13.529	943.853	712.644
160.862	13.569	942.906	712.034
161.877	13.539	941.777	710.994
162.892	13.416	941.310	710.049
163.906	13.340	940.517	709.063
164.921	13.413	939.312	708.404
165.935	13.356	938.491	707.480
166.950	13.500	937.939	707.612
167.964	13.374	936.995	706.300
168.979	13.415	935.879	705.573
169.994	13.587	935.053	705.618
171.008	13.594	934.117	704.881
172.023	13.539	934.070	704.548
173.037	13.679	933.013	704.284
174.052	13.623	932.349	703.482
175.067	13.471	931.637	702.238
176.081	13.416	931.626	701.937
177.096	13.487	930.872	701.607
178.110	13.518	930.350	701.282
179.125	13.541	929.406	700.604
180.140	13.723	928.801	700.857
181.154	13.615	928.393	700.032
182.169	13.796	927.978	700.421
183.183	13.705	927.466	699.586
184.198	13.637	926.571	698.566
185.213	13.771	925.638	698.363
186.227	13.746	925.100	697.791
187.242	13.836	924.299	697.502
188.256	13.874	923.654	697.112
189.271	13.769	923.352	696.382
190.286	13.751	922.249	695.413
191.300	13.605	921.487	694.166
192.315	13.550	921.202	693.658
193.329	13.515	920.757	693.118
194.344	13.679	919.840	693.050
195.359	13.639	919.418	692.506
196.373	13.815	918.469	692.464
197.388	13.814	918.456	692.389
198.402	13.869	917.793	692.058
199.417	13.976	917.040	691.871
200.432	14.117	916.468	691.967
201.446	13.972	915.988	690.939
202.461	14.023	915.291	690.565
203.475	14.109	914.900	690.564
204.490	13.872	914.427	689.163
205.504	13.771	913.929	688.310
206.519	13.989	912.477	688.058
207.534	13.965	911.837	687.412
208.548	14.077	911.127	687.282
209.563	14.012	910.697	686.627
210.577	14.025	910.142	686.201
211.592	14.048	909.399	685.678
212.607	14.083	908.662	685.204
213.621	14.086	907.769	684.482
214.636	14.184	906.613	683.952
215.650	14.152	906.216	683.463
216.665	14.242	905.949	683.568
217.680	14.204	904.761	682.457
218.694	14.208	904.155	681.955
219.709	14.240	903.383	681.443
220.723	14.099	903.048	680.552
221.738	14.166	902.378	680.262
222.753	14.265	901.772	680.150
223.767	14.283	901.453	679.922
224.782	14.292	900.690	679.326
225.796	14.517	899.937	679.615
226.811	14.365	899.452	678.566
227.826	14.395	898.798	678.134
228.840	14.366	897.562	677.027
229.855	14.373	896.951	676.535
230.869	14.316	896.324	675.772
231.884	14.234	895.671	674.884
232.899	14.438	894.648	674.879
233.913	14.398	894.044	674.203
234.928	14.354	893.381	673.466
235.942	14.292	892.865	672.765
236.957	14.437	892.377	672.924
237.972	14.399	891.802	672.280
238.986	14.348	891.270	671.614
240.001	14.382	890.750	671.296
241.015	14.338	889.623	670.212
242.030	14.287	889.625	669.950
243.045	14.608	888.753	670.524
244.059	14.365	888.452	669.261
245.074	14.526	887.412	669.064
246.088	14.521	886.859	668.569
247.103	14.621	886.163	668.385
248.117	14.633	885.907	668.182
249.132	14.760	885.097	668.020
250.147	14.740	884.469	667.407
251.161	14.811	884.031	667.299
252.176	14.783	883.400	666.654
253.190	14.834	882.595	666.189
254.205	14.884	881.728	665.673
255.220	14.889	881.254	665.277
256.234	14.894	880.509	664.678
257.249	14.815	880.112	664.002
258.263	14.923	879.202	663.686
259.278	14.922	878.667	663.220
260.293	14.939	878.260	662.922
261.307	14.994	877.385	662.422
262.322	15.049	877.000	662.290
263.336	15.022	876.465	661.718
264.351	15.057	875.441	661.025
265.366	15.160	874.731	660.838
266.380	14.973	874.582	659.930
267.395	15.080	873.480	659.463
268.409	15.115	873.064	659.227
269.424	15.075	871.873	658.113
270.439	14.973	871.562	657.418
271.453	15.042	870.593	656.901
272.468	15.008	870.059	656.307
273.482	15.084	869.586	656.189
274.497	15.114	869.207	655.962
275.512	15.084	869.116	655.718
276.526	15.067	868.391	655.047
277.541	15.122	867.377	654.437
278.555	15.211	866.872	654.345
279.570	15.237	866.648	654.221
280.585	15.283	865.967	653.828
281.599	15.295	864.780	652.923
282.614	15.269	864.132	652.272
283.628	15.328	863.628	652.064
284.643	15.273	862.809	651.175
285.657	15.220	862.486	650.666
286.672	15.231	862.047	650.321
287.687	15.301	861.243	649.929
288.701	15.351	860.620	649.596
289.716	15.386	860.156	649.323
290.730	15.362	859.423	648.617
291.745	15.437	858.863	648.430
292.760	15.471	858.497	648.226
293.774	15.425	858.070	647.668
294.789	15.521	857.310	647.407
295.803	15.422	856.652	646.471
296.818	15.279	856.016	645.387
297.833	15.466	855.413	645.592
298.847	15.566	853.897	644.776
299.862	15.483	854.287	644.694
300.876	15.496	853.568	644.144
301.891	15.599	853.065	644.101
302.906	15.675	852.242	643.716
303.920	15.701	851.822	643.440
304.935	15.791	851.245	643.291
305.949	15.591	850.862	642.182
306.964	15.670	850.095	641.848
307.979	15.733	849.661	641.703
308.993	15.802	848.837	641.287
310.008	15.740	848.218	640.526
311.022	15.733	848.064	640.329
312.037	15.697	847.417	639.643
313.052	15.671	846.436	638.747
314.066	15.577	846.403	638.312
315.081	15.614	845.817	637.953
316.095	15.771	844.783	637.710
317.110	15.663	844.435	636.984
318.125	15.658	844.053	636.619
319.139	15.716	843.738	636.543
320.154	15.854	843.171	636.584
321.168	15.856	842.675	636.160
322.183	15.939	841.987	635.895
323.197	15.838	841.466	635.068
324.212	15.726	841.103	634.313
325.227	15.733	840.505	633.834
326.241	15.836	839.830	633.654
327.256	15.781	839.459	633.114
328.270	15.824	838.693	632.642
329.285	15.722	838.346	631.939
330.300	15.762	837.802	631.625
331.314	15.771	837.208	631.154
332.329	15.800	836.842	630.929
333.343	15.888	836.059	630.613
334.358	16.056	835.692	630.909
335.373	15.970	835.324	630.256
336.387	15.942	834.879	629.759
337.402	16.052	834.811	630.062
338.416	16.139	834.102	629.796
339.431	16.118	833.879	629.493
340.446	16.168	833.642	629.447
341.460	16.102	833.259	628.857
342.475	16.116	832.967	628.633
343.489	16.140	832.551	628.351
344.504	16.239	831.690	628.013
345.519	16.149	831.412	627.415
346.533	16.328	830.675	627.468
347.548	16.184	830.024	626.385
348.562	16.203	829.845	626.267
349.577	16.224	829.263	625.848
350.592	16.177	828.373	624.949
351.606	16.164	827.775	624.394
352.621	16.249	826.937	624.019
353.635	16.346	826.156	623.735
354.650	16.313	826.014	623.449
355.665	16.212	825.654	622.748
356.679	16.156	824.796	621.843
357.694	16.329	823.889	621.738
358.708	16.324	823.611	621.456
359.723	16.294	823.175	620.962
360.738	16.305	822.570	620.490
361.752	16.433	822.161	620.596
362.767	16.647	820.955	620.419
363.781	16.607	820.244	619.677
364.796	16.482	820.187	619.123
365.810	16.496	820.265	619.178
366.825	16.635	819.428	619.002
367.840	16.645	818.611	618.364
368.854	16.743	818.217	618.372
369.869	16.558	818.182	617.612
370.883	16.521	817.448	616.869
371.898	16.429	817.926	616.841
372.913	16.580	816.920	616.578
373.927	16.711	815.949	616.266
374.942	16.630	815.843	615.837
375.956	16.636	815.693	615.691
376.971	16.846	814.951	615.841
377.986	16.838	814.669	615.543
379.000	16.868	814.266	615.294
380.015	16.946	813.562	614.989
381.029	16.880	813.066	614.323
382.044	16.856	812.659	613.871
383.059	16.976	811.778	613.586
384.073	16.866	811.487	612.915
385.088	16.769	810.878	612.051
386.102	16.826	810.232	611.715
387.117	16.815	809.482	611.054
388.132	16.816	808.955	610.607
389.146	16.826	808.718	610.408
390.161	16.829	808.283	610.037
391.175	17.103	807.314	610.237
392.190	16.908	807.121	609.335
393.205	16.959	806.750	609.184
394.219	16.917	806.467	608.768
395.234	16.839	806.118	608.168
396.248	16.890	805.401	607.759
397.263	16.922	805.161	607.639
398.278	16.910	805.037	607.446
399.292	16.818	804.521	606.675
400.307	16.964	803.888	606.664
401.321	16.893	803.131	605.787
402.336	16.844	802.902	605.384
403.350	17.037	802.543	605.750
404.365	17.152	801.897	605.619
405.380	17.240	801.250	605.391
406.394	17.215	800.633	604.784
407.409	17.324	800.462	604.986
408.423	17.171	800.431	604.366
409.438	17.130	800.285	604.058
410.453	17.273	799.606	604.000
411.467	17.264	798.964	603.427
412.482	17.393	798.629	603.581
413.496	17.442	798.227	603.395
414.511	17.477	797.875	603.200
415.526	17.492	797.116	602.626
416.540	17.412	796.949	602.163
417.555	17.343	796.497	601.526
418.569	17.488	795.910	601.540
419.584	17.444	795.758	601.219
420.599	17.326	795.534	600.578
421.613	108.911	1291.604	1468.407
422.628	93.588	1363.851	1468.514
