DTS Sentinel unit serial number:	SN413079Multiplexer serial number:	ORYXHardware model number:	OX4-SRSoftware version number:	ORYX F/W v4.00 Oryx Data Collector v3.7.2.0data status	okinstallation	princeton_trtdifferential loss correction	single-endedforward channel	channel 1reverse channel	N/Adate	2019/09/13time	13:10:35forward acquisition time	60.00reverse acquisition time	0.00gamma	496.2192k internal	0.2305k external	0.2305temperature offset calibration	1.0161default loss term (dB/km)	0.3790temperature slope calibration	1.0000multiplexer offset coefficient	1.0000multiplexer slope coefficient	1.0000fibre end	0.00T internal ref (°C)	34.87T ext. ref 1 (°C)	4.57T ext. ref 2 (°C)	31.21length (m)	temperature (°C)	Stokes	anti-Stokes-747.200	800.000	0.091	0.275
-746.185	564.041	0.209	-0.515
-745.171	273.891	-0.152	0.273
-744.156	-34.001	0.312	0.175
-743.142	-84.371	-0.380	0.122
-742.127	243.294	-0.115	0.196
-741.112	633.873	0.074	-0.190
-740.098	-51.792	0.128	-0.061
-739.083	508.488	-0.052	-0.122
-738.069	800.000	0.064	0.210
-737.054	-121.613	0.108	0.018
-736.039	-162.032	-0.571	0.029
-735.025	-142.718	-0.209	-0.021
-734.010	-200.000	-0.033	-0.176
-732.996	76.202	0.152	-0.163
-731.981	-11.271	-0.148	-0.099
-730.966	-83.224	0.225	-0.074
-729.952	74.973	-0.253	-0.271
-728.937	171.821	-0.097	-0.142
-727.923	-95.014	0.348	0.096
-726.908	447.583	0.107	-0.239
-725.894	205.595	-0.035	0.056
-724.879	46.288	0.159	-0.149
-723.864	-79.372	-0.137	-0.047
-722.850	-26.284	-0.276	-0.165
-721.835	-200.000	0.020	0.119
-720.821	-200.000	0.020	-0.141
-719.806	-104.124	0.224	0.053
-718.791	-200.000	-0.036	0.170
-717.777	-66.525	-0.185	0.075
-716.762	-27.964	-0.394	-0.232
-715.748	-161.048	0.214	-0.011
-714.733	-200.000	0.001	0.180
-713.718	800.000	0.028	0.118
-712.704	300.805	-0.183	-0.344
-711.689	327.510	0.125	0.244
-710.675	-200.000	-0.011	0.310
-709.660	-103.520	0.144	0.034
-708.645	34.736	0.191	0.170
-707.631	-88.726	0.150	0.045
-706.616	1.514	0.200	-0.146
-705.602	146.865	0.169	0.230
-704.587	-87.332	0.170	0.052
-703.572	6.039	0.107	0.081
-702.558	-100.756	-0.441	0.110
-701.543	-114.749	0.177	-0.034
-700.529	27.972	0.261	0.223
-699.514	-200.000	-0.014	0.220
-698.499	-120.838	0.128	0.022
-697.485	701.482	-0.030	-0.080
-696.470	167.775	0.175	0.253
-695.456	-26.767	0.213	-0.127
-694.441	800.000	0.090	-0.323
-693.426	125.356	0.129	-0.165
-692.412	-10.571	-0.230	-0.155
-691.397	-200.000	-0.027	-0.301
-690.383	-8.519	-0.265	0.181
-689.368	-5.985	0.241	0.167
-688.354	-144.062	0.182	0.017
-687.339	13.842	-0.274	0.216
-686.324	6.816	0.220	-0.166
-685.310	-200.000	0.013	-0.126
-684.295	120.366	-0.235	0.296
-683.281	-105.786	-0.166	-0.038
-682.266	-42.450	0.162	0.084
-681.251	-200.000	-0.005	0.094
-680.237	44.881	-0.070	0.065
-679.222	186.351	-0.097	-0.147
-678.208	-200.000	-0.044	-0.303
-677.193	-36.316	0.304	-0.166
-676.178	-16.812	-0.259	0.166
-675.164	-200.000	-0.008	-0.092
-674.149	-77.396	0.144	0.051
-673.135	14.035	0.120	0.094
-672.120	800.000	0.134	-0.419
-671.105	153.079	-0.105	-0.146
-670.091	-136.704	-0.348	-0.041
-669.076	-200.000	0.006	-0.087
-668.062	35.996	0.335	0.299
-667.047	800.000	0.108	0.329
-666.032	593.416	-0.056	0.141
-665.018	175.892	-0.228	0.336
-664.003	800.000	0.022	-0.090
-662.989	106.273	-0.070	-0.084
-661.974	-175.694	0.359	0.010
-660.959	125.905	0.076	0.098
-659.945	160.455	-0.128	0.181
-658.930	79.807	-0.122	0.133
-657.916	-200.000	0.021	-0.181
-656.901	103.185	0.079	0.094
-655.886	569.772	0.128	0.316
-654.872	-93.635	-0.200	-0.056
-653.857	800.000	-0.097	0.356
-652.843	42.808	-0.205	-0.190
-651.828	-94.288	0.197	-0.055
-650.814	72.878	-0.216	-0.229
-649.799	125.449	0.086	-0.111
-648.784	-16.801	0.097	-0.062
-647.770	164.977	0.048	-0.069
-646.755	229.864	-0.052	-0.086
-645.741	-94.486	-0.167	0.046
-644.726	215.560	0.079	0.127
-643.711	136.727	0.261	0.345
-642.697	-200.000	0.031	0.190
-641.682	800.000	-0.093	-0.331
-640.668	11.840	-0.379	-0.295
-639.653	-193.228	0.316	0.003
-638.638	-94.368	-0.062	0.017
-637.624	225.537	-0.118	0.194
-636.609	800.000	0.008	0.030
-635.595	228.473	-0.029	0.048
-634.580	-50.141	0.150	0.072
-633.565	42.044	0.102	-0.094
-632.551	-168.487	0.216	0.008
-631.536	-143.416	0.187	0.018
-630.522	526.115	-0.132	0.315
-629.507	-168.248	0.231	0.009
-628.492	-184.859	-0.298	0.005
-627.478	135.347	0.047	0.061
-626.463	-30.042	-0.397	-0.229
-625.449	800.000	-0.070	-0.231
-624.434	800.000	0.127	-0.435
-623.419	-196.292	-0.128	0.001
-622.405	261.472	0.050	0.088
-621.390	-46.562	0.143	0.071
-620.376	235.309	-0.213	0.356
-619.361	754.427	-0.069	0.190
-618.346	-20.808	0.327	-0.203
-617.332	-69.985	0.083	0.032
-616.317	-200.000	0.007	-0.275
-615.303	-61.331	0.413	-0.176
-614.288	-130.919	-0.208	-0.028
-613.273	-81.293	-0.279	0.093
-612.259	195.319	-0.160	0.245
-611.244	-183.476	0.178	-0.003
-610.230	389.052	-0.062	-0.129
-609.215	-19.390	0.214	-0.134
-608.201	-200.000	0.009	-0.143
-607.186	-182.816	-0.358	0.007
-606.171	-140.325	0.259	-0.027
-605.157	180.279	0.126	0.187
-604.142	52.866	0.214	0.207
-603.128	-96.440	-0.055	0.015
-602.113	-106.858	-0.188	-0.042
-601.098	-40.304	-0.043	-0.022
-600.084	800.000	0.014	0.058
-599.069	-21.918	0.179	0.110
-598.055	-121.182	-0.169	0.029
-597.040	175.734	-0.096	0.141
-596.025	-100.682	-0.133	0.033
-595.011	79.717	-0.108	0.118
-593.996	53.095	0.043	0.041
-592.982	110.573	-0.070	-0.085
-591.967	7.155	0.372	-0.281
-590.952	-186.712	0.125	0.002
-589.938	-146.047	-0.302	-0.027
-588.923	-51.777	-0.154	0.073
-587.909	-36.727	0.191	-0.104
-586.894	-58.174	0.246	-0.108
-585.879	286.400	-0.161	0.295
-584.865	800.000	0.043	-0.187
-583.850	125.472	0.096	-0.122
-582.836	-40.727	0.221	0.116
-581.821	60.901	0.193	-0.194
-580.806	-45.624	-0.185	0.093
-579.792	161.461	0.177	-0.251
-578.777	40.306	-0.110	-0.100
-577.763	-200.000	-0.019	0.237
-576.748	-102.312	-0.156	0.038
-575.733	-2.483	-0.126	0.090
-574.719	342.719	0.053	-0.106
-573.704	800.000	0.046	0.146
-572.690	21.626	-0.177	0.146
-571.675	800.000	-0.062	0.207
-570.661	-200.000	0.007	0.086
-569.646	-200.000	0.013	0.229
-568.631	26.076	-0.233	-0.197
-567.617	-200.000	0.040	-0.303
-566.602	-200.000	-0.015	0.145
-565.588	180.180	-0.052	0.077
-564.573	-200.000	0.025	-0.138
-563.558	124.176	-0.153	-0.194
-562.544	106.738	-0.239	-0.287
-561.529	456.775	-0.066	0.147
-560.515	610.644	-0.156	0.395
-559.500	257.444	0.086	0.149
-558.485	-135.832	-0.245	0.029
-557.471	66.312	-0.219	-0.225
-556.456	72.137	0.048	0.050
-555.442	-131.042	0.242	0.033
-554.427	-92.459	-0.176	0.050
-553.412	63.700	0.155	-0.158
-552.398	81.995	-0.099	-0.109
-551.383	800.000	-0.115	-0.320
-550.369	1.530	0.099	-0.072
-549.354	-133.813	0.183	-0.023
-548.339	478.002	-0.060	0.138
-547.325	-181.860	-0.144	-0.003
-546.310	-153.092	-0.149	0.011
-545.296	47.422	0.212	0.200
-544.281	279.133	0.081	0.146
-543.266	-96.971	0.294	0.078
-542.252	202.996	-0.175	-0.272
-541.237	-80.383	0.161	-0.054
-540.223	-32.719	-0.152	-0.085
-539.208	-59.690	0.244	0.105
-538.193	608.216	-0.080	0.201
-537.179	7.865	-0.366	0.277
-536.164	95.255	0.086	-0.099
-535.150	247.368	0.030	-0.051
-534.135	-200.000	-0.026	0.272
-533.121	-90.840	-0.082	0.024
-532.106	204.276	-0.104	0.163
-531.091	-200.000	-0.009	-0.067
-530.077	278.130	-0.162	0.291
-529.062	450.724	-0.082	0.182
-528.048	3.714	0.138	0.102
-527.033	267.146	0.121	-0.214
-526.018	-167.005	-0.363	-0.015
-525.004	800.000	0.200	-0.580
-523.989	-200.000	0.007	0.076
-522.975	-62.437	0.209	-0.088
-521.960	-81.411	0.365	0.121
-520.945	-84.435	-0.207	0.066
-519.931	364.123	0.023	-0.047
-518.916	-49.717	-0.184	-0.088
-517.902	480.088	0.075	0.172
-516.887	-19.988	-0.071	-0.044
-515.872	-69.449	0.321	-0.124
-514.858	124.436	0.078	0.100
-513.843	155.008	0.049	0.068
-512.829	-143.545	-0.191	0.018
-511.814	-200.000	0.007	0.045
-510.799	-5.805	0.353	0.244
-509.785	-200.000	-0.060	-0.424
-508.770	-103.032	0.284	-0.068
-507.756	-127.512	0.070	-0.010
-506.741	766.457	-0.148	0.404
-505.726	800.000	-0.026	-0.108
-504.712	-124.239	0.087	-0.014
-503.697	104.662	-0.206	0.245
-502.683	-80.145	-0.447	-0.151
-501.668	31.780	-0.044	-0.038
-500.653	161.416	0.096	-0.136
-499.639	177.669	0.062	-0.091
-498.624	800.000	0.035	-0.116
-497.610	135.695	0.160	0.209
-496.595	-122.315	0.395	0.065
-495.581	-139.846	-0.110	-0.012
-494.566	108.007	-0.135	0.163
-493.551	410.258	-0.051	-0.110
-492.537	800.000	0.017	-0.073
-491.522	56.224	0.164	-0.160
-490.508	800.000	0.014	-0.059
-489.493	-173.274	-0.314	0.010
-488.478	-200.000	0.012	0.104
-487.464	84.787	0.093	0.102
-486.449	-68.267	-0.377	0.148
-485.435	800.000	-0.039	0.142
-484.420	-134.906	-0.162	0.020
-483.405	-51.027	-0.256	-0.121
-482.391	-32.535	-0.294	0.165
-481.376	-126.764	0.156	0.023
-480.362	-112.713	-0.180	-0.036
-479.347	-124.343	-0.236	0.037
-478.332	-81.259	-0.213	-0.071
-477.318	800.000	-0.033	-0.104
-476.303	-170.283	0.361	0.013
-475.289	-106.669	0.299	0.067
-474.274	4.584	0.241	0.178
-473.259	222.962	-0.110	0.179
-472.245	-21.972	-0.108	0.066
-471.230	-200.000	0.004	-0.220
-470.216	13.744	0.210	0.165
-469.201	-79.072	0.083	0.028
-468.186	-57.303	-0.343	-0.152
-467.172	294.883	-0.118	0.217
-466.157	-107.320	-0.268	0.059
-465.143	409.014	0.067	-0.143
-464.128	-33.951	0.242	0.134
-463.113	25.758	-0.223	0.187
-462.099	157.887	-0.132	0.184
-461.084	-101.949	0.312	-0.076
-460.070	-132.147	-0.123	-0.016
-459.055	800.000	-0.039	0.141
-458.040	-200.000	0.003	0.112
-457.026	26.970	0.202	-0.171
-456.011	715.878	0.022	0.058
-454.997	725.545	0.043	0.116
-453.982	-37.789	-0.175	-0.094
-452.968	-83.212	-0.199	0.064
-451.953	-5.717	0.172	-0.119
-450.938	-26.009	-0.274	-0.162
-449.924	800.000	-0.171	-0.479
-448.909	-145.071	0.039	0.004
-447.895	-32.244	-0.216	-0.122
-446.880	-24.306	-0.129	0.077
-445.865	-63.411	-0.006	-0.003
-444.851	39.221	-0.198	0.178
-443.836	-128.265	0.170	0.024
-442.822	149.276	0.060	0.081
-441.807	267.462	0.135	0.238
-440.792	9.957	0.176	-0.134
-439.778	228.611	0.160	0.263
-438.763	11.949	-0.275	-0.213
-437.749	9.774	0.094	0.072
-436.734	280.083	0.101	-0.182
-435.719	-200.000	0.036	-0.250
-434.705	800.000	0.031	-0.134
-433.690	800.000	0.029	-0.128
-432.676	-134.864	-0.369	0.045
-431.661	-116.634	0.041	-0.008
-430.646	526.796	0.077	0.182
-429.632	-14.645	0.124	-0.080
-428.617	-8.480	-0.261	0.176
-427.603	-139.368	0.306	-0.033
-426.588	-43.989	-0.298	0.151
-425.573	-66.488	-0.106	-0.042
-424.559	211.096	0.131	-0.207
-423.544	59.711	0.121	-0.120
-422.530	-200.000	-0.011	-0.133
-421.515	-20.075	-0.093	0.058
-420.500	325.607	-0.120	0.231
-419.486	-141.023	0.305	-0.031
-418.471	427.026	0.143	0.310
-417.457	340.268	0.118	-0.231
-416.442	199.081	-0.158	-0.244
-415.428	-100.091	-0.317	0.079
-414.413	-72.142	-0.218	-0.081
-413.398	-82.909	0.346	0.112
-412.384	800.000	0.077	-0.258
-411.369	213.824	-0.185	-0.294
-410.355	800.000	0.011	0.038
-409.340	-200.000	0.009	-0.077
-408.325	0.503	0.172	0.124
-407.311	-76.471	-0.086	0.030
-406.296	-25.682	0.046	0.027
-405.282	-34.866	0.053	0.029
-404.267	-108.427	-0.313	0.068
-403.252	-161.892	-0.421	0.021
-402.238	-34.901	-0.126	0.069
-401.223	7.463	0.341	0.256
-400.209	367.647	0.138	0.281
-399.194	-200.000	-0.005	-0.127
-398.179	277.492	-0.181	0.323
-397.165	18.377	-0.200	0.160
-396.150	-102.713	0.150	0.036
-395.136	33.318	0.174	-0.152
-394.121	-79.652	-0.040	0.014
-393.106	489.766	-0.086	0.198
-392.092	-200.000	0.018	0.158
-391.077	206.002	0.176	-0.275
-390.063	-60.018	0.180	-0.077
-389.048	-200.000	-0.002	0.218
-388.033	-89.658	0.048	0.014
-387.019	-149.140	0.164	-0.013
-386.004	226.286	-0.097	-0.158
-384.990	58.599	-0.194	-0.191
-383.975	262.390	-0.126	0.220
-382.960	-200.000	0.040	0.336
-381.946	-17.953	-0.100	-0.063
-380.931	733.284	0.180	-0.482
-379.917	102.453	-0.100	0.117
-378.902	252.749	-0.095	0.162
-377.888	-141.683	-0.102	-0.010
-376.873	13.219	-0.147	-0.114
-375.858	182.601	-0.153	-0.226
-374.844	-169.277	0.548	-0.020
-373.829	63.604	-0.129	0.130
-372.815	23.761	-0.313	-0.259
-371.800	-84.778	-0.296	-0.093
-370.785	-1.463	0.414	-0.293
-369.771	-65.398	-0.335	0.135
-368.756	194.789	0.198	0.302
-367.742	-200.000	0.022	-0.173
-366.727	-0.990	-0.108	0.076
-365.712	263.100	0.112	-0.196
-364.698	80.877	-0.116	-0.126
-363.683	-103.126	0.133	-0.031
-362.669	-26.033	-0.151	0.089
-361.654	74.846	0.098	0.103
-360.639	800.000	0.116	0.406
-359.625	353.017	0.087	-0.172
-358.610	180.409	-0.091	0.134
-357.596	-152.875	0.182	0.013
-356.581	304.277	0.070	-0.130
-355.566	368.363	-0.063	0.128
-354.552	230.236	-0.143	-0.234
-353.537	23.250	0.157	-0.130
-352.523	22.840	-0.034	0.028
-351.508	-31.041	0.033	-0.018
-350.493	-200.000	-0.017	-0.191
-349.479	-200.000	0.008	0.079
-348.464	-55.541	-0.328	0.147
-347.450	156.660	-0.121	-0.168
-346.435	14.348	-0.143	-0.112
-345.420	-83.925	0.196	-0.063
-344.406	196.616	0.113	0.172
-343.391	93.988	0.091	-0.104
-342.377	-200.000	-0.005	0.109
-341.362	359.988	-0.042	-0.083
-340.348	-101.757	0.304	-0.074
-339.333	114.193	0.051	0.062
-338.318	-161.704	0.170	-0.009
-337.304	800.000	-0.013	0.038
-336.289	-86.001	-0.411	-0.127
-335.275	39.078	0.190	0.170
-334.260	-15.380	-0.145	-0.093
-333.245	-72.506	0.262	-0.097
-332.231	800.000	-0.063	-0.200
-331.216	424.198	0.108	-0.233
-330.202	-53.320	-0.253	-0.116
-329.187	-200.000	0.023	0.346
-328.172	800.000	-0.053	-0.199
-327.158	-67.161	-0.230	0.091
-326.143	159.013	0.153	0.213
-325.129	-24.516	0.149	0.089
-324.114	57.485	0.041	0.040
-323.099	-200.000	-0.002	-0.112
-322.085	-90.645	-0.292	-0.084
-321.070	308.289	0.069	-0.130
-320.056	-72.291	-0.192	-0.071
-319.041	-117.998	0.425	0.076
-318.026	80.266	-0.092	0.099
-317.012	-137.642	0.235	0.026
-315.997	138.824	-0.097	-0.128
-314.983	-103.770	-0.191	-0.045
-313.968	800.000	-0.072	0.260
-312.953	-131.580	0.189	0.025
-311.939	800.000	0.067	0.193
-310.924	91.975	0.157	-0.177
-309.910	-76.166	-0.148	-0.052
-308.895	-154.650	0.120	0.008
-307.880	-151.066	-0.239	0.018
-306.866	-79.886	0.046	0.015
-305.851	800.000	-0.077	-0.267
-304.837	-37.600	-0.125	-0.067
-303.822	-200.000	0.048	-0.224
-302.807	37.453	0.179	-0.159
-301.793	-200.000	0.009	-0.266
-300.778	-153.049	0.074	-0.005
-299.764	-200.000	-0.015	0.158
-298.749	-63.909	0.358	0.146
-297.735	364.100	0.064	-0.129
-296.720	656.388	-0.117	0.301
-295.705	316.948	-0.101	0.192
-294.691	-95.686	-0.267	-0.072
-293.676	25.907	-0.185	-0.154
-292.662	-152.058	-0.239	0.017
-291.647	121.172	0.262	0.326
-290.632	-111.423	-0.262	-0.053
-289.618	-200.000	-0.040	-0.185
-288.603	-200.000	0.017	-0.139
-287.589	59.327	-0.108	-0.107
-286.574	123.531	0.242	-0.304
-285.559	-97.164	0.299	-0.078
-284.545	-114.708	-0.070	-0.013
-283.530	-175.443	-0.089	0.002
-282.516	496.423	0.079	0.181
-281.501	-93.882	0.088	0.024
-280.486	-200.000	-0.060	-0.277
-279.472	-200.000	-0.074	0.367
-278.457	4.597	0.072	-0.053
-277.443	-200.000	0.002	0.119
-276.428	800.000	0.024	-0.069
-275.413	-107.371	0.233	-0.051
-274.399	-15.041	-0.182	0.116
-273.384	-89.492	-0.507	-0.149
-272.370	125.131	-0.128	-0.161
-271.355	800.000	-0.136	0.400
-270.340	-72.464	0.088	-0.032
-269.326	-24.620	0.174	0.103
-268.311	34.291	-0.078	-0.068
-267.297	800.000	0.105	0.378
-266.282	-200.000	-0.031	0.200
-265.267	-92.412	0.261	-0.073
-264.253	219.008	0.183	0.293
-263.238	191.744	-0.117	-0.176
-262.224	1.540	0.207	-0.148
-261.209	-200.000	0.001	0.150
-260.195	-71.311	0.160	-0.060
-259.180	-71.955	-0.087	0.032
-258.165	-54.926	0.141	0.063
-257.151	86.238	-0.188	0.207
-256.136	188.018	-0.104	0.155
-255.122	-60.567	-0.148	-0.063
-254.107	800.000	0.050	-0.213
-253.092	-25.971	-0.220	0.129
-252.078	800.000	0.030	0.104
-251.063	-49.717	0.264	-0.125
-250.049	800.000	0.014	-0.050
-249.034	-200.000	0.015	-0.360
-248.019	-128.362	0.409	-0.058
-247.005	18.720	0.197	-0.157
-245.990	-199.629	0.174	-0.001
-244.976	133.382	-0.121	0.156
-243.961	-22.491	0.186	0.112
-242.946	-200.000	-0.015	0.088
-241.932	780.610	-0.046	-0.126
-240.917	-200.000	0.027	-0.416
-239.903	21.095	0.207	-0.168
-238.888	128.441	0.184	0.234
-237.873	-146.236	-0.176	0.015
-236.859	180.019	0.047	-0.069
-235.844	338.272	0.052	0.101
-234.830	6.485	0.369	-0.274
-233.815	-64.763	-0.277	-0.112
-232.800	-117.251	0.315	0.057
-231.786	-200.000	-0.007	0.347
-230.771	-91.638	0.153	0.043
-229.757	60.287	0.286	-0.282
-228.742	-200.000	-0.012	-0.139
-227.727	-67.291	-0.127	0.050
-226.713	800.000	-0.112	0.381
-225.698	116.905	-0.075	-0.092
-224.684	-81.457	-0.233	0.077
-223.669	-200.000	-0.001	0.050
-222.655	-113.700	0.295	0.057
-221.640	46.736	0.220	-0.204
-220.625	268.512	0.116	0.203
-219.611	-137.708	0.179	0.020
-218.596	70.541	0.181	0.186
-217.582	27.623	0.302	0.254
-216.567	400.326	0.083	-0.174
-215.552	-200.000	0.022	0.165
-214.538	501.048	-0.185	0.426
-213.523	167.155	0.042	0.059
-212.509	40.367	0.170	0.153
-211.494	-200.000	-0.033	-0.179
-210.479	800.000	-0.028	0.114
-209.465	102.636	0.331	0.386
-208.450	282.537	-0.160	0.286
-207.436	-200.000	-0.030	0.138
-206.421	800.000	0.059	-0.169
-205.406	-200.000	0.048	0.243
-204.392	-41.263	-0.215	0.110
-203.377	-28.896	0.367	-0.210
-202.363	65.491	-0.034	-0.034
-201.348	-51.204	-0.268	0.125
-200.333	-35.727	0.180	-0.097
-199.319	800.000	0.100	-0.357
-198.304	598.531	0.028	-0.070
-197.290	105.579	-0.154	-0.181
-196.275	-124.053	-0.158	-0.025
-195.260	-0.191	-0.138	-0.098
-194.246	-200.000	-0.005	-0.171
-193.231	74.985	-0.187	-0.196
-192.217	235.593	0.122	0.200
-191.202	-73.159	-0.226	0.083
-190.187	-100.856	0.421	0.103
-189.173	-200.000	-0.101	-0.462
-188.158	65.608	0.000	0.000
-187.144	-2.195	0.071	-0.050
-186.129	116.045	-0.073	0.089
-185.114	-3.245	0.363	-0.252
-184.100	-23.137	0.086	0.052
-183.085	-76.233	-0.098	-0.034
-182.071	800.000	-0.074	0.276
-181.056	131.587	-0.130	-0.166
-180.042	18.782	-0.106	0.084
-179.027	-63.082	-0.155	0.064
-178.012	-200.000	-0.007	-0.191
-176.998	-10.882	-0.020	-0.013
-175.983	174.578	-0.088	0.127
-174.969	-95.085	0.173	-0.047
-173.954	-47.773	0.189	0.091
-172.939	140.145	0.060	0.078
-171.925	-179.622	-0.107	-0.002
-170.910	-104.157	-0.263	-0.061
-169.896	-17.481	-0.129	-0.081
-168.881	344.701	0.052	-0.102
-167.866	359.211	0.070	-0.139
-166.852	800.000	-0.048	0.154
-165.837	-12.964	0.190	0.123
-164.823	-45.518	-0.134	0.066
-163.808	-200.000	-0.005	-0.182
-162.793	-48.974	-0.218	-0.104
-161.779	800.000	-0.100	-0.419
-160.764	-200.000	0.008	-0.160
-159.750	55.987	0.024	-0.023
-158.735	-16.668	0.137	-0.086
-157.720	-23.473	0.186	-0.111
-156.706	-51.741	-0.014	0.006
-155.691	-200.000	0.018	0.246
-154.677	250.435	-0.022	-0.037
-153.662	-89.898	-0.196	-0.057
-152.647	-100.320	-0.149	0.037
-151.633	459.622	-0.104	-0.229
-150.618	800.000	0.043	-0.170
-149.604	-93.652	0.242	0.066
-148.589	-66.592	0.081	0.032
-147.574	4.495	-0.038	0.027
-146.560	418.238	-0.048	0.102
-145.545	-60.607	-0.034	0.014
-144.531	267.361	-0.045	-0.078
-143.516	800.000	-0.125	0.397
-142.502	226.101	-0.055	0.088
-141.487	68.686	0.017	-0.018
-140.472	-200.000	0.014	0.141
-139.458	-200.000	0.000	-0.028
-138.443	-200.000	0.011	0.137
-137.429	800.000	-0.033	0.096
-136.414	-200.000	0.019	0.105
-135.399	-21.088	-0.077	-0.047
-134.385	231.088	0.172	-0.279
-133.370	-48.934	0.264	0.126
-132.356	-47.545	0.272	0.131
-131.341	800.000	0.014	-0.056
-130.326	-156.414	0.112	-0.007
-129.312	94.769	0.179	0.202
-128.297	93.760	0.142	0.160
-127.283	-200.000	-0.003	-0.148
-126.268	244.443	-0.041	-0.069
-125.253	41.795	0.044	-0.040
-124.239	800.000	0.087	0.270
-123.224	340.750	0.158	0.307
-122.210	-55.022	-0.270	0.121
-121.195	52.036	-0.124	-0.118
-120.180	-12.209	0.040	0.026
-119.166	-106.247	-0.116	-0.026
-118.151	-85.036	0.336	0.105
-117.137	26.234	-0.049	0.041
-116.122	-4.316	-0.040	0.027
-115.107	800.000	0.023	0.086
-114.093	800.000	-0.068	-0.247
-113.078	63.292	-0.168	-0.167
-112.064	141.268	-0.028	0.037
-111.049	-30.429	-0.140	-0.079
-110.034	-26.695	0.288	-0.167
-109.020	33.620	0.189	-0.163
-108.005	800.000	-0.047	-0.131
-106.991	102.133	-0.151	-0.175
-105.976	-200.000	-0.149	0.000
-104.962	800.000	-0.068	-0.229
-103.947	684.400	-0.052	-0.134
-102.932	99.619	0.226	-0.259
-101.918	211.933	-0.186	0.291
-100.903	18.900	-0.088	0.070
-99.889	-102.497	-0.215	0.051
-98.874	260.568	0.199	0.341
-97.859	-127.625	-0.307	0.044
-96.845	-200.000	0.052	-0.246
-95.830	-130.996	-0.301	0.040
-94.816	-7.110	0.106	0.072
-93.801	244.140	-0.076	-0.126
-92.786	-200.000	-0.057	-0.536
-91.772	-84.194	0.085	0.027
-90.757	-58.848	-0.094	-0.040
-89.743	800.000	-0.118	-0.323
-88.728	584.072	-0.109	0.265
-87.713	121.639	0.034	0.042
-86.699	720.204	-0.066	-0.173
-85.684	-143.566	-0.047	0.004
-84.670	287.531	0.124	0.222
-83.655	722.038	-0.056	0.147
-82.640	40.782	-0.059	-0.053
-81.626	61.488	0.265	-0.262
-80.611	-127.240	-0.093	-0.013
-79.597	444.318	0.072	0.157
-78.582	-200.000	-0.010	0.100
-77.567	-135.699	-0.327	0.038
-76.553	800.000	0.098	-0.356
-75.538	578.053	0.113	-0.273
-74.524	178.711	0.101	-0.146
-73.509	376.931	-0.210	0.425
-72.494	29.854	0.232	0.196
-71.480	-131.017	0.174	-0.023
-70.465	800.000	-0.064	0.256
-69.451	-21.787	0.274	-0.166
-68.436	131.064	0.140	-0.178
-67.422	-200.000	0.055	0.331
-66.407	570.146	0.117	-0.281
-65.392	386.675	-0.086	-0.176
-64.378	22.844	-0.118	0.096
-63.363	-200.000	0.047	-0.263
-62.349	-200.000	-0.023	-0.322
-61.334	174.721	-0.733	-1.051
-60.319	800.000	0.203	0.563
-59.305	241.840	-0.435	-0.720
-58.290	541.814	0.384	0.907
-57.276	501.585	0.595	1.361
-56.261	-200.000	95.403	560.385
-55.246	628.294	1385.228	3468.018
-54.232	185.273	2608.175	3835.702
-53.217	121.710	2198.771	2716.415
-52.203	46.813	1647.649	1516.732
-51.188	38.425	1381.315	1219.514
-50.173	35.029	1338.698	1161.281
-49.159	55.349	1386.524	1328.681
-48.144	59.663	1404.722	1372.680
-47.130	38.621	1359.384	1201.161
-46.115	35.147	1341.058	1163.858
-45.100	34.840	1336.875	1158.322
-44.086	34.759	1333.964	1155.264
-43.071	34.859	1331.303	1153.517
-42.057	34.694	1329.862	1151.228
-41.042	34.738	1328.018	1149.852
-40.027	34.869	1326.008	1148.855
-39.013	34.780	1324.483	1146.953
-37.998	34.770	1322.225	1144.893
-36.984	34.905	1320.311	1143.994
-35.969	34.882	1318.836	1142.537
-34.954	34.837	1317.286	1140.880
-33.940	34.936	1316.016	1140.322
-32.925	34.977	1314.675	1139.359
-31.911	35.035	1313.131	1138.322
-30.896	34.964	1311.538	1136.477
-29.881	34.902	1310.512	1135.175
-28.867	35.057	1308.861	1134.615
-27.852	35.009	1307.312	1132.947
-26.838	35.045	1305.875	1131.869
-25.823	35.091	1304.417	1130.833
-24.809	35.020	1302.842	1129.003
-23.794	34.965	1302.088	1127.979
-22.779	34.864	1300.585	1126.039
-21.765	35.022	1299.112	1125.649
-20.750	34.934	1297.867	1124.004
-19.736	34.898	1296.460	1122.532
-18.721	34.724	1295.593	1120.718
-17.706	34.859	1293.912	1120.007
-16.692	34.853	1292.428	1118.646
-15.677	34.815	1291.602	1117.663
-14.663	34.744	1290.794	1116.504
-13.648	34.769	1289.113	1115.152
-12.633	34.798	1288.142	1114.437
-11.619	34.764	1288.013	1114.082
-10.604	34.836	1286.939	1113.530
-9.590	34.793	1286.070	1112.483
-8.575	34.797	1285.016	1111.552
-7.560	34.769	1284.310	1110.729
-6.546	34.748	1283.641	1109.985
-5.531	34.827	1282.713	1109.597
-4.517	34.782	1281.383	1108.146
-3.502	34.761	1280.656	1107.350
-2.487	34.855	1279.470	1106.822
-1.473	34.891	1275.614	1103.650
-0.458	33.560	1260.692	1083.099
0.556	31.750	1240.559	1040.398
1.571	27.344	1244.594	1019.078
2.586	25.702	1258.614	1021.162
3.600	24.148	1245.908	1002.030
4.615	18.070	1172.817	910.873
5.629	9.111	1094.974	805.573
6.644	4.916	1073.687	769.166
7.659	4.579	1070.646	765.261
8.673	4.369	1069.461	763.317
9.688	4.398	1068.530	762.724
10.702	4.991	1067.271	764.670
11.717	10.639	1075.811	798.574
12.731	19.058	1086.831	848.363
13.746	22.374	1090.779	867.750
14.761	21.903	1089.662	864.467
15.775	21.125	1087.792	859.075
16.790	20.055	1085.944	852.281
17.804	19.411	1083.848	847.397
18.819	19.153	1083.160	845.517
19.834	18.969	1082.741	844.211
20.848	18.750	1081.802	842.333
21.863	18.771	1080.673	841.483
22.877	18.406	1080.028	839.115
23.892	18.402	1079.876	838.906
24.907	18.484	1078.866	838.446
25.921	18.495	1077.712	837.531
26.936	18.430	1076.913	836.517
27.950	18.404	1074.922	834.770
28.965	18.607	1073.760	834.780
29.980	18.711	1072.224	834.018
30.994	18.880	1070.918	833.752
32.009	18.879	1069.695	832.720
33.023	18.835	1068.997	831.887
34.038	18.769	1067.658	830.454
35.053	18.634	1066.768	829.034
36.067	18.624	1065.822	828.178
37.082	18.629	1065.104	827.570
38.096	18.833	1064.359	827.904
39.111	18.716	1063.853	826.875
40.126	18.576	1062.520	825.090
41.140	18.429	1060.222	822.528
42.155	18.094	1059.849	820.559
43.169	18.108	1058.552	819.548
44.184	18.087	1057.645	818.670
45.199	18.226	1056.305	818.227
46.213	18.341	1055.448	818.039
47.228	18.494	1054.963	818.323
48.242	18.653	1053.406	817.802
49.257	18.555	1052.674	816.692
50.271	18.622	1052.342	816.683
51.286	18.616	1051.544	815.960
52.301	18.608	1050.314	814.897
53.315	18.572	1048.685	813.393
54.330	18.475	1047.754	812.136
55.344	18.348	1047.417	811.203
56.359	18.354	1046.295	810.288
57.374	18.211	1045.911	809.244
58.388	18.272	1044.647	808.482
59.403	18.067	1044.064	806.991
60.417	18.143	1043.244	806.645
61.432	18.176	1042.231	805.947
62.447	18.016	1041.506	804.563
63.461	18.057	1040.663	804.033
64.476	17.987	1039.616	802.824
65.490	17.967	1038.957	802.147
66.505	18.071	1038.128	801.924
67.520	18.117	1037.552	801.625
68.534	18.033	1036.358	800.241
69.549	18.130	1035.790	800.185
70.563	17.921	1034.865	798.423
71.578	18.015	1033.710	797.900
72.593	17.816	1033.451	796.699
73.607	17.746	1032.529	795.593
74.622	17.830	1032.128	795.605
75.636	17.845	1031.612	795.203
76.651	17.972	1030.774	795.079
77.666	17.917	1030.068	794.211
78.680	17.976	1029.333	793.847
79.695	17.896	1028.762	792.962
80.709	18.163	1028.129	793.644
81.724	18.115	1027.615	792.953
82.739	18.273	1027.023	793.159
83.753	18.459	1026.589	793.616
84.768	18.926	1025.194	794.627
85.782	18.908	1024.908	794.253
86.797	18.790	1024.087	793.002
87.812	18.632	1023.063	791.408
88.826	18.675	1021.734	790.508
89.841	18.766	1020.766	790.109
90.855	18.860	1020.111	789.967
91.870	18.857	1019.453	789.370
92.884	18.783	1018.175	787.970
93.899	18.701	1017.899	787.314
94.914	18.820	1017.184	787.237
95.928	18.858	1015.947	786.382
96.943	18.772	1015.070	785.241
97.957	18.664	1014.218	784.021
98.972	18.740	1013.262	783.559
99.987	18.735	1012.343	782.752
101.001	18.738	1011.490	782.039
102.016	18.717	1010.615	781.196
103.030	18.745	1009.364	780.288
104.045	18.624	1009.312	779.632
105.060	18.618	1007.985	778.507
106.074	18.366	1006.842	776.416
107.089	18.236	1005.142	774.449
108.103	18.245	1004.144	773.650
109.118	18.169	1003.702	772.900
110.133	18.186	1002.504	771.985
111.147	18.094	1001.807	770.965
112.162	18.219	1001.110	770.923
113.176	18.274	1000.418	770.571
114.191	18.299	1000.111	770.375
115.206	18.277	998.894	769.274
116.220	18.210	998.050	768.253
117.235	18.291	996.762	767.558
118.249	18.113	996.371	766.392
119.264	18.073	995.138	765.195
120.279	18.036	994.526	764.493
121.293	18.010	993.433	763.467
122.308	18.003	992.606	762.734
123.322	17.831	991.758	761.248
124.337	17.794	991.120	760.527
125.352	17.823	989.599	759.419
126.366	17.840	988.701	758.741
127.381	17.957	987.443	758.224
128.395	17.851	987.052	757.390
129.410	18.029	986.020	757.319
130.424	18.171	985.059	757.142
131.439	18.289	984.780	757.382
132.454	18.169	984.126	756.284
133.468	18.265	982.811	755.631
134.483	18.247	982.413	755.176
135.497	18.322	981.215	754.520
136.512	18.339	980.652	754.093
137.527	18.400	979.667	753.540
138.541	18.385	978.895	752.814
139.556	18.440	978.209	752.457
140.570	18.555	977.562	752.397
141.585	18.723	977.077	752.696
142.600	18.773	976.100	752.098
143.614	18.888	975.117	751.777
144.629	18.857	974.600	751.177
145.643	18.869	973.438	750.265
146.658	18.684	972.289	748.508
147.673	18.443	971.456	746.748
148.687	18.366	970.086	745.295
149.702	18.261	969.805	744.557
150.716	18.258	968.850	743.743
151.731	18.424	967.369	743.260
152.746	18.430	967.072	742.994
153.760	18.385	966.662	742.419
154.775	18.541	965.858	742.411
155.789	18.599	965.408	742.250
156.804	18.549	964.778	741.484
157.819	18.629	964.003	741.167
158.833	18.666	963.897	741.180
159.848	18.951	963.062	741.701
160.862	18.740	961.760	739.724
161.877	18.500	960.472	737.638
162.892	18.347	959.204	735.938
163.906	18.288	957.970	734.676
164.921	18.317	957.061	734.039
165.935	18.477	956.625	734.325
166.950	18.528	955.748	733.802
167.964	18.529	954.815	733.027
168.979	18.459	953.794	731.877
169.994	18.445	952.978	731.127
171.008	18.642	952.466	731.511
172.023	18.651	951.832	730.996
173.037	18.691	951.340	730.726
174.052	18.652	950.822	730.098
175.067	18.479	949.498	728.280
176.081	18.303	948.592	726.772
177.096	18.421	948.383	727.050
178.110	18.483	947.411	726.504
179.125	18.412	946.871	725.725
180.140	18.591	946.696	726.286
181.154	18.676	946.498	726.428
182.169	18.753	946.239	726.489
183.183	18.726	945.310	725.599
184.198	18.893	944.245	725.422
185.213	18.897	943.582	724.866
186.227	18.830	943.472	724.435
187.242	18.819	942.916	723.896
188.256	18.941	942.588	724.095
189.271	18.943	941.363	723.098
190.286	18.873	940.133	721.796
191.300	18.286	939.234	718.577
192.315	18.193	938.648	717.674
193.329	18.337	937.859	717.612
194.344	18.442	937.623	717.806
195.359	18.713	936.811	718.256
196.373	18.817	936.389	718.304
197.388	18.926	936.026	718.419
198.402	19.134	935.706	718.979
199.417	19.178	935.314	718.795
200.432	19.436	934.436	719.133
201.446	19.397	934.109	718.655
202.461	19.399	933.672	718.266
203.475	19.336	932.736	717.219
204.490	19.192	931.711	715.769
205.504	18.864	931.452	714.142
206.519	19.003	930.187	713.685
207.534	18.987	929.774	713.243
208.548	18.958	929.201	712.619
209.563	18.879	928.590	711.760
210.577	19.082	927.720	711.867
211.592	19.271	926.952	711.997
212.607	19.346	926.573	711.952
213.621	19.213	925.768	710.724
214.636	19.095	925.019	709.597
215.650	19.265	924.631	709.940
216.665	19.211	924.115	709.257
217.680	19.330	922.953	708.794
218.694	19.443	922.588	708.914
219.709	19.521	921.479	708.319
220.723	19.301	921.037	707.015
221.738	19.375	920.137	706.565
222.753	19.250	919.843	705.762
223.767	19.440	919.085	705.897
224.782	19.645	918.689	706.368
225.796	19.624	918.355	705.963
226.811	19.421	917.681	704.554
227.826	19.325	916.482	703.181
228.840	19.291	915.339	702.101
229.855	19.235	914.863	701.448
230.869	19.291	913.973	700.928
231.884	19.145	913.544	699.944
232.899	19.143	912.669	699.206
233.913	19.139	911.903	698.541
234.928	19.010	911.213	697.428
235.942	19.003	910.549	696.830
236.957	19.213	909.996	697.194
237.972	19.063	909.719	696.312
238.986	19.012	909.450	695.838
240.001	19.149	908.483	695.593
241.015	19.170	907.804	695.093
242.030	19.380	907.005	695.267
243.045	19.405	906.530	694.942
244.059	19.192	906.623	694.093
245.074	19.430	905.671	694.263
246.088	19.571	904.781	694.087
247.103	19.679	903.969	693.835
248.117	19.867	903.918	694.488
249.132	19.946	903.801	694.653
250.147	20.103	903.309	694.843
251.161	20.204	902.545	694.598
252.176	20.314	901.951	694.520
253.190	20.106	901.431	693.227
254.205	20.203	900.849	693.105
255.220	20.313	900.129	692.930
256.234	20.212	899.360	691.874
257.249	20.074	898.893	690.904
258.263	20.057	897.945	690.045
259.278	20.212	897.043	689.908
260.293	20.209	896.856	689.690
261.307	20.354	896.328	689.801
262.322	20.303	895.847	689.165
263.336	20.356	895.000	688.665
264.351	20.404	893.865	687.921
265.366	20.479	893.066	687.542
266.380	20.332	892.987	686.839
267.395	20.171	892.182	685.521
268.409	20.162	890.959	684.486
269.424	20.267	890.555	684.530
270.439	20.206	889.864	683.695
271.453	20.037	888.860	682.199
272.468	19.966	888.644	681.695
273.482	20.085	888.101	681.686
274.497	20.068	887.392	681.013
275.512	20.071	886.853	680.553
276.526	20.090	886.025	679.930
277.541	20.171	885.804	680.018
278.555	20.314	885.273	680.113
279.570	20.489	884.803	680.377
280.585	20.465	883.834	679.476
281.599	20.338	882.850	678.166
282.614	20.341	881.951	677.424
283.628	20.245	881.687	676.790
284.643	20.287	880.917	676.300
285.657	20.196	880.583	675.630
286.672	20.259	880.099	675.444
287.687	20.377	878.968	674.974
288.701	20.207	878.775	674.106
289.716	20.386	878.052	674.186
290.730	20.452	877.496	673.955
291.745	20.334	877.043	673.090
292.760	20.426	876.734	673.149
293.774	20.589	875.664	672.902
294.789	20.606	874.788	672.233
295.803	20.252	874.592	670.655
296.818	20.317	873.368	669.907
297.833	20.419	872.721	669.748
298.847	20.383	871.982	668.982
299.862	20.386	871.743	668.750
300.876	20.448	871.540	668.772
301.891	20.532	871.322	668.872
302.906	20.797	870.113	668.903
303.920	20.978	869.846	669.331
304.935	21.029	869.244	669.007
305.949	20.661	868.539	666.994
306.964	20.672	867.980	666.549
307.979	20.624	867.737	666.118
308.993	20.780	866.979	666.073
310.008	20.925	866.170	665.946
311.022	20.671	866.024	664.807
312.037	20.641	864.985	663.836
313.052	20.459	864.434	662.660
314.066	20.390	863.662	661.745
315.081	20.370	863.243	661.291
316.095	20.533	862.356	661.173
317.110	20.625	861.564	660.854
318.125	20.443	861.268	659.878
319.139	20.397	860.907	659.368
320.154	20.460	860.314	659.095
321.168	20.361	860.376	658.709
322.183	20.572	859.330	658.651
323.197	20.503	859.117	658.166
324.212	20.701	858.348	658.269
325.227	20.478	858.028	657.120
326.241	20.432	857.193	656.249
327.256	20.639	856.333	656.313
328.270	20.453	855.987	655.289
329.285	20.489	855.431	654.943
330.300	20.598	854.979	654.947
331.314	20.587	854.366	654.378
332.329	20.752	853.819	654.522
333.343	20.824	853.442	654.446
334.358	20.805	853.159	654.100
335.373	20.731	853.046	653.677
336.387	20.975	852.735	654.298
337.402	20.947	852.591	654.023
338.416	21.057	852.170	654.056
339.431	21.199	851.753	654.209
340.446	21.183	851.598	653.973
341.460	21.265	851.196	653.912
342.475	21.420	850.345	653.783
343.489	21.376	850.044	653.328
344.504	21.493	849.662	653.413
345.519	21.551	848.811	652.918
346.533	21.513	848.332	652.350
347.548	21.207	847.933	650.844
348.562	21.067	847.240	649.735
349.577	20.939	846.508	648.637
350.592	20.862	845.762	647.723
351.606	20.816	845.131	647.013
352.621	21.087	843.941	647.049
353.635	21.042	843.861	646.762
354.650	21.098	843.248	646.443
355.665	21.098	842.425	645.757
356.679	21.250	841.860	645.829
357.694	21.332	841.472	645.777
358.708	21.152	840.664	644.433
359.723	21.226	840.029	644.164
360.738	21.088	840.025	643.594
361.752	21.089	839.151	642.869
362.767	21.290	838.584	643.121
363.781	21.599	838.214	643.914
364.796	21.624	838.030	643.811
365.810	21.901	837.201	644.133
366.825	21.820	837.150	643.738
367.840	21.649	836.557	642.600
368.854	21.594	836.159	642.035
369.869	21.516	835.565	641.235
370.883	21.587	835.033	641.031
371.898	21.787	834.606	641.377
372.913	21.828	834.246	641.196
373.927	21.578	833.747	639.842
374.942	21.610	833.127	639.424
375.956	21.792	833.014	639.945
376.971	21.794	832.989	639.878
377.986	21.903	832.043	639.493
379.000	21.986	831.906	639.633
380.015	21.872	831.123	638.558
381.029	21.878	829.966	637.636
382.044	21.875	829.797	637.439
383.059	22.094	828.951	637.527
384.073	21.834	828.431	636.128
385.088	21.569	828.194	634.928
386.102	21.651	827.332	634.507
387.117	21.575	826.561	633.587
388.132	21.612	826.121	633.325
389.146	21.660	825.586	633.033
390.161	21.971	825.150	633.767
391.175	22.086	824.617	633.716
392.190	21.815	824.029	632.231
393.205	21.670	823.467	631.220
394.219	21.552	823.489	630.756
395.234	21.691	822.475	630.424
396.248	21.499	822.435	629.648
397.263	21.486	821.796	629.055
398.278	21.514	821.146	628.604
399.292	21.362	821.198	628.041
400.307	21.387	820.575	627.599
401.321	21.611	819.899	627.828
402.336	21.664	819.365	627.554
403.350	21.816	819.441	628.103
404.365	22.062	818.491	628.199
405.380	22.005	817.867	627.460
406.394	22.075	817.688	627.519
407.409	22.241	817.234	627.705
408.423	22.155	817.091	627.232
409.438	22.330	816.555	627.391
410.453	22.262	816.545	627.084
411.467	22.412	815.932	627.092
412.482	22.436	815.589	626.858
413.496	22.375	815.335	626.393
414.511	22.648	814.709	626.826
415.526	22.382	814.305	625.515
416.540	22.300	813.697	624.702
417.555	22.311	813.104	624.230
418.569	22.306	813.123	624.170
419.584	22.280	812.866	623.826
420.599	22.311	812.721	623.769
421.613	159.100	1369.411	1788.127
422.628	138.514	1450.542	1788.235
