DTS Sentinel unit serial number:	SN413079Multiplexer serial number:	ORYXHardware model number:	OX4-SRSoftware version number:	ORYX F/W v4.00 Oryx Data Collector v3.7.2.0data status	okinstallation	princeton_trtdifferential loss correction	single-endedforward channel	channel 1reverse channel	N/Adate	2019/09/15time	10:38:35forward acquisition time	60.00reverse acquisition time	0.00gamma	496.2192k internal	0.2309k external	0.2309temperature offset calibration	0.9986default loss term (dB/km)	0.3790temperature slope calibration	1.0000multiplexer offset coefficient	1.0000multiplexer slope coefficient	1.0000fibre end	0.00T internal ref (°C)	34.25T ext. ref 1 (°C)	5.03T ext. ref 2 (°C)	29.64length (m)	temperature (°C)	Stokes	anti-Stokes-747.200	326.685	-0.086	-0.167
-746.185	54.350	0.218	-0.214
-745.171	-60.789	-0.140	-0.060
-744.156	800.000	-0.074	0.248
-743.142	-53.672	-0.268	0.124
-742.127	-200.000	-0.008	0.561
-741.112	-200.000	-0.101	0.488
-740.098	494.826	-0.113	0.264
-739.083	36.340	0.097	-0.087
-738.069	198.355	-0.098	-0.152
-737.054	-58.329	-0.242	-0.107
-736.039	-148.449	-0.296	-0.025
-735.025	177.460	0.053	0.078
-734.010	102.532	-0.074	0.088
-732.996	326.183	-0.051	0.098
-731.981	-5.252	0.231	-0.161
-730.966	800.000	0.050	0.193
-729.952	156.217	-0.127	0.177
-728.937	-105.717	0.335	-0.077
-727.923	-144.818	-0.155	-0.014
-726.908	-86.004	-0.018	-0.006
-725.894	-155.270	0.153	0.010
-724.879	-126.519	0.056	0.008
-723.864	87.162	-0.110	-0.124
-722.850	-2.341	0.265	0.189
-721.835	17.840	0.088	0.071
-720.821	35.248	0.108	-0.096
-719.806	-200.000	0.001	-0.125
-718.791	433.641	-0.056	-0.124
-717.777	-200.000	-0.019	-0.357
-716.762	-25.916	-0.130	0.077
-715.748	800.000	-0.041	0.163
-714.733	187.722	0.077	-0.117
-713.718	-50.330	0.188	-0.090
-712.704	-8.690	-0.341	-0.232
-711.689	-159.866	0.128	0.007
-710.675	552.145	0.116	0.282
-709.660	800.000	0.046	0.136
-708.645	307.021	-0.071	-0.135
-707.631	800.000	-0.072	0.220
-706.616	-34.498	-0.427	-0.237
-705.602	800.000	-0.023	0.073
-704.587	-200.000	-0.035	-0.317
-703.572	-137.471	0.250	0.029
-702.558	546.269	-0.037	0.090
-701.543	380.592	0.076	-0.159
-700.529	800.000	0.085	-0.254
-699.514	-119.913	0.061	0.011
-698.499	-185.474	-0.469	0.007
-697.485	212.263	-0.110	0.176
-696.470	-79.292	-0.279	-0.096
-695.456	86.107	0.139	-0.155
-694.441	-200.000	0.009	-0.121
-693.426	-200.000	0.024	-0.118
-692.412	-107.171	-0.204	0.046
-691.397	426.421	-0.017	0.038
-690.383	204.229	0.135	0.212
-689.368	-200.000	-0.035	-0.194
-688.354	-158.447	-0.359	0.021
-687.339	221.929	-0.047	0.077
-686.324	-134.556	0.300	-0.037
-685.310	-119.309	0.351	0.062
-684.295	49.016	0.183	-0.174
-683.281	498.490	0.080	0.188
-682.266	800.000	-0.051	-0.160
-681.251	-200.000	-0.017	-0.088
-680.237	-200.000	0.024	-0.553
-679.222	353.882	-0.165	-0.332
-678.208	6.048	-0.208	0.156
-677.193	-179.487	0.174	0.004
-676.178	68.080	0.154	-0.160
-675.164	-96.497	0.137	0.037
-674.149	-40.183	-0.278	0.147
-673.135	-135.937	0.114	0.014
-672.120	90.468	0.092	0.105
-671.105	39.190	0.215	0.195
-670.091	746.570	0.115	0.314
-669.076	18.141	-0.382	-0.308
-668.062	96.342	-0.055	0.063
-667.047	-65.287	-0.224	0.091
-666.032	43.496	0.360	-0.333
-665.018	236.043	0.097	-0.162
-664.003	402.054	0.183	-0.390
-662.989	-156.669	-0.206	0.013
-661.974	800.000	0.041	0.147
-660.959	127.038	0.303	0.390
-659.945	163.914	-0.129	0.184
-658.930	-200.000	-0.033	0.181
-657.916	43.541	-0.255	-0.236
-656.901	377.031	0.107	-0.222
-655.886	-4.774	0.095	0.066
-654.872	-24.235	-0.278	-0.168
-653.857	800.000	0.075	0.243
-652.843	-33.751	0.376	0.210
-651.828	-131.129	-0.350	-0.047
-650.814	800.000	-0.024	0.075
-649.799	800.000	0.116	0.489
-648.784	-200.000	0.017	-0.134
-647.770	-37.724	-0.240	-0.129
-646.755	141.626	0.120	0.161
-645.741	-105.254	-0.097	-0.022
-644.726	-200.000	-0.021	0.180
-643.711	800.000	-0.064	0.186
-642.697	643.175	0.033	0.085
-641.682	-200.000	0.017	-0.153
-640.668	-133.150	-0.182	-0.023
-639.653	-52.354	-0.173	-0.081
-638.638	-89.942	-0.176	0.052
-637.624	-200.000	0.028	-0.131
-636.609	-129.148	-0.126	0.018
-635.595	800.000	-0.093	0.297
-634.580	421.066	-0.038	0.083
-633.565	-200.000	0.022	0.194
-632.551	-22.460	-0.448	-0.275
-631.536	800.000	-0.085	-0.296
-630.522	-89.981	-0.332	0.098
-629.507	-146.345	0.447	0.040
-628.492	-200.000	-0.039	0.211
-627.478	-41.961	-0.059	0.031
-626.463	3.809	-0.442	-0.327
-625.449	222.591	-0.024	-0.038
-624.434	256.936	0.009	0.016
-623.419	-26.526	-0.251	-0.149
-622.405	202.246	0.097	-0.151
-621.390	0.913	-0.182	0.132
-620.376	465.648	0.105	0.238
-619.361	-200.000	-0.008	-0.247
-618.346	-200.000	0.031	0.481
-617.332	15.704	0.097	-0.077
-616.317	24.468	-0.123	-0.103
-615.303	-78.698	-0.052	0.018
-614.288	800.000	-0.055	-0.177
-613.273	-138.956	0.253	0.028
-612.259	241.803	-0.111	0.188
-611.244	800.000	-0.059	0.214
-610.230	-200.000	-0.027	-0.190
-609.215	497.407	-0.067	0.156
-608.201	-161.250	-0.104	0.005
-607.186	-200.000	0.075	-0.413
-606.171	267.685	-0.107	-0.189
-605.157	26.952	0.105	0.089
-604.142	-113.786	-0.127	-0.025
-603.128	-20.830	0.241	0.149
-602.113	-152.358	0.145	-0.011
-601.098	219.026	0.014	-0.022
-600.084	-126.773	-0.093	-0.014
-599.069	146.935	0.084	0.114
-598.055	-109.145	-0.198	0.043
-597.040	-200.000	0.025	-0.135
-596.025	-200.000	-0.034	-0.298
-595.011	54.228	0.130	-0.126
-593.996	18.203	-0.093	0.075
-592.982	800.000	0.056	0.228
-591.967	-200.000	0.004	-0.104
-590.952	118.253	0.087	0.109
-589.938	8.848	-0.202	0.154
-588.923	140.646	0.351	0.468
-587.909	-200.000	-0.028	0.151
-586.894	-61.032	-0.307	0.131
-585.879	-200.000	-0.006	0.074
-584.865	-200.000	-0.031	-0.445
-583.850	50.942	-0.127	-0.122
-582.836	800.000	-0.110	-0.373
-581.821	463.165	-0.047	0.106
-580.806	-200.000	-0.000	0.124
-579.792	-200.000	0.053	-0.363
-578.777	-59.730	-0.275	0.119
-577.763	161.625	-0.093	-0.131
-576.748	-200.000	0.018	-0.192
-575.733	240.553	0.137	0.230
-574.719	-200.000	0.025	0.224
-573.704	-17.464	0.178	0.113
-572.690	138.005	0.122	0.161
-571.675	184.139	0.104	0.156
-570.661	800.000	0.061	0.268
-569.646	-200.000	-0.006	0.049
-568.631	-112.038	0.150	0.031
-567.617	-136.342	-0.299	-0.035
-566.602	-112.022	0.264	-0.054
-565.588	59.184	-0.219	0.218
-564.573	-20.526	0.089	0.055
-563.558	800.000	0.009	0.031
-562.544	77.346	-0.095	0.101
-561.529	-101.445	-0.257	0.063
-560.515	-200.000	-0.005	0.070
-559.500	37.839	0.181	-0.162
-558.485	800.000	-0.071	0.266
-557.471	800.000	-0.064	0.235
-556.456	522.187	0.180	-0.426
-555.442	663.635	0.104	-0.271
-554.427	215.662	-0.130	-0.208
-553.412	-200.000	0.010	-0.256
-552.398	-73.190	-0.102	-0.038
-551.383	295.378	-0.061	0.112
-550.369	17.709	-0.078	0.063
-549.354	-63.471	0.261	-0.108
-548.339	176.141	-0.174	0.254
-547.325	-103.551	-0.229	-0.054
-546.310	-200.000	-0.041	-0.193
-545.296	-49.100	-0.013	0.006
-544.281	-172.378	0.268	-0.009
-543.266	-200.000	-0.014	-0.183
-542.252	39.495	0.166	0.150
-541.237	-97.735	0.302	0.079
-540.223	65.368	0.064	0.065
-539.208	27.683	-0.222	-0.189
-538.193	34.686	0.328	0.289
-537.179	-47.559	0.091	0.044
-536.164	800.000	-0.026	-0.095
-535.150	-91.434	0.234	-0.067
-534.135	800.000	0.026	0.111
-533.121	15.077	0.139	-0.110
-532.106	722.114	-0.020	0.054
-531.091	-28.998	0.292	-0.169
-530.077	103.857	0.039	0.046
-529.062	67.637	0.215	-0.221
-528.048	67.743	-0.048	-0.050
-527.033	-140.303	0.086	0.009
-526.018	-200.000	0.019	-0.429
-525.004	-104.490	-0.063	0.015
-523.989	-140.305	-0.248	0.026
-522.975	-200.000	0.011	0.069
-521.960	69.674	0.041	0.042
-520.945	252.829	-0.246	0.422
-519.931	-74.273	0.322	0.117
-518.916	-22.645	-0.111	0.068
-517.902	-200.000	0.043	-0.321
-516.887	225.704	0.157	-0.257
-515.872	132.836	0.052	0.067
-514.858	275.863	-0.095	0.169
-513.843	-166.807	-0.075	-0.003
-512.829	-36.326	-0.074	0.040
-511.814	800.000	0.092	-0.308
-510.799	-200.000	-0.034	-0.179
-509.785	190.906	0.157	-0.237
-508.770	84.762	-0.162	0.178
-507.756	83.229	0.211	-0.231
-506.741	229.178	-0.194	0.319
-505.726	69.070	0.101	-0.105
-504.712	395.292	-0.089	-0.188
-503.697	-200.000	-0.282	0.001
-502.683	760.257	0.033	-0.090
-501.668	-148.326	-0.127	-0.011
-500.653	-15.819	-0.271	-0.174
-499.639	-200.000	0.004	-0.110
-498.624	-128.260	-0.157	-0.023
-497.610	-200.000	0.018	-0.264
-496.595	360.512	-0.069	-0.138
-495.581	19.214	0.245	-0.198
-494.566	-200.000	0.010	-0.110
-493.551	630.243	-0.151	0.384
-492.537	578.401	0.025	-0.063
-491.522	60.837	-0.218	0.218
-490.508	507.288	0.095	0.221
-489.493	-135.221	-0.160	-0.019
-488.478	-200.000	-0.037	0.373
-487.464	-9.644	-0.375	0.251
-486.449	70.591	-0.205	0.214
-485.435	-89.642	-0.419	-0.124
-484.420	800.000	-0.037	-0.104
-483.405	-200.000	0.070	0.357
-482.391	235.693	-0.182	-0.302
-481.376	800.000	0.091	-0.368
-480.362	469.784	0.037	-0.084
-479.347	-159.336	-0.195	-0.011
-478.332	800.000	0.026	0.102
-477.318	-36.716	-0.114	-0.062
-476.303	-200.000	0.043	-0.312
-475.289	-200.000	0.029	-0.194
-474.274	350.968	-0.231	-0.459
-473.259	-163.875	-0.148	0.007
-472.245	-200.000	0.066	-0.294
-471.230	800.000	0.059	-0.253
-470.216	81.666	0.175	0.190
-469.201	364.146	-0.048	0.098
-468.186	15.869	0.209	0.166
-467.172	113.636	0.350	0.427
-466.157	375.628	-0.114	-0.233
-465.143	-200.000	-0.013	-0.348
-464.128	515.901	-0.035	0.082
-463.113	-180.644	-0.158	0.003
-462.099	800.000	-0.044	0.164
-461.084	-102.541	0.111	-0.027
-460.070	-75.281	-0.239	-0.086
-459.055	584.619	-0.083	0.206
-458.040	220.269	0.160	0.257
-457.026	-17.362	-0.192	0.121
-456.011	193.313	0.048	0.073
-454.997	-168.161	-0.335	0.013
-453.982	30.072	-0.048	0.041
-452.968	-162.542	0.149	0.007
-451.953	117.749	0.156	0.193
-450.938	-200.000	-0.256	-0.001
-449.924	66.840	0.285	-0.291
-448.909	-200.000	0.015	0.117
-447.895	-110.428	-0.073	0.015
-446.880	124.830	-0.090	0.114
-445.865	800.000	-0.009	-0.027
-444.851	558.804	-0.060	0.146
-443.836	-145.795	0.098	0.009
-442.822	-21.377	0.176	-0.108
-441.807	800.000	-0.012	-0.048
-440.792	-200.000	0.019	-0.086
-439.778	800.000	-0.074	-0.215
-438.763	-200.000	0.017	0.085
-437.749	800.000	0.087	-0.285
-436.734	-200.000	0.015	-0.089
-435.719	-120.647	0.348	-0.059
-434.705	102.033	-0.184	-0.216
-433.690	722.774	0.158	-0.422
-432.676	379.279	0.184	0.379
-431.661	120.413	0.083	-0.103
-430.646	-200.000	0.006	0.158
-429.632	38.856	-0.133	0.119
-428.617	-121.879	-0.113	0.019
-427.603	-116.201	0.420	0.078
-426.588	201.673	0.056	-0.086
-425.573	-198.021	0.299	0.002
-424.559	61.736	-0.220	0.219
-423.544	-200.000	-0.011	-0.144
-422.530	-200.000	0.031	0.360
-421.515	243.365	0.022	-0.037
-420.500	-98.692	0.041	0.010
-419.486	-10.744	-0.062	-0.041
-418.471	-71.003	0.142	-0.054
-417.457	-77.084	-0.390	0.136
-416.442	-120.722	-0.386	-0.065
-415.428	-200.000	-0.011	0.332
-414.413	-39.850	0.200	0.105
-413.398	-3.850	-0.156	-0.109
-412.384	-31.132	0.365	-0.207
-411.369	800.000	-0.087	0.282
-410.355	-92.152	-0.115	0.033
-409.340	-200.000	0.005	0.175
-408.325	142.321	0.082	0.109
-407.311	-52.744	0.154	0.071
-406.296	-200.000	0.008	-0.198
-405.282	-200.000	0.022	-0.231
-404.267	380.141	0.142	0.292
-403.252	65.950	0.063	0.064
-402.238	-84.110	-0.021	-0.007
-401.223	13.229	-0.251	0.195
-400.209	390.320	0.100	-0.207
-399.194	-102.645	-0.110	-0.026
-398.179	-200.000	-0.028	0.316
-397.165	-113.503	-0.039	-0.008
-396.150	-200.000	0.004	-0.114
-395.136	-53.026	0.074	0.034
-394.121	50.121	-0.210	0.199
-393.106	-15.936	0.156	0.099
-392.092	-38.195	0.324	-0.172
-391.077	-115.821	0.409	-0.077
-390.063	107.004	-0.103	0.122
-389.048	-3.664	0.310	-0.216
-388.033	69.318	-0.026	0.027
-387.019	-142.548	-0.101	-0.010
-386.004	-107.330	-0.261	-0.058
-384.990	73.701	-0.193	0.203
-383.975	-200.000	-0.035	0.164
-382.960	800.000	0.070	-0.194
-381.946	83.996	-0.150	-0.164
-380.931	-94.226	0.076	-0.021
-379.917	85.816	0.088	0.097
-378.902	78.849	0.116	0.124
-377.888	-1.924	0.087	0.061
-376.873	31.937	-0.190	-0.164
-375.858	-200.000	0.047	0.503
-374.844	800.000	0.034	0.149
-373.829	34.432	0.087	0.076
-372.815	-94.863	-0.090	0.024
-371.800	466.778	-0.142	-0.319
-370.785	18.318	0.174	-0.139
-369.771	-130.577	0.469	-0.063
-368.756	430.341	0.143	-0.309
-367.742	-133.369	0.166	-0.021
-366.727	-200.000	0.011	0.150
-365.712	12.317	0.511	-0.394
-364.698	-106.236	0.127	-0.028
-363.683	61.039	-0.058	0.058
-362.669	-200.000	0.024	-0.217
-361.654	149.270	0.227	-0.308
-360.639	-200.000	0.005	-0.026
-359.625	-200.000	-0.014	0.206
-358.610	160.167	-0.084	-0.117
-357.596	-56.790	0.180	-0.080
-356.581	-168.566	0.058	-0.002
-355.566	-137.061	-0.141	0.016
-354.552	-200.000	0.008	0.136
-353.537	-142.169	0.223	-0.022
-352.523	-200.000	-0.024	0.297
-351.508	84.191	0.123	0.135
-350.493	-24.125	0.195	0.116
-349.479	800.000	0.049	-0.153
-348.464	37.978	0.125	-0.111
-347.450	50.949	0.110	0.104
-346.435	10.707	0.243	-0.186
-345.420	314.162	0.047	0.088
-344.406	17.375	0.151	0.120
-343.391	679.049	0.124	0.323
-342.377	-63.956	-0.151	-0.062
-341.362	-200.000	0.028	0.329
-340.348	302.577	-0.094	0.173
-339.333	173.234	-0.223	0.321
-338.318	-137.884	0.129	-0.014
-337.304	-61.815	-0.152	-0.064
-336.289	-114.345	0.246	-0.047
-335.275	456.051	-0.200	-0.443
-334.260	-200.000	0.035	-0.268
-333.245	-92.784	0.164	0.046
-332.231	-200.000	0.039	-0.238
-331.216	-200.000	-0.022	-0.332
-330.202	-115.791	-0.165	-0.031
-329.187	150.135	-0.236	-0.321
-328.172	-200.000	-0.004	0.093
-327.158	-200.000	0.024	0.112
-326.143	111.884	0.242	0.292
-325.129	48.267	0.180	-0.168
-324.114	800.000	-0.002	-0.006
-323.099	-133.946	-0.140	-0.017
-322.085	40.002	0.138	0.124
-321.070	-182.160	0.197	0.004
-320.056	800.000	0.013	0.040
-319.041	101.506	0.137	0.159
-318.026	501.814	-0.025	0.058
-317.012	-200.000	-0.093	0.466
-315.997	-121.924	0.274	0.045
-314.983	154.848	-0.092	0.126
-313.968	405.895	0.083	0.175
-312.953	59.387	0.043	0.043
-311.939	-149.206	0.254	0.020
-310.924	-200.000	-0.053	-0.439
-309.910	-88.240	0.115	0.034
-308.895	17.767	-0.307	-0.244
-307.880	800.000	0.138	0.444
-306.866	-37.607	-0.027	-0.014
-305.851	800.000	-0.081	-0.268
-304.837	272.691	-0.072	-0.127
-303.822	-200.000	-0.049	-0.229
-302.807	800.000	-0.088	-0.246
-301.793	52.474	-0.222	0.212
-300.778	-27.726	-0.126	-0.073
-299.764	800.000	0.080	-0.328
-298.749	147.621	0.072	-0.096
-297.735	191.515	0.112	-0.169
-296.720	34.718	0.052	-0.045
-295.705	57.428	0.123	-0.120
-294.691	173.053	0.130	0.187
-293.676	-55.398	0.347	0.155
-292.662	-200.000	-0.006	0.096
-291.647	-200.000	-0.020	-0.266
-290.632	317.083	0.110	-0.207
-289.618	-15.705	0.140	0.089
-288.603	584.575	-0.146	0.357
-287.589	-200.000	-0.109	-0.000
-286.574	273.287	0.083	0.147
-285.559	-126.776	-0.155	-0.023
-284.545	800.000	-0.064	-0.223
-283.530	-95.778	0.155	0.041
-282.516	66.282	-0.172	0.174
-281.501	-200.000	-0.028	-0.221
-280.486	458.256	-0.051	-0.113
-279.472	-61.156	0.092	0.039
-278.457	231.108	0.125	0.204
-277.443	-89.085	0.117	0.035
-276.428	-200.000	-0.004	0.370
-275.413	-200.000	-0.034	0.210
-274.399	-58.670	-0.334	-0.144
-273.384	-131.865	-0.082	0.011
-272.370	116.089	-0.191	-0.234
-271.355	120.848	0.069	-0.086
-270.340	318.749	-0.039	-0.073
-269.326	462.256	-0.087	0.194
-268.311	-95.129	0.310	0.083
-267.297	-149.888	0.175	-0.014
-266.282	-191.419	-0.396	0.004
-265.267	-200.000	0.064	0.316
-264.253	-107.828	0.354	-0.077
-263.238	568.503	0.119	-0.289
-262.224	800.000	0.041	0.122
-261.209	-3.575	0.289	0.200
-260.195	-26.286	0.156	0.091
-259.180	-12.434	0.375	0.244
-258.165	-50.732	-0.182	0.085
-257.151	800.000	-0.092	0.267
-256.136	800.000	-0.017	-0.048
-255.122	639.821	0.057	-0.145
-254.107	-32.198	-0.184	0.103
-253.092	-89.790	0.308	0.090
-252.078	-101.926	0.199	0.048
-251.063	-200.000	0.082	0.603
-250.049	82.606	-0.114	0.124
-249.034	-200.000	-0.003	-0.093
-248.019	-200.000	-0.011	0.191
-247.005	736.391	0.053	-0.143
-245.990	-1.651	-0.266	0.187
-244.976	-200.000	0.028	0.173
-243.961	-39.373	0.185	0.097
-242.946	-161.323	-0.184	-0.009
-241.932	80.883	-0.204	0.219
-240.917	-200.000	0.007	0.170
-239.903	-65.633	0.225	0.090
-238.888	-21.338	-0.246	0.150
-237.873	372.879	-0.109	0.221
-236.859	-200.000	0.048	0.306
-235.844	17.379	0.079	0.063
-234.830	-51.240	-0.201	-0.094
-233.815	242.023	-0.121	-0.201
-232.800	87.689	-0.335	-0.370
-231.786	-35.367	0.087	-0.047
-230.771	192.849	-0.064	-0.096
-229.757	-4.557	0.223	0.153
-228.742	-143.611	-0.176	0.017
-227.727	-39.055	0.239	-0.125
-226.713	141.855	-0.278	0.367
-225.698	-49.505	0.209	-0.099
-224.684	-200.000	0.020	-0.140
-223.669	800.000	-0.138	-0.416
-222.655	-200.000	-0.009	0.126
-221.640	190.801	0.099	-0.148
-220.625	-4.378	0.103	0.071
-219.611	86.496	0.180	0.198
-218.596	54.922	-0.179	0.172
-217.582	-116.724	0.177	0.032
-216.567	-200.000	-0.048	0.394
-215.552	84.413	-0.150	0.163
-214.538	-40.881	-0.224	-0.116
-213.523	-43.910	0.204	0.102
-212.509	39.523	-0.152	-0.136
-211.494	-10.459	-0.309	0.204
-210.479	-79.550	0.249	-0.084
-209.465	293.998	0.192	0.348
-208.450	107.834	0.156	0.184
-207.436	13.949	-0.214	0.165
-206.421	800.000	-0.098	0.347
-205.406	648.043	0.035	0.088
-204.392	152.915	0.027	0.036
-203.377	-200.000	-0.075	-0.469
-202.363	-155.678	0.221	0.014
-201.348	-61.828	-0.068	-0.028
-200.333	-50.929	0.140	-0.065
-199.319	-33.199	-0.272	-0.150
-198.304	-200.000	0.006	-0.133
-197.290	-200.000	0.035	0.155
-196.275	78.023	-0.181	-0.192
-195.260	-7.720	-0.194	-0.130
-194.246	-138.015	-0.237	-0.026
-193.231	120.841	0.135	-0.166
-192.217	-200.000	0.003	-0.116
-191.202	297.577	-0.124	-0.227
-190.187	-42.609	-0.323	-0.163
-189.173	4.090	-0.098	0.071
-188.158	-82.337	0.063	-0.020
-187.144	141.053	-0.167	-0.219
-186.129	-32.193	-0.127	0.070
-185.114	-185.693	-0.387	-0.006
-184.100	33.543	-0.133	-0.115
-183.085	-135.196	0.200	-0.024
-182.071	734.616	-0.075	0.200
-181.056	122.449	0.092	-0.114
-180.042	30.038	0.199	-0.169
-179.027	654.369	-0.166	-0.422
-178.012	-200.000	0.042	0.206
-176.998	-168.509	-0.356	-0.014
-175.983	-200.000	-0.006	-0.068
-174.969	785.951	0.035	-0.095
-173.954	-107.024	-0.044	-0.010
-172.939	-95.221	0.403	0.108
-171.925	-102.275	-0.292	0.070
-170.910	-200.000	0.064	0.286
-169.896	800.000	-0.048	0.134
-168.881	-9.672	-0.060	-0.040
-167.866	-107.067	0.456	-0.100
-166.852	-56.865	-0.110	-0.048
-165.837	-20.854	0.109	-0.066
-164.823	157.090	0.133	-0.182
-163.808	-200.000	-0.047	-0.427
-162.793	510.656	0.130	-0.300
-161.779	-22.885	-0.140	-0.084
-160.764	-136.401	-0.258	-0.030
-159.750	88.120	0.199	0.219
-158.735	-200.000	0.033	-0.376
-157.720	-11.945	-0.051	0.033
-156.706	342.678	0.110	-0.214
-155.691	-52.836	-0.437	-0.200
-154.677	800.000	-0.119	-0.429
-153.662	-200.000	0.024	-0.377
-152.647	-41.292	0.144	-0.074
-151.633	-200.000	0.020	0.141
-150.618	260.783	0.129	-0.221
-149.604	375.500	-0.192	-0.389
-148.589	-73.098	0.353	0.129
-147.574	-200.000	-0.013	-0.134
-146.560	8.549	0.140	-0.105
-145.545	213.690	0.184	0.288
-144.531	-200.000	0.004	-0.167
-143.516	39.299	-0.146	0.130
-142.502	168.214	0.127	-0.179
-141.487	-92.811	0.196	0.054
-140.472	-42.205	-0.370	0.187
-139.458	800.000	0.012	0.044
-138.443	-200.000	0.031	0.184
-137.429	-200.000	-0.066	-0.362
-136.414	168.003	0.074	-0.105
-135.399	-54.568	-0.173	-0.078
-134.385	220.296	-0.104	0.166
-133.370	-200.000	-0.011	0.101
-132.356	-200.000	-0.028	-0.183
-131.341	467.786	0.112	0.249
-130.326	-65.840	-0.199	-0.079
-129.312	247.052	0.105	-0.175
-128.297	-200.000	0.009	-0.165
-127.283	-200.000	0.000	-0.170
-126.268	-90.777	0.112	-0.032
-125.253	-86.299	-0.115	0.035
-124.239	-154.367	-0.160	-0.011
-123.224	-31.121	0.125	0.070
-122.210	186.657	0.080	-0.119
-121.195	-200.000	-0.004	-0.247
-120.180	-72.709	0.229	-0.084
-119.166	-200.000	-0.020	0.112
-118.151	-200.000	-0.009	-0.325
-117.137	-200.000	-0.020	0.237
-116.122	800.000	0.028	-0.081
-115.107	-200.000	0.017	0.098
-114.093	-200.000	0.002	0.064
-113.078	56.150	-0.154	0.148
-112.064	-76.687	-0.157	-0.055
-111.049	-180.160	-0.348	0.007
-110.034	800.000	0.025	-0.078
-109.020	-102.037	-0.218	-0.052
-108.005	-200.000	0.025	0.268
-106.991	-200.000	-0.019	0.142
-105.976	-134.153	-0.188	-0.023
-104.962	-88.710	0.187	-0.055
-103.947	800.000	0.067	-0.218
-102.932	-200.000	-0.002	-0.131
-101.918	-200.000	-0.042	0.220
-100.903	618.264	0.106	0.263
-99.889	44.422	-0.106	0.097
-98.874	-90.295	-0.157	-0.045
-97.859	89.169	-0.086	-0.094
-96.845	-19.997	0.233	-0.143
-95.830	468.967	0.052	0.116
-94.816	551.995	0.098	0.234
-93.801	-68.352	0.108	-0.042
-92.786	-186.545	0.326	-0.005
-91.772	617.565	0.112	-0.279
-90.757	-116.782	0.221	0.040
-89.743	-15.171	-0.213	0.135
-88.728	800.000	0.093	0.265
-87.713	-8.568	-0.172	-0.115
-86.699	49.195	0.233	-0.217
-85.684	-120.997	-0.362	-0.060
-84.670	-122.985	0.347	-0.055
-83.655	-62.295	0.295	-0.122
-82.640	138.755	-0.023	-0.030
-81.626	-60.092	0.100	0.042
-80.611	-186.211	-0.299	-0.004
-79.597	-47.318	-0.256	0.123
-78.582	544.052	0.046	0.109
-77.567	10.780	-0.196	0.148
-76.553	800.000	0.031	-0.117
-75.538	-200.000	0.019	-0.182
-74.524	800.000	0.047	-0.130
-73.509	-200.000	0.096	0.465
-72.494	119.234	-0.159	0.195
-71.480	-200.000	0.039	0.195
-70.465	8.548	0.302	-0.225
-69.451	-138.590	-0.266	0.029
-68.436	-200.000	-0.026	-0.352
-67.422	83.758	-0.152	-0.165
-66.407	-18.898	-0.131	0.081
-65.392	-57.675	0.217	-0.094
-64.378	-200.000	0.001	-0.004
-63.363	-200.000	0.097	0.420
-62.349	76.066	0.325	0.340
-61.334	39.491	-0.841	-0.745
-60.319	613.258	0.165	0.409
-59.305	159.458	-0.585	-0.806
-58.290	-200.000	0.194	0.843
-57.276	339.113	0.781	1.504
-56.261	-200.000	97.232	574.433
-55.246	628.126	1402.021	3502.950
-54.232	186.261	2608.969	3838.413
-53.217	121.254	2184.173	2689.283
-52.203	46.021	1633.202	1494.775
-51.188	37.717	1367.721	1200.824
-50.173	34.467	1324.972	1143.795
-49.159	56.377	1373.937	1320.293
-48.144	60.328	1391.553	1361.238
-47.130	38.141	1345.921	1184.072
-46.115	34.473	1327.775	1146.068
-45.100	34.181	1323.772	1140.817
-44.086	34.060	1321.428	1138.027
-43.071	34.086	1318.805	1135.877
-42.057	34.058	1317.194	1134.277
-41.042	34.099	1315.130	1132.703
-40.027	34.118	1314.037	1131.828
-39.013	34.181	1311.539	1130.003
-37.998	34.085	1310.166	1128.208
-36.984	34.305	1308.067	1127.659
-35.969	34.391	1305.775	1126.149
-34.954	34.286	1304.435	1124.323
-33.940	34.266	1303.646	1123.481
-32.925	34.281	1302.192	1122.272
-31.911	34.261	1300.963	1121.051
-30.896	34.320	1299.280	1119.907
-29.881	34.335	1297.692	1118.582
-28.867	34.296	1297.007	1117.718
-27.852	34.396	1294.878	1116.422
-26.838	34.410	1293.726	1115.468
-25.823	34.332	1292.247	1113.694
-24.809	34.345	1290.817	1112.492
-23.794	34.422	1289.164	1111.470
-22.779	34.419	1287.975	1110.382
-21.765	34.347	1286.724	1108.842
-20.750	34.269	1285.648	1107.416
-19.736	34.227	1284.341	1106.004
-18.721	34.169	1283.121	1104.571
-17.706	34.180	1281.741	1103.407
-16.692	34.245	1280.367	1102.553
-15.677	34.208	1279.431	1101.493
-14.663	34.218	1278.460	1100.670
-13.648	34.193	1277.394	1099.561
-12.633	34.209	1276.455	1098.804
-11.619	34.132	1275.802	1097.753
-10.604	34.237	1274.519	1097.212
-9.590	34.256	1273.561	1096.452
-8.575	34.137	1272.730	1095.012
-7.560	34.141	1271.850	1094.231
-6.546	34.174	1270.683	1093.375
-5.531	34.070	1270.072	1092.206
-4.517	34.241	1269.341	1092.518
-3.502	34.277	1268.038	1091.556
-2.487	34.189	1267.835	1090.834
-1.473	34.257	1263.363	1087.336
-0.458	32.821	1248.653	1066.519
0.556	27.876	1230.325	1026.196
1.571	23.950	1235.337	1008.089
2.586	22.894	1250.647	1014.428
3.600	22.177	1240.185	1001.769
4.615	17.072	1168.208	916.067
5.629	8.928	1092.473	815.342
6.644	5.322	1071.573	781.664
7.659	4.998	1069.007	778.104
8.673	4.949	1067.843	776.945
9.688	4.862	1066.496	775.467
10.702	5.170	1065.037	775.864
11.717	10.144	1072.224	805.866
12.731	17.303	1082.168	849.151
13.746	19.421	1083.569	860.754
14.761	18.125	1081.468	852.551
15.775	16.790	1079.784	844.498
16.790	16.039	1077.127	838.610
17.804	15.260	1075.438	833.348
18.819	14.800	1074.471	830.242
19.834	14.596	1073.621	828.498
20.848	14.237	1072.811	826.019
21.863	14.166	1072.171	825.102
22.877	14.083	1070.786	823.552
23.892	13.992	1070.000	822.421
24.907	14.062	1069.817	822.557
25.921	14.021	1068.568	821.319
26.936	14.139	1067.015	820.635
27.950	14.088	1065.811	819.388
28.965	14.045	1064.596	818.169
29.980	14.222	1062.561	817.403
30.994	14.236	1061.752	816.775
32.009	14.287	1060.640	816.096
33.023	14.287	1059.636	815.253
34.038	14.176	1058.477	813.748
35.053	14.239	1057.746	813.417
36.067	14.145	1056.635	812.035
37.082	14.236	1055.651	811.649
38.096	14.206	1055.386	811.228
39.111	14.217	1054.556	810.573
40.126	14.128	1053.019	808.888
41.140	14.029	1051.495	807.162
42.155	14.055	1050.713	806.620
43.169	13.880	1049.589	804.834
44.184	13.905	1048.592	804.119
45.199	13.865	1047.549	803.059
46.213	14.028	1046.366	802.866
47.228	13.917	1045.862	801.873
48.242	13.894	1044.574	800.700
49.257	14.043	1043.392	800.445
50.271	14.228	1042.529	800.600
51.286	14.120	1041.707	799.380
52.301	14.151	1040.527	798.554
53.315	14.064	1039.895	797.580
54.330	13.953	1038.878	796.198
55.344	14.002	1037.552	795.343
56.359	13.991	1036.925	794.742
57.374	13.879	1036.344	793.688
58.388	13.901	1035.158	792.816
59.403	13.878	1034.661	792.256
60.417	13.901	1033.703	791.561
61.432	13.820	1032.791	790.409
62.447	13.894	1031.998	790.083
63.461	13.765	1031.447	788.980
64.476	13.750	1030.246	787.916
65.490	13.865	1029.478	787.807
66.505	13.838	1028.735	787.038
67.520	13.939	1027.702	786.660
68.534	13.897	1027.284	786.072
69.549	13.864	1026.479	785.229
70.563	13.786	1025.982	784.411
71.578	13.667	1025.175	783.161
72.593	13.685	1024.395	782.584
73.607	13.696	1023.586	781.945
74.622	13.661	1022.954	781.228
75.636	13.842	1021.933	781.231
76.651	13.788	1021.345	780.461
77.666	13.729	1020.627	779.566
78.680	13.737	1020.137	779.160
79.695	13.917	1019.141	779.174
80.709	13.956	1018.265	778.617
81.724	13.895	1018.096	778.134
82.739	13.931	1017.292	777.622
83.753	14.088	1016.705	777.835
84.768	14.164	1016.081	777.647
85.782	14.199	1014.856	776.803
86.797	14.213	1013.650	775.876
87.812	14.061	1013.222	774.770
88.826	14.138	1011.975	774.107
89.841	14.195	1011.244	773.746
90.855	14.189	1010.357	772.970
91.870	14.177	1010.106	772.655
92.884	14.281	1008.635	771.945
93.899	14.202	1008.021	771.039
94.914	14.235	1006.879	770.252
95.928	14.254	1006.158	769.720
96.943	14.202	1005.265	768.724
97.957	14.181	1004.557	768.018
98.972	14.300	1003.772	767.898
99.987	14.236	1002.561	766.610
101.001	14.258	1001.433	765.783
102.016	14.248	1000.458	764.924
103.030	14.212	1000.261	764.539
104.045	14.286	999.010	763.855
105.060	14.260	997.801	762.745
106.074	14.062	997.190	761.302
107.089	13.994	996.142	760.123
108.103	13.873	995.496	759.011
109.118	13.916	994.585	758.444
110.133	13.964	993.452	757.734
111.147	13.929	993.122	757.258
112.162	13.981	992.122	756.663
113.176	14.053	991.404	756.375
114.191	14.046	990.478	755.569
115.206	14.053	989.618	754.881
116.220	14.000	988.805	753.950
117.235	14.118	987.701	753.578
118.249	14.053	986.728	752.475
119.264	14.028	985.970	751.715
120.279	13.921	985.672	750.940
121.293	13.974	984.433	750.170
122.308	13.945	983.631	749.361
123.322	13.916	982.830	748.556
124.337	13.934	981.446	747.513
125.352	13.887	980.447	746.478
126.366	13.952	979.134	745.704
127.381	13.932	978.552	745.101
128.395	13.886	977.937	744.362
129.410	14.017	976.788	744.008
130.424	14.003	976.167	743.406
131.439	14.023	975.721	743.093
132.454	14.121	974.438	742.487
133.468	14.118	973.755	741.886
134.483	14.084	973.073	741.151
135.497	14.151	972.076	740.625
136.512	14.103	971.255	739.718
137.527	14.206	970.044	739.188
138.541	14.148	969.807	738.683
139.556	14.150	968.749	737.824
140.570	14.311	968.160	738.021
141.585	14.251	967.383	737.097
142.600	14.258	966.344	736.271
143.614	14.386	965.613	736.216
144.629	14.363	964.962	735.554
145.643	14.265	964.027	734.345
146.658	14.130	963.326	733.149
147.673	14.162	962.311	732.452
148.687	14.277	961.306	732.129
149.702	14.103	960.383	730.597
150.716	14.190	959.563	730.290
151.731	14.151	959.199	729.779
152.746	14.140	958.305	728.984
153.760	14.238	957.815	728.975
154.775	14.134	957.519	728.232
155.789	14.322	956.451	728.174
156.804	14.386	956.224	728.221
157.819	14.357	955.357	727.366
158.833	14.382	954.701	726.914
159.848	14.521	953.641	726.646
160.862	14.320	952.792	725.062
161.877	14.210	951.741	723.720
162.892	14.289	950.606	723.134
163.906	14.292	949.451	722.207
164.921	14.153	949.340	721.452
165.935	14.247	948.112	720.864
166.950	14.265	947.357	720.303
167.964	14.439	946.612	720.426
168.979	14.278	945.617	718.910
169.994	14.262	944.716	718.095
171.008	14.450	943.816	718.157
172.023	14.461	943.187	717.661
173.037	14.500	942.787	717.461
174.052	14.533	941.889	716.853
175.067	14.441	940.991	715.712
176.081	14.372	940.798	715.205
177.096	14.362	940.155	714.613
178.110	14.423	939.447	714.272
179.125	14.453	938.500	713.616
180.140	14.414	938.384	713.299
181.154	14.510	937.909	713.284
182.169	14.619	937.551	713.418
183.183	14.590	936.846	712.694
184.198	14.549	936.081	711.872
185.213	14.622	935.258	711.494
186.227	14.642	934.514	710.952
187.242	14.740	933.885	710.825
188.256	14.759	933.315	710.413
189.271	14.761	932.559	709.782
190.286	14.560	931.729	708.234
191.300	14.274	931.444	706.738
192.315	14.317	930.563	706.191
193.329	14.459	929.968	706.280
194.344	14.609	929.095	706.190
195.359	14.582	928.669	705.689
196.373	14.617	927.903	705.191
197.388	14.791	927.391	705.473
198.402	14.844	927.446	705.676
199.417	15.033	926.236	705.490
200.432	14.815	926.263	704.530
201.446	14.948	925.357	704.337
202.461	14.946	925.263	704.197
203.475	14.919	924.295	703.284
204.490	14.899	923.453	702.499
205.504	14.875	922.698	701.762
206.519	14.862	921.858	701.003
207.534	14.800	921.379	700.320
208.548	14.874	920.777	700.110
209.563	14.961	919.949	699.780
210.577	14.996	918.993	699.137
211.592	14.944	918.937	698.817
212.607	15.026	918.263	698.586
213.621	15.041	917.040	697.657
214.636	15.093	915.994	697.015
215.650	15.043	915.852	696.637
216.665	15.137	914.841	696.195
217.680	15.266	914.253	696.222
218.694	15.019	914.279	695.156
219.709	15.110	913.260	694.695
220.723	15.168	912.352	694.184
221.738	15.087	912.064	693.570
222.753	15.133	911.303	693.118
223.767	15.166	910.627	692.682
224.782	15.413	909.973	693.140
225.796	15.247	909.558	692.078
226.811	15.160	909.390	691.533
227.826	15.196	908.214	690.722
228.840	15.197	907.243	689.926
229.855	15.286	906.207	689.446
230.869	15.254	905.348	688.598
231.884	15.103	905.433	687.983
232.899	15.082	904.541	687.159
233.913	15.291	903.590	687.229
234.928	15.068	903.130	685.906
235.942	15.052	902.794	685.527
236.957	15.212	901.900	685.439
237.972	15.018	901.429	684.231
238.986	15.263	900.462	684.434
240.001	15.141	900.096	683.597
241.015	15.139	899.601	683.152
242.030	15.168	899.007	682.760
243.045	15.275	898.554	682.791
244.059	15.327	897.686	682.282
245.074	15.214	897.314	681.482
246.088	15.278	896.707	681.219
247.103	15.430	896.044	681.272
248.117	15.553	895.498	681.295
249.132	15.555	894.979	680.848
250.147	15.715	893.839	680.569
251.161	15.701	893.646	680.305
252.176	15.695	892.778	679.560
253.190	15.766	891.940	679.150
254.205	15.780	891.781	679.022
255.220	15.856	890.735	678.476
256.234	15.703	890.508	677.624
257.249	15.733	889.906	677.229
258.263	15.722	888.838	676.309
259.278	15.794	888.187	676.046
260.293	15.848	887.625	675.772
261.307	15.945	887.163	675.751
262.322	15.775	886.903	674.812
263.336	16.006	885.370	674.509
264.351	16.015	884.911	674.137
265.366	16.005	884.576	673.782
266.380	15.906	884.209	673.048
267.395	15.947	883.260	672.430
268.409	15.962	882.809	672.085
269.424	15.987	882.007	671.515
270.439	15.892	881.021	670.329
271.453	15.946	880.234	669.885
272.468	15.974	879.716	669.542
273.482	15.973	879.348	669.198
274.497	15.984	878.988	668.910
275.512	15.978	878.202	668.227
276.526	15.874	877.715	667.385
277.541	16.021	877.370	667.646
278.555	16.094	876.835	667.471
279.570	16.162	876.239	667.228
280.585	15.993	875.418	665.873
281.599	16.029	873.953	664.843
282.614	16.166	873.583	665.043
283.628	16.171	872.988	664.551
284.643	16.049	872.722	663.810
285.657	16.140	872.317	663.801
286.672	16.145	871.384	663.051
287.687	16.163	870.799	662.619
288.701	16.187	870.331	662.298
289.716	16.053	869.728	661.256
290.730	16.293	869.181	661.719
291.745	16.224	868.380	660.781
292.760	16.270	867.846	660.497
293.774	16.346	866.940	660.047
294.789	16.446	866.283	659.879
295.803	16.305	865.627	658.771
296.818	16.273	864.917	658.046
297.833	16.264	864.252	657.447
298.847	16.336	863.824	657.345
299.862	16.379	863.388	657.122
300.876	16.292	862.962	656.400
301.891	16.341	862.455	656.146
302.906	16.424	861.830	655.934
303.920	16.577	861.229	656.014
304.935	16.461	860.705	655.109
305.949	16.455	860.355	654.759
306.964	16.391	859.540	653.835
307.979	16.532	858.452	653.495
308.993	16.577	858.472	653.625
310.008	16.711	857.676	653.477
311.022	16.476	857.102	652.077
312.037	16.560	856.579	651.944
313.052	16.413	856.015	650.892
314.066	16.439	855.069	650.215
315.081	16.361	854.732	649.602
316.095	16.530	853.895	649.557
317.110	16.500	853.568	649.136
318.125	16.529	852.936	648.709
319.139	16.515	852.464	648.239
320.154	16.517	852.328	648.086
321.168	16.531	851.760	647.652
322.183	16.526	851.052	647.034
323.197	16.463	850.626	646.411
324.212	16.586	850.040	646.378
325.227	16.432	849.454	645.290
326.241	16.521	848.720	645.015
327.256	16.586	848.418	644.976
328.270	16.688	847.515	644.621
329.285	16.662	846.865	643.969
330.300	16.513	846.668	643.196
331.314	16.652	845.886	643.075
332.329	16.697	845.374	642.797
333.343	16.742	845.201	642.780
334.358	16.656	844.867	642.144
335.373	16.713	844.570	642.077
336.387	16.727	844.194	641.789
337.402	16.888	843.655	641.930
338.416	17.017	843.238	642.043
339.431	16.895	843.150	641.458
340.446	16.986	842.540	641.284
341.460	17.005	842.180	641.024
342.475	17.023	841.755	640.712
343.489	17.096	841.230	640.532
344.504	17.138	840.947	640.417
345.519	17.176	840.029	639.803
346.533	17.176	839.962	639.696
347.548	17.152	839.093	638.887
348.562	17.152	838.393	638.300
349.577	16.956	837.749	637.015
350.592	16.983	837.408	636.799
351.606	17.071	836.567	636.434
352.621	17.161	835.662	636.027
353.635	16.999	835.755	635.434
354.650	16.904	835.239	634.632
355.665	17.117	834.370	634.710
356.679	16.923	833.909	633.581
357.694	17.117	833.120	633.648
358.708	17.224	832.258	633.336
359.723	17.276	831.728	633.068
360.738	17.170	831.630	632.542
361.752	17.316	830.413	632.104
362.767	17.284	830.180	631.751
363.781	17.305	829.750	631.446
364.796	17.408	829.264	631.406
365.810	17.436	829.194	631.398
366.825	17.341	828.824	630.709
367.840	17.514	828.103	630.744
368.854	17.507	827.487	630.196
369.869	17.405	827.218	629.556
370.883	17.498	826.592	629.369
371.898	17.465	826.157	628.858
372.913	17.541	825.989	628.956
373.927	17.384	825.424	627.891
374.942	17.467	824.992	627.814
375.956	17.535	824.869	627.913
376.971	17.455	824.462	627.255
377.986	17.771	823.723	627.801
379.000	17.755	823.008	627.141
380.015	17.664	822.686	626.506
381.029	17.587	822.026	625.666
382.044	17.820	821.336	625.938
383.059	17.681	820.772	624.944
384.073	17.675	820.339	624.539
385.088	17.679	819.449	623.819
386.102	17.594	819.144	623.221
387.117	17.668	818.580	623.006
388.132	17.671	817.866	622.420
389.146	17.551	817.695	621.796
390.161	17.761	816.902	621.902
391.175	17.721	816.809	621.632
392.190	17.784	816.006	621.195
393.205	17.870	815.287	620.906
394.219	17.707	815.171	620.171
395.234	17.580	814.993	619.519
396.248	17.507	814.795	619.046
397.263	17.778	813.568	619.044
398.278	17.486	813.822	618.121
399.292	17.796	812.967	618.541
400.307	17.665	812.974	618.016
401.321	17.581	812.074	616.975
402.336	17.781	811.716	617.372
403.350	17.711	811.071	616.573
404.365	17.822	810.836	616.741
405.380	17.934	810.022	616.471
406.394	17.894	809.994	616.251
407.409	17.934	809.550	616.005
408.423	18.193	808.907	616.394
409.438	18.194	808.841	616.293
410.453	18.041	808.510	615.437
411.467	18.261	808.033	615.807
412.482	18.099	807.650	614.881
413.496	18.255	807.381	615.183
414.511	18.124	806.609	614.069
415.526	18.016	806.362	613.440
416.540	18.116	805.976	613.451
417.555	18.228	805.445	613.391
418.569	18.158	805.214	612.913
419.584	18.253	804.806	612.888
420.599	18.191	804.038	612.025
421.613	153.558	1370.759	1790.914
422.628	133.166	1453.356	1791.024
