DTS Sentinel unit serial number:	SN413079Multiplexer serial number:	ORYXHardware model number:	OX4-SRSoftware version number:	ORYX F/W v4.00 Oryx Data Collector v3.7.2.0data status	okinstallation	princeton_trtdifferential loss correction	single-endedforward channel	channel 1reverse channel	N/Adate	2019/09/18time	03:54:35forward acquisition time	60.00reverse acquisition time	0.00gamma	496.2192k internal	0.2339k external	0.2339temperature offset calibration	0.9976default loss term (dB/km)	0.3790temperature slope calibration	1.0000multiplexer offset coefficient	1.0000multiplexer slope coefficient	1.0000fibre end	0.00T internal ref (°C)	23.06T ext. ref 1 (°C)	0.17T ext. ref 2 (°C)	18.05length (m)	temperature (°C)	Stokes	anti-Stokes-747.200	125.853	0.127	-0.161
-746.185	753.138	-0.095	0.257
-745.171	70.321	-0.191	-0.198
-744.156	-154.258	-0.458	0.031
-743.142	-55.477	-0.325	0.146
-742.127	-110.886	0.237	0.049
-741.112	-200.000	0.007	0.136
-740.098	-12.018	0.374	0.246
-739.083	-81.129	0.201	0.067
-738.069	201.923	-0.122	-0.189
-737.054	-12.291	0.224	-0.147
-736.039	-117.719	0.274	-0.049
-735.025	-152.946	0.154	0.011
-734.010	-94.317	-0.379	-0.104
-732.996	182.441	-0.098	0.144
-731.981	-200.000	-0.046	0.369
-730.966	-107.987	-0.110	-0.024
-729.952	292.869	-0.080	-0.146
-728.937	-130.492	0.080	0.011
-727.923	58.623	0.051	-0.050
-726.908	-89.385	0.215	0.063
-725.894	-24.358	-0.351	-0.210
-724.879	800.000	0.080	-0.280
-723.864	800.000	-0.075	0.316
-722.850	476.010	-0.173	-0.391
-721.835	-200.000	-0.001	-0.102
-720.821	-20.137	-0.249	0.154
-719.806	625.765	-0.064	0.162
-718.791	-37.497	-0.328	0.176
-717.777	800.000	-0.113	0.334
-716.762	-200.000	-0.037	0.409
-715.748	-26.998	0.176	0.103
-714.733	-136.068	0.219	0.026
-713.718	-200.000	-0.019	0.241
-712.704	-130.383	-0.260	-0.035
-711.689	160.011	-0.093	0.130
-710.675	601.594	-0.038	-0.094
-709.660	-14.776	-0.181	0.116
-708.645	375.999	0.100	-0.203
-707.631	223.855	0.161	-0.260
-706.616	-60.020	-0.046	0.020
-705.602	27.147	-0.139	-0.117
-704.587	-200.000	0.014	0.201
-703.572	800.000	-0.126	-0.386
-702.558	657.011	-0.123	0.316
-701.543	-63.489	-0.161	-0.066
-700.529	-200.000	-0.009	0.119
-699.514	-200.000	-0.012	0.235
-698.499	119.513	0.247	0.307
-697.485	111.141	0.181	-0.219
-696.470	-48.201	0.148	0.072
-695.456	-200.000	-0.052	-0.326
-694.441	-92.627	-0.223	-0.063
-693.426	-156.807	-0.037	0.002
-692.412	-45.128	-0.294	0.147
-691.397	-200.000	-0.013	-0.232
-690.383	334.429	-0.070	0.136
-689.368	-145.161	0.122	0.011
-688.354	-12.167	-0.381	0.250
-687.339	65.837	0.037	0.037
-686.324	178.267	0.152	-0.223
-685.310	-55.209	-0.254	-0.114
-684.295	-156.159	0.145	-0.009
-683.281	-72.606	0.157	-0.058
-682.266	82.618	-0.084	-0.091
-681.251	164.894	-0.036	-0.051
-680.237	-200.000	-0.016	0.172
-679.222	800.000	0.047	0.205
-678.208	10.051	0.223	-0.170
-677.193	-200.000	-0.060	-0.356
-676.178	-5.926	-0.116	0.079
-675.164	347.420	0.096	0.190
-674.149	-200.000	0.017	0.091
-673.135	800.000	0.037	-0.115
-672.120	-200.000	0.001	-0.060
-671.105	324.492	0.052	-0.099
-670.091	49.342	0.200	0.188
-669.076	-79.274	-0.206	0.070
-668.062	-200.000	-0.031	0.280
-667.047	800.000	-0.040	-0.166
-666.032	-88.551	0.448	-0.133
-665.018	-78.238	0.075	0.026
-664.003	-108.447	-0.195	0.042
-662.989	193.701	-0.081	-0.123
-661.974	-75.083	-0.060	0.021
-660.959	610.728	0.087	-0.217
-659.945	428.281	0.066	0.143
-658.930	495.024	0.122	0.280
-657.916	-113.258	-0.142	0.028
-656.901	800.000	-0.125	0.350
-655.886	-117.085	-0.114	0.021
-654.872	-200.000	-0.021	-0.260
-653.857	106.078	0.211	0.250
-652.843	293.368	0.076	0.139
-651.828	42.890	0.178	-0.162
-650.814	-115.701	-0.307	-0.057
-649.799	-109.008	-0.180	0.038
-648.784	-115.346	0.260	-0.049
-647.770	474.588	-0.134	0.302
-646.755	-200.000	0.004	-0.292
-645.741	-19.987	0.214	0.132
-644.726	-45.613	0.173	-0.086
-643.711	683.069	0.086	0.223
-642.697	-116.085	-0.467	-0.087
-641.682	290.395	0.077	-0.139
-640.668	25.664	-0.102	-0.085
-639.653	-160.568	0.085	0.005
-638.638	240.521	0.231	-0.385
-637.624	364.250	-0.045	0.090
-636.609	184.197	-0.286	-0.423
-635.595	80.110	-0.114	-0.122
-634.580	-200.000	-0.000	0.195
-633.565	678.804	-0.115	0.298
-632.551	-16.988	-0.246	-0.155
-631.536	-35.066	-0.070	0.038
-630.522	59.746	0.056	0.055
-629.507	170.831	0.233	0.334
-628.492	-73.433	0.436	0.159
-627.478	-16.747	-0.220	0.139
-626.463	102.460	-0.181	-0.212
-625.449	112.002	-0.147	-0.177
-624.434	77.382	0.270	-0.287
-623.419	141.816	0.043	-0.057
-622.405	-102.239	0.194	-0.046
-621.390	121.877	0.202	-0.251
-620.376	323.845	-0.143	0.273
-619.361	-7.786	-0.010	0.007
-618.346	-200.000	-0.062	-0.557
-617.332	-51.289	-0.230	-0.107
-616.317	142.473	-0.036	-0.047
-615.303	646.492	-0.080	-0.205
-614.288	-134.476	-0.313	-0.038
-613.273	-200.000	0.056	-0.438
-612.259	-51.012	0.272	-0.127
-611.244	-36.750	-0.254	0.136
-610.230	276.426	0.081	-0.144
-609.215	-113.349	-0.065	0.013
-608.201	-116.781	-0.204	0.037
-607.186	-45.152	0.274	-0.136
-606.171	-25.790	0.249	0.146
-605.157	153.252	0.047	0.064
-604.142	-200.000	0.008	0.252
-603.128	325.281	0.032	0.062
-602.113	722.845	-0.119	-0.316
-601.098	-73.119	-0.205	-0.075
-600.084	-62.517	-0.168	-0.070
-599.069	-200.000	-0.041	-0.190
-598.055	191.812	-0.086	0.129
-597.040	-26.479	0.161	0.094
-596.025	-110.342	0.300	0.062
-595.011	91.914	0.371	-0.416
-593.996	454.146	-0.074	0.162
-592.982	-200.000	-0.037	-0.333
-591.967	-140.785	0.253	0.026
-590.952	-148.656	0.193	0.016
-589.938	252.974	-0.083	-0.142
-588.923	-88.881	-0.057	0.017
-587.909	800.000	0.105	-0.350
-586.894	800.000	0.044	0.125
-585.879	-102.806	0.133	-0.032
-584.865	630.070	-0.069	0.173
-583.850	-104.837	0.179	0.041
-582.836	445.174	-0.159	0.348
-581.821	662.898	0.115	-0.295
-580.806	800.000	0.040	0.165
-579.792	163.359	0.065	-0.091
-578.777	-200.000	0.024	0.117
-577.763	-149.487	-0.104	-0.008
-576.748	800.000	-0.032	-0.100
-575.733	91.812	-0.235	0.263
-574.719	103.836	-0.067	0.078
-573.704	-56.526	-0.243	-0.107
-572.690	305.411	0.041	-0.076
-571.675	3.678	-0.292	-0.212
-570.661	-58.177	0.022	-0.010
-569.646	-63.386	0.216	0.088
-568.631	-200.000	0.005	0.106
-567.617	-125.864	0.272	-0.041
-566.602	-86.212	-0.122	0.037
-565.588	800.000	0.039	0.108
-564.573	-68.817	0.194	-0.075
-563.558	275.700	0.148	0.261
-562.544	38.755	-0.131	-0.117
-561.529	-189.063	0.105	0.001
-560.515	800.000	-0.059	0.164
-559.500	251.553	0.092	0.155
-558.485	-64.134	0.252	-0.102
-557.471	720.970	-0.045	-0.118
-556.456	-200.000	-0.005	-0.338
-555.442	419.999	-0.122	0.259
-554.427	-200.000	0.001	-0.223
-553.412	468.133	-0.152	-0.339
-552.398	-153.499	-0.132	0.009
-551.383	217.452	0.067	0.107
-550.369	800.000	0.032	0.125
-549.354	800.000	-0.038	0.164
-548.339	479.703	-0.039	0.087
-547.325	97.395	-0.294	0.337
-546.310	342.686	-0.143	-0.280
-545.296	-83.367	0.082	0.026
-544.281	482.769	-0.152	-0.343
-543.266	-101.894	0.121	-0.029
-542.252	56.411	-0.120	0.117
-541.237	-180.948	0.322	0.006
-540.223	-105.840	0.219	0.049
-539.208	-36.706	0.140	0.075
-538.193	-37.037	-0.336	-0.179
-537.179	324.568	0.009	-0.018
-536.164	44.803	0.184	-0.168
-535.150	-175.211	0.457	-0.013
-534.135	12.519	0.232	0.178
-533.121	180.223	0.193	0.282
-532.106	-200.000	-0.040	-0.188
-531.091	79.719	0.093	-0.099
-530.077	800.000	-0.028	0.079
-529.062	-30.358	0.139	0.079
-528.048	290.335	-0.077	0.139
-527.033	800.000	0.067	0.282
-526.018	-200.000	-0.030	0.295
-525.004	10.217	0.213	-0.161
-523.989	-162.456	-0.521	-0.026
-522.975	-200.000	0.044	0.263
-521.960	-104.354	0.102	-0.023
-520.945	141.620	0.107	0.140
-519.931	476.010	-0.067	0.151
-518.916	24.463	0.172	0.141
-517.902	-78.214	0.272	-0.093
-516.887	-63.186	0.349	0.143
-515.872	-72.574	-0.105	-0.038
-514.858	347.574	0.065	-0.127
-513.843	136.403	0.076	-0.098
-512.829	197.508	0.056	0.085
-511.814	-45.716	-0.061	0.030
-510.799	-72.739	-0.169	0.062
-509.785	800.000	-0.054	-0.155
-508.770	735.175	-0.026	-0.069
-507.756	-42.455	-0.149	-0.075
-506.741	155.638	0.227	0.311
-505.726	-194.053	0.012	0.000
-504.712	-200.000	0.011	-0.072
-503.697	-32.496	-0.221	-0.123
-502.683	-24.356	0.170	-0.101
-501.668	-200.000	0.009	0.115
-500.653	0.024	-0.141	-0.100
-499.639	-71.038	0.244	0.091
-498.624	800.000	-0.070	0.298
-497.610	-39.909	0.382	0.198
-496.595	23.397	-0.118	-0.096
-495.581	397.539	0.147	-0.306
-494.566	-200.000	-0.024	0.113
-493.551	463.637	0.087	0.192
-492.537	-200.000	-0.001	0.026
-491.522	78.385	-0.271	-0.287
-490.508	145.961	0.139	0.185
-489.493	-35.781	0.269	0.145
-488.478	47.401	-0.180	-0.167
-487.464	303.765	-0.122	0.224
-486.449	-137.288	0.269	-0.030
-485.435	62.456	0.361	0.358
-484.420	-140.325	0.130	0.013
-483.405	-200.000	0.067	-0.381
-482.391	-134.383	-0.212	-0.026
-481.376	419.475	0.151	0.321
-480.362	445.872	-0.046	-0.101
-479.347	158.458	-0.128	-0.177
-478.332	-86.585	-0.370	0.113
-477.318	-41.801	-0.286	-0.146
-476.303	-140.313	0.198	-0.021
-475.289	74.802	0.219	0.229
-474.274	-20.376	-0.439	0.268
-473.259	-23.176	0.096	-0.057
-472.245	-102.167	-0.090	0.021
-471.230	538.117	-0.147	-0.347
-470.216	370.480	-0.095	0.191
-469.201	102.429	-0.157	-0.182
-468.186	744.956	-0.085	-0.226
-467.172	-80.054	0.111	0.037
-466.157	301.947	-0.078	0.143
-465.143	255.845	-0.111	-0.189
-464.128	-61.090	0.130	-0.054
-463.113	-200.000	-0.023	0.166
-462.099	-52.287	-0.306	0.141
-461.084	-167.640	0.114	0.005
-460.070	730.558	0.110	0.293
-459.055	800.000	0.140	-0.396
-458.040	-200.000	0.005	-0.123
-457.026	-200.000	-0.025	0.110
-456.011	573.170	-0.135	-0.327
-454.997	-54.962	-0.055	-0.025
-453.982	-69.731	0.061	0.023
-452.968	800.000	-0.044	0.160
-451.953	-16.553	-0.149	0.094
-450.938	-120.097	0.250	-0.042
-449.924	-95.357	-0.185	0.049
-448.909	800.000	0.013	0.045
-447.895	46.275	-0.186	0.171
-446.880	24.705	-0.149	0.122
-445.865	53.530	0.074	0.070
-444.851	-48.047	0.184	0.088
-443.836	53.298	-0.156	0.148
-442.822	86.807	0.364	0.398
-441.807	94.617	-0.136	-0.154
-440.792	-106.723	0.195	0.043
-439.778	-36.561	0.351	0.187
-438.763	-200.000	-0.015	-0.135
-437.749	-12.836	-0.158	-0.102
-436.734	-162.532	-0.053	0.003
-435.719	-76.666	0.433	-0.151
-434.705	-48.703	-0.281	0.134
-433.690	800.000	-0.058	0.224
-432.676	800.000	-0.087	-0.238
-431.661	-137.261	0.143	0.016
-430.646	-17.379	0.211	0.132
-429.632	-200.000	-0.060	-0.284
-428.617	-200.000	0.010	-0.211
-427.603	-43.109	-0.208	0.105
-426.588	-200.000	-0.242	0.001
-425.573	370.651	-0.095	0.190
-424.559	-181.721	-0.314	0.006
-423.544	104.976	-0.159	0.186
-422.530	800.000	0.115	-0.364
-421.515	303.524	-0.072	0.132
-420.500	-90.351	-0.061	0.018
-419.486	356.697	-0.089	0.176
-418.471	800.000	-0.061	0.244
-417.457	-56.983	-0.169	0.074
-416.442	800.000	-0.097	0.343
-415.428	-85.915	-0.171	0.052
-414.413	-160.638	-0.272	0.014
-413.398	674.772	-0.069	-0.178
-412.384	9.106	0.108	0.081
-411.369	-31.196	0.284	0.159
-410.355	-42.170	0.078	0.040
-409.340	553.068	0.093	-0.222
-408.325	341.670	0.039	0.076
-407.311	38.247	-0.212	-0.187
-406.296	-29.667	-0.187	-0.105
-405.282	111.195	-0.242	0.289
-404.267	225.916	0.144	-0.231
-403.252	-172.987	0.255	-0.008
-402.238	47.789	-0.241	0.223
-401.223	469.570	-0.125	-0.277
-400.209	-55.098	-0.085	0.038
-399.194	86.791	-0.158	-0.173
-398.179	10.076	-0.252	-0.190
-397.165	-200.000	0.011	-0.152
-396.150	-140.010	-0.565	-0.059
-395.136	47.152	0.266	0.245
-394.121	-200.000	0.006	-0.096
-393.106	132.839	-0.186	0.238
-392.092	-20.267	-0.083	-0.051
-391.077	157.220	-0.043	-0.058
-390.063	136.909	0.119	-0.153
-389.048	-34.416	0.250	-0.135
-388.033	22.749	0.066	0.054
-387.019	-165.039	-0.329	-0.014
-386.004	-93.591	0.140	0.038
-384.990	206.229	-0.210	-0.322
-383.975	-200.000	0.066	-0.291
-382.960	122.633	0.041	-0.050
-381.946	800.000	0.083	0.287
-380.931	-200.000	0.011	-0.145
-379.917	-200.000	-0.005	-0.246
-378.902	687.500	-0.066	-0.171
-377.888	442.617	0.069	0.149
-376.873	-33.654	0.072	0.039
-375.858	32.816	0.076	0.065
-374.844	-36.165	-0.398	0.213
-373.829	800.000	-0.055	-0.203
-372.815	231.714	0.116	0.188
-371.800	107.639	0.129	0.151
-370.785	-200.000	0.093	-0.488
-369.771	142.513	0.136	0.178
-368.756	82.784	-0.167	0.179
-367.742	766.812	0.077	0.206
-366.727	-200.000	0.036	-0.275
-365.712	-181.653	-0.446	0.009
-364.698	21.669	0.307	0.247
-363.683	-11.795	-0.400	-0.260
-362.669	-119.858	0.394	-0.067
-361.654	-200.000	0.001	0.280
-360.639	330.701	-0.061	0.117
-359.625	-33.755	-0.134	0.073
-358.610	-36.738	-0.198	0.105
-357.596	-95.118	0.148	0.039
-356.581	7.316	-0.114	-0.084
-355.566	440.976	0.050	-0.108
-354.552	-27.455	-0.272	-0.157
-353.537	671.681	-0.053	-0.135
-352.523	-200.000	-0.034	0.257
-351.508	-17.576	0.278	0.173
-350.493	-200.000	-0.052	-0.356
-349.479	-25.297	-0.280	0.164
-348.464	800.000	0.083	-0.292
-347.450	-104.347	-0.141	0.032
-346.435	-130.392	-0.413	-0.055
-345.420	-200.000	-0.062	-0.307
-344.406	36.986	-0.203	-0.177
-343.391	133.205	0.109	0.140
-342.377	101.986	0.227	-0.261
-341.362	-120.787	-0.277	0.046
-340.348	66.370	0.169	0.170
-339.333	-97.967	-0.061	0.016
-338.318	96.313	0.317	0.358
-337.304	215.063	-0.064	-0.099
-336.289	-14.732	-0.267	0.169
-335.275	184.201	-0.067	0.098
-334.260	-200.000	0.004	0.351
-333.245	529.964	0.043	0.100
-332.231	-107.603	-0.040	-0.009
-331.216	279.043	-0.073	0.129
-330.202	800.000	0.045	-0.185
-329.187	-2.043	-0.262	0.182
-328.172	5.084	-0.340	0.247
-327.158	545.855	0.223	-0.527
-326.143	261.261	-0.091	0.156
-325.129	800.000	0.110	0.402
-324.114	438.039	0.051	-0.109
-323.099	-107.027	0.100	0.022
-322.085	-200.000	-0.061	-0.286
-321.070	-200.000	0.049	-0.542
-320.056	517.058	-0.040	-0.092
-319.041	-197.285	0.206	-0.001
-318.026	800.000	-0.057	0.239
-317.012	-113.212	-0.219	-0.042
-315.997	-114.733	-0.324	-0.061
-314.983	-17.474	-0.259	0.161
-313.968	223.703	-0.134	0.213
-312.953	-200.000	0.005	-0.057
-311.939	222.819	0.162	-0.258
-310.924	105.598	-0.142	0.166
-309.910	27.135	0.092	0.076
-308.895	-200.000	-0.012	-0.428
-307.880	-200.000	0.002	-0.127
-306.866	-78.198	0.166	-0.056
-305.851	292.676	-0.019	0.034
-304.837	800.000	-0.044	-0.164
-303.822	159.629	-0.061	-0.083
-302.807	-146.771	-0.067	-0.006
-301.793	68.573	-0.072	0.072
-300.778	290.187	-0.038	-0.068
-299.764	239.454	-0.025	-0.040
-298.749	19.277	0.259	0.205
-297.735	-200.000	-0.014	0.135
-296.720	-200.000	0.033	-0.256
-295.705	-96.430	0.142	-0.037
-294.691	150.105	0.118	-0.158
-293.676	-200.000	0.039	0.436
-292.662	800.000	-0.031	0.086
-291.647	223.838	-0.146	0.232
-290.632	-131.091	0.267	0.035
-289.618	729.537	0.037	0.097
-288.603	-57.761	0.144	-0.062
-287.589	33.652	-0.132	0.113
-286.574	800.000	-0.032	0.089
-285.559	-0.570	-0.069	0.048
-284.545	-27.518	0.088	0.050
-283.530	-70.852	-0.173	0.064
-282.516	-102.381	0.262	-0.062
-281.501	-200.000	0.002	0.223
-280.486	-35.712	-0.232	0.124
-279.472	-64.908	0.076	0.030
-278.457	-200.000	0.064	-0.315
-277.443	3.524	0.166	0.119
-276.428	391.665	0.036	-0.074
-275.413	134.078	-0.137	0.175
-274.399	58.123	0.168	0.162
-273.384	-57.440	-0.237	0.102
-272.370	463.929	0.147	-0.323
-271.355	800.000	0.029	-0.114
-270.340	-26.970	0.073	0.042
-269.326	-200.000	0.061	-0.412
-268.311	639.404	0.052	-0.129
-267.297	12.183	-0.111	0.084
-266.282	800.000	-0.086	0.245
-265.267	-125.857	-0.054	0.008
-264.253	-12.713	-0.027	0.017
-263.238	-200.000	-0.016	0.228
-262.224	19.275	-0.309	0.244
-261.209	-200.000	0.049	-0.307
-260.195	387.153	0.088	-0.179
-259.180	-55.741	-0.135	0.059
-258.165	-37.885	-0.024	-0.013
-257.151	-59.176	0.395	-0.167
-256.136	166.448	0.218	0.304
-255.122	264.076	0.056	-0.096
-254.107	-200.000	0.052	0.000
-253.092	-44.471	0.096	0.047
-252.078	-200.000	0.019	-0.280
-251.063	22.623	-0.089	0.072
-250.049	-66.730	0.263	0.103
-249.034	38.105	-0.277	0.243
-248.019	-83.046	-0.150	0.047
-247.005	-200.000	-0.021	-0.193
-245.990	29.185	0.275	-0.230
-244.976	800.000	-0.056	-0.205
-243.961	344.499	0.142	-0.274
-242.946	-200.000	0.034	0.222
-241.932	-65.454	-0.091	0.036
-240.917	87.626	-0.132	-0.144
-239.903	34.039	0.156	0.134
-238.888	-123.566	0.201	0.031
-237.873	742.800	0.015	-0.040
-236.859	375.716	0.073	0.147
-235.844	223.030	-0.174	0.275
-234.830	378.955	-0.107	-0.215
-233.815	-200.000	0.100	0.537
-232.800	800.000	-0.045	0.164
-231.786	-200.000	-0.061	0.296
-230.771	-69.236	0.103	0.039
-229.757	-92.143	-0.271	0.075
-228.742	196.370	0.140	0.210
-227.727	-155.747	0.049	-0.003
-226.713	-1.157	-0.110	-0.076
-225.698	23.723	-0.272	-0.220
-224.684	104.172	0.162	0.188
-223.669	30.518	0.059	-0.050
-222.655	-51.099	-0.255	-0.117
-221.640	296.161	-0.127	0.229
-220.625	26.370	0.034	0.028
-219.611	45.341	-0.089	-0.081
-218.596	137.756	0.215	-0.276
-217.582	89.381	0.100	-0.110
-216.567	-200.000	0.016	-0.101
-215.552	-44.766	0.394	-0.193
-214.538	21.567	-0.083	-0.067
-213.523	104.786	-0.255	-0.295
-212.509	800.000	-0.039	-0.126
-211.494	39.164	0.310	0.272
-210.479	26.497	-0.200	-0.165
-209.465	235.120	0.118	0.192
-208.450	-92.956	0.134	0.037
-207.436	800.000	0.063	0.192
-206.421	-200.000	0.030	0.298
-205.406	-94.868	0.107	-0.028
-204.392	-181.670	0.317	0.006
-203.377	-131.465	-0.180	0.023
-202.363	-200.000	0.002	0.043
-201.348	-39.811	0.199	-0.102
-200.333	-200.000	-0.022	-0.207
-199.319	308.870	-0.113	0.207
-198.304	440.212	-0.144	-0.309
-197.290	72.483	0.385	-0.395
-196.275	-200.000	0.001	-0.174
-195.260	-37.118	0.065	0.034
-194.246	-86.371	0.152	0.046
-193.231	138.664	-0.047	-0.061
-192.217	121.996	-0.047	-0.058
-191.202	182.507	0.097	-0.140
-190.187	-86.201	0.231	-0.070
-189.173	-43.684	-0.035	-0.017
-188.158	-69.758	0.249	0.094
-187.144	700.857	-0.119	0.307
-186.129	67.123	-0.177	-0.177
-185.114	177.696	0.198	-0.283
-184.100	-176.446	0.038	0.001
-183.085	84.418	-0.159	0.171
-182.071	124.388	-0.196	0.242
-181.056	365.565	0.076	-0.150
-180.042	652.964	-0.063	0.158
-179.027	-119.572	-0.227	0.039
-178.012	800.000	0.070	-0.217
-176.998	46.457	0.231	0.210
-175.983	11.203	0.143	-0.107
-174.969	800.000	0.030	-0.123
-173.954	516.509	0.175	-0.402
-172.939	-153.018	-0.049	-0.003
-171.925	-88.924	-0.406	-0.118
-170.910	-100.583	0.439	-0.106
-169.896	-137.758	0.230	-0.025
-168.881	-32.549	-0.341	0.186
-167.866	-187.464	0.481	-0.006
-166.852	-53.730	-0.120	-0.054
-165.837	-24.442	0.122	0.071
-164.823	135.061	-0.143	0.182
-163.808	-49.698	-0.214	-0.100
-162.793	-61.658	0.418	0.172
-161.779	-86.272	0.109	0.033
-160.764	-97.033	-0.171	-0.044
-159.750	41.266	-0.122	0.109
-158.735	-46.923	-0.053	0.026
-157.720	-127.151	0.121	-0.017
-156.706	-92.931	-0.144	-0.039
-155.691	-60.052	0.116	-0.048
-154.677	-110.664	-0.103	0.021
-153.662	800.000	0.023	0.072
-152.647	-200.000	-0.027	0.368
-151.633	70.453	0.198	0.200
-150.618	-16.795	0.301	-0.187
-149.604	-200.000	0.034	-0.216
-148.589	20.705	0.121	0.096
-147.574	-158.996	-0.373	0.021
-146.560	13.997	0.229	0.175
-145.545	-112.734	-0.021	0.004
-144.531	-148.503	0.104	0.008
-143.516	-200.000	-0.045	0.276
-142.502	-146.237	0.431	0.037
-141.487	50.303	-0.209	-0.194
-140.472	358.988	-0.121	0.236
-139.458	-133.405	-0.085	0.010
-138.443	-132.588	0.165	0.021
-137.429	519.245	0.103	-0.236
-136.414	749.509	0.109	0.289
-135.399	-82.193	0.148	-0.047
-134.385	-148.304	-0.148	0.012
-133.370	-86.501	-0.297	-0.089
-132.356	276.899	0.062	0.108
-131.341	250.815	-0.046	0.077
-130.326	205.221	0.144	0.219
-129.312	791.121	0.070	0.188
-128.297	-78.916	-0.186	0.062
-127.283	-200.000	0.005	0.365
-126.268	132.208	0.185	0.233
-125.253	68.125	-0.024	0.024
-124.239	764.730	-0.084	-0.222
-123.224	272.422	0.032	0.055
-122.210	800.000	0.095	0.272
-121.195	800.000	0.089	-0.298
-120.180	-46.962	0.061	-0.029
-119.166	-26.560	-0.278	0.160
-118.151	-145.739	-0.074	0.006
-117.137	-200.000	0.098	0.000
-116.122	-200.000	-0.016	0.106
-115.107	800.000	0.031	0.088
-114.093	58.444	0.122	-0.117
-113.078	-200.000	-0.008	-0.245
-112.064	216.116	-0.247	-0.384
-111.049	-200.000	0.023	0.171
-110.034	800.000	0.104	0.283
-109.020	-57.841	-0.273	-0.117
-108.005	334.343	0.133	0.253
-106.991	-79.902	-0.204	-0.067
-105.976	800.000	-0.005	0.021
-104.962	800.000	0.054	-0.151
-103.947	44.819	-0.213	-0.192
-102.932	-95.418	-0.239	-0.063
-101.918	361.273	-0.091	0.178
-100.903	-152.499	0.115	0.008
-99.889	-200.000	0.021	0.195
-98.874	-7.847	-0.229	0.151
-97.859	636.960	0.073	0.181
-96.845	-200.000	0.026	-0.196
-95.830	-200.000	-0.018	-0.302
-94.816	-181.581	-0.450	0.009
-93.801	800.000	0.101	-0.387
-92.786	-86.968	0.154	-0.046
-91.772	-200.000	0.018	-0.106
-90.757	-122.785	0.176	-0.028
-89.743	0.498	0.177	0.124
-88.728	-11.696	0.035	-0.022
-87.713	123.345	0.117	0.144
-86.699	-125.205	-0.154	-0.023
-85.684	-200.000	-0.025	0.163
-84.670	235.804	0.072	-0.116
-83.655	171.445	0.126	0.177
-82.640	-129.458	0.221	0.030
-81.626	58.196	-0.261	-0.250
-80.611	-150.222	-0.156	0.012
-79.597	800.000	-0.069	0.285
-78.582	-13.985	0.113	0.072
-77.567	-81.050	-0.285	-0.092
-76.553	250.323	0.033	-0.054
-75.538	274.360	0.154	-0.267
-74.524	-200.000	0.019	-0.381
-73.509	160.637	-0.154	0.210
-72.494	-200.000	0.041	-0.221
-71.480	800.000	0.055	0.211
-70.465	125.675	-0.073	-0.091
-69.451	36.681	0.290	0.250
-68.436	-59.556	0.175	0.073
-67.422	-23.219	0.193	-0.113
-66.407	800.000	0.105	-0.349
-65.392	744.357	0.116	0.306
-64.378	-7.635	0.104	0.069
-63.363	411.342	0.112	0.232
-62.349	800.000	0.106	0.376
-61.334	54.095	-1.190	-1.118
-60.319	-20.027	0.841	0.507
-59.305	205.947	-0.809	-1.228
-58.290	457.991	0.561	1.218
-57.276	420.836	0.742	1.552
-56.261	-200.000	124.777	646.559
-55.246	410.030	1570.900	3250.570
-54.232	142.049	2730.530	3535.447
-53.217	95.174	2163.479	2405.895
-52.203	34.612	1593.980	1359.732
-51.188	26.327	1337.607	1091.210
-50.173	23.803	1300.304	1045.903
-49.159	51.527	1369.654	1270.602
-48.144	48.229	1381.533	1261.628
-47.130	26.426	1329.240	1084.806
-46.115	23.244	1310.088	1050.291
-45.100	22.934	1305.072	1044.398
-44.086	23.024	1302.199	1042.589
-43.071	22.900	1299.917	1039.988
-42.057	22.932	1298.148	1038.718
-41.042	22.996	1296.273	1037.554
-40.027	22.979	1295.170	1036.531
-39.013	22.896	1292.882	1034.170
-37.998	23.001	1291.445	1033.595
-36.984	23.090	1289.336	1032.386
-35.969	23.065	1287.830	1030.994
-34.954	23.060	1285.783	1029.288
-33.940	23.168	1284.593	1028.919
-32.925	23.027	1283.765	1027.394
-31.911	23.091	1282.037	1026.342
-30.896	23.218	1280.500	1025.808
-29.881	23.257	1279.175	1024.933
-28.867	23.105	1278.532	1023.500
-27.852	23.229	1276.464	1022.517
-26.838	23.227	1275.109	1021.380
-25.823	23.221	1273.683	1020.162
-24.809	23.096	1272.808	1018.699
-23.794	23.178	1271.401	1018.008
-22.779	22.989	1270.452	1016.121
-21.765	23.138	1268.669	1015.509
-20.750	23.173	1267.113	1014.426
-19.736	22.946	1266.230	1012.375
-18.721	23.023	1264.892	1011.705
-17.706	22.992	1264.055	1010.820
-16.692	22.938	1262.841	1009.500
-15.677	23.111	1261.139	1009.088
-14.663	22.996	1260.345	1007.758
-13.648	23.042	1259.259	1007.109
-12.633	23.037	1258.283	1006.258
-11.619	22.962	1257.809	1005.417
-10.604	23.104	1256.643	1005.248
-9.590	23.022	1255.778	1004.053
-8.575	22.978	1254.883	1003.048
-7.560	23.008	1254.389	1002.786
-6.546	23.071	1252.893	1001.903
-5.531	22.878	1252.702	1000.620
-4.517	22.942	1251.704	1000.142
-3.502	23.050	1250.688	999.905
-2.487	23.072	1249.934	999.383
-1.473	23.038	1245.307	995.454
-0.458	21.650	1231.543	976.679
0.556	17.143	1216.318	943.425
1.571	13.871	1225.011	931.752
2.586	13.349	1241.005	940.861
3.600	13.456	1228.776	932.112
4.615	9.806	1156.755	858.021
5.629	3.360	1085.111	772.571
6.644	0.408	1068.013	745.746
7.659	0.064	1066.688	743.057
8.673	0.185	1065.373	742.672
9.688	0.034	1064.559	741.293
10.702	0.199	1061.973	740.239
11.717	4.229	1066.723	763.356
12.731	11.369	1075.910	805.208
13.746	15.700	1081.647	830.880
14.761	16.727	1081.835	836.024
15.775	15.937	1080.549	831.058
16.790	15.017	1078.239	824.673
17.804	14.329	1076.949	820.231
18.819	14.025	1075.773	817.765
19.834	13.711	1075.068	815.614
20.848	13.550	1073.924	813.881
21.863	13.279	1073.573	812.212
22.877	13.136	1072.448	810.588
23.892	13.173	1071.449	809.943
24.907	13.213	1071.041	809.757
25.921	13.124	1070.350	808.728
26.936	13.020	1069.710	807.666
27.950	13.270	1068.341	807.781
28.965	13.210	1067.350	806.665
29.980	13.300	1066.199	806.165
30.994	13.415	1064.890	805.666
32.009	13.313	1064.110	804.506
33.023	13.323	1063.241	803.824
34.038	13.282	1061.928	802.565
35.053	13.174	1061.271	801.470
36.067	13.279	1060.291	801.172
37.082	13.278	1059.410	800.430
38.096	13.314	1058.577	799.900
39.111	13.306	1058.306	799.589
40.126	13.275	1056.735	798.179
41.140	13.219	1055.234	796.707
42.155	13.132	1054.162	795.409
43.169	13.066	1053.594	794.589
44.184	12.970	1052.856	793.503
45.199	13.164	1051.303	793.193
46.213	13.145	1050.425	792.368
47.228	13.206	1049.526	791.914
48.242	13.246	1048.203	791.035
49.257	13.321	1046.436	789.991
50.271	13.296	1046.651	789.967
51.286	13.193	1045.660	788.655
52.301	13.250	1044.545	788.015
53.315	13.184	1043.592	786.911
54.330	13.143	1042.355	785.715
55.344	13.047	1041.905	784.853
56.359	13.235	1040.681	784.751
57.374	13.157	1039.975	783.782
58.388	13.160	1039.075	783.045
59.403	13.098	1038.351	782.138
60.417	13.142	1037.309	781.492
61.432	12.971	1036.881	780.292
62.447	13.123	1035.640	780.006
63.461	13.051	1034.809	778.973
64.476	13.000	1034.188	778.194
65.490	13.188	1032.590	777.810
66.505	13.078	1031.989	776.769
67.520	13.022	1032.064	776.493
68.534	13.082	1030.993	775.903
69.549	13.126	1030.188	775.434
70.563	13.008	1029.719	774.461
71.578	12.930	1028.789	773.324
72.593	13.050	1028.047	773.263
73.607	12.979	1027.156	772.192
74.622	13.027	1026.918	772.168
75.636	12.924	1025.938	770.884
76.651	12.931	1025.664	770.640
77.666	13.097	1024.896	770.770
78.680	13.043	1024.123	769.869
79.695	12.956	1023.777	769.135
80.709	13.107	1022.761	769.007
81.724	13.099	1022.093	768.400
82.739	13.085	1022.052	768.233
83.753	13.110	1020.850	767.381
84.768	13.274	1019.798	767.283
85.782	13.316	1018.625	766.528
86.797	13.420	1017.615	766.179
87.812	13.206	1017.314	764.896
88.826	13.070	1016.122	763.300
89.841	13.168	1015.253	763.035
90.855	13.303	1013.926	762.594
91.870	13.146	1013.971	761.837
92.884	13.333	1012.568	761.572
93.899	13.437	1011.169	760.932
94.914	13.408	1010.722	760.394
95.928	13.379	1010.125	759.745
96.943	13.380	1009.420	759.156
97.957	13.370	1008.638	758.451
98.972	13.295	1007.775	757.392
99.987	13.281	1006.711	756.461
101.001	13.283	1005.778	755.701
102.016	13.269	1005.039	755.019
103.030	13.255	1004.955	754.826
104.045	13.388	1003.346	754.154
105.060	13.235	1002.817	752.995
106.074	13.218	1001.915	752.170
107.089	13.153	1000.904	751.050
108.103	13.178	999.969	750.398
109.118	13.300	998.809	750.013
110.133	13.212	997.892	748.857
111.147	13.206	997.559	748.514
112.162	13.265	996.416	747.860
113.176	13.222	995.934	747.236
114.191	13.296	994.680	746.565
115.206	13.334	994.277	746.368
116.220	13.168	993.804	745.195
117.235	13.356	992.033	744.651
118.249	13.311	991.531	744.004
119.264	13.339	991.025	743.686
120.279	13.176	990.434	742.443
121.293	13.159	989.692	741.744
122.308	13.182	988.620	740.979
123.322	13.173	987.669	740.162
124.337	13.240	986.719	739.684
125.352	13.301	985.084	738.664
126.366	13.158	984.237	737.325
127.381	13.143	983.560	736.685
128.395	13.231	982.216	736.007
129.410	13.208	981.396	735.222
130.424	13.248	980.953	735.003
131.439	13.346	980.043	734.692
132.454	13.334	978.932	733.740
133.468	13.418	977.816	733.213
134.483	13.351	977.268	732.439
135.497	13.387	976.293	731.807
136.512	13.225	975.991	730.796
137.527	13.204	975.151	730.012
138.541	13.287	974.308	729.680
139.556	13.280	973.771	729.184
140.570	13.453	972.774	729.134
141.585	13.416	971.980	728.313
142.600	13.451	970.945	727.625
143.614	13.412	970.310	726.913
144.629	13.464	969.314	726.332
145.643	13.612	968.216	726.095
146.658	13.483	967.384	724.840
147.673	13.423	966.751	724.039
148.687	13.319	965.895	722.880
149.702	13.443	965.058	722.731
150.716	13.408	964.448	722.056
151.731	13.445	963.686	721.585
152.746	13.345	963.046	720.606
153.760	13.451	962.236	720.398
154.775	13.467	961.556	719.896
155.789	13.547	961.083	719.822
156.804	13.571	960.251	719.241
157.819	13.644	959.279	718.766
158.833	13.513	959.134	718.027
159.848	13.679	958.247	718.015
160.862	13.635	957.012	716.837
161.877	13.535	956.082	715.646
162.892	13.489	955.617	715.035
163.906	13.665	954.429	714.842
164.921	13.519	953.702	713.605
165.935	13.483	953.127	712.960
166.950	13.589	952.135	712.607
167.964	13.609	951.102	711.857
168.979	13.507	950.338	710.786
169.994	13.644	949.212	710.467
171.008	13.520	948.878	709.626
172.023	13.557	948.139	709.165
173.037	13.670	947.489	709.102
174.052	13.636	946.657	708.269
175.067	13.574	945.950	707.414
176.081	13.695	945.120	707.249
177.096	13.653	944.476	706.522
178.110	13.732	944.083	706.503
179.125	13.701	943.205	705.653
180.140	13.722	942.661	705.271
181.154	13.676	942.573	704.947
182.169	13.799	941.872	704.884
183.183	13.848	941.328	704.623
184.198	13.768	940.265	703.425
185.213	13.885	939.599	703.361
186.227	13.708	939.259	702.296
187.242	14.088	937.889	702.814
188.256	13.895	937.398	701.568
189.271	13.946	936.998	701.423
190.286	13.710	936.637	700.093
191.300	13.817	935.640	699.740
192.315	13.652	935.120	698.592
193.329	13.766	934.544	698.579
194.344	13.687	934.037	697.805
195.359	14.008	933.039	698.350
196.373	13.826	932.539	697.147
197.388	13.916	932.199	697.212
198.402	14.013	931.639	697.135
199.417	14.081	930.978	696.864
200.432	13.940	930.301	695.707
201.446	14.120	929.863	696.073
202.461	14.157	929.219	695.683
203.475	14.081	928.793	694.983
204.490	14.062	928.115	694.337
205.504	14.015	927.288	693.461
206.519	14.181	925.861	693.022
207.534	14.027	925.722	692.217
208.548	14.099	925.513	692.299
209.563	14.083	924.135	691.141
210.577	14.152	923.628	690.984
211.592	14.081	922.989	690.153
212.607	14.227	922.014	689.966
213.621	14.249	921.247	689.424
214.636	14.253	920.564	688.867
215.650	14.234	919.969	688.283
216.665	14.263	919.660	688.110
217.680	14.351	918.953	687.883
218.694	14.333	918.318	687.273
219.709	14.339	917.535	686.651
220.723	14.295	916.336	685.512
221.738	14.274	916.345	685.372
222.753	14.313	915.355	684.731
223.767	14.390	915.020	684.738
224.782	14.473	914.293	684.472
225.796	14.480	913.687	683.989
226.811	14.331	913.207	682.954
227.826	14.449	912.081	682.537
228.840	14.507	911.010	681.914
229.855	14.421	910.823	681.359
230.869	14.388	910.232	680.721
231.884	14.260	909.511	679.600
232.899	14.322	909.062	679.458
233.913	14.464	907.529	678.830
234.928	14.341	907.092	677.945
235.942	14.578	906.277	678.238
236.957	14.530	905.886	677.691
237.972	14.320	905.542	676.520
238.986	14.539	904.556	676.614
240.001	14.336	904.568	675.737
241.015	14.549	903.786	675.956
242.030	14.552	903.070	675.372
243.045	14.709	902.000	675.150
244.059	14.551	901.634	674.178
245.074	14.544	901.617	674.076
246.088	14.579	900.783	673.533
247.103	14.619	900.085	673.114
248.117	14.580	899.806	672.690
249.132	14.855	898.497	672.757
250.147	14.793	898.024	672.093
251.161	14.858	897.362	671.799
252.176	14.896	896.626	671.343
253.190	14.861	896.146	670.784
254.205	14.925	895.631	670.597
255.220	14.959	894.990	670.193
256.234	14.922	893.958	669.214
257.249	15.146	893.324	669.574
258.263	15.025	892.906	668.719
259.278	15.003	892.015	667.902
260.293	15.005	891.543	667.500
261.307	14.921	890.940	666.653
262.322	15.047	890.588	666.833
263.336	15.304	888.738	666.410
264.351	15.052	888.685	665.312
265.366	15.077	888.010	664.844
266.380	15.086	887.932	664.765
267.395	15.127	887.111	664.254
268.409	15.185	886.278	663.799
269.424	15.107	885.549	662.886
270.439	15.220	884.292	662.335
271.453	15.093	884.362	661.826
272.468	15.189	883.688	661.643
273.482	15.240	882.856	661.162
274.497	15.084	882.721	660.387
275.512	15.217	881.760	660.135
276.526	15.395	880.967	660.182
277.541	15.195	881.305	659.588
278.555	15.348	880.289	659.373
279.570	15.326	879.405	658.564
280.585	15.294	878.921	658.018
281.599	15.454	877.558	657.566
282.614	15.331	877.352	656.872
283.628	15.400	876.737	656.626
284.643	15.409	876.164	656.174
285.657	15.384	875.579	655.578
286.672	15.379	874.932	655.017
287.687	15.409	874.104	654.454
288.701	15.526	873.648	654.513
289.716	15.393	873.156	653.567
290.730	15.399	872.820	653.281
291.745	15.369	872.474	652.847
292.760	15.531	871.783	652.902
293.774	15.590	870.469	652.091
294.789	15.615	870.049	651.816
295.803	15.558	869.516	651.135
296.818	15.492	868.662	650.187
297.833	15.497	868.088	649.717
298.847	15.599	867.695	649.761
299.862	15.652	866.946	649.344
300.876	15.624	866.504	648.847
301.891	15.627	865.964	648.397
302.906	15.621	865.371	647.875
303.920	15.810	864.598	647.968
304.935	15.897	864.174	647.928
305.949	15.757	863.491	646.819
306.964	15.757	862.872	646.296
307.979	15.818	862.564	646.243
308.993	15.914	861.516	645.769
310.008	15.888	861.342	645.481
311.022	15.742	861.110	644.692
312.037	15.794	860.024	644.020
313.052	15.960	859.309	644.062
314.066	15.847	858.890	643.261
315.081	15.866	858.277	642.815
316.095	15.919	857.109	642.087
317.110	15.809	856.994	641.524
318.125	15.778	856.813	641.214
319.139	15.822	856.061	640.763
320.154	15.955	855.525	640.809
321.168	15.911	854.987	640.183
322.183	15.805	854.609	639.440
323.197	16.059	854.217	640.057
324.212	15.872	853.805	638.982
325.227	15.890	853.034	638.416
326.241	15.891	852.389	637.879
327.256	15.811	851.818	637.095
328.270	15.830	851.350	636.760
329.285	15.959	850.856	636.820
330.300	15.914	850.237	636.132
331.314	15.987	849.493	635.793
332.329	15.922	849.295	635.346
333.343	16.011	848.615	635.114
334.358	16.050	848.397	635.044
335.373	16.139	847.749	634.836
336.387	16.150	847.585	634.699
337.402	16.079	847.464	634.287
338.416	16.260	846.712	634.346
339.431	16.213	846.573	634.007
340.446	16.182	846.090	633.473
341.460	16.230	845.853	633.420
342.475	16.375	845.335	633.523
343.489	16.346	845.089	633.173
344.504	16.410	844.334	632.791
345.519	16.376	843.869	632.259
346.533	16.466	842.872	631.792
347.548	16.311	842.977	631.237
348.562	16.306	842.314	630.663
349.577	16.338	841.365	630.018
350.592	16.415	840.539	629.631
351.606	16.268	840.677	629.130
352.621	16.305	839.671	628.459
353.635	16.386	838.947	628.164
354.650	16.360	838.313	627.535
355.665	16.369	837.848	627.167
356.679	16.448	836.997	626.768
357.694	16.301	836.696	625.941
358.708	16.383	836.329	625.915
359.723	16.578	835.351	625.849
360.738	16.393	835.216	625.007
361.752	16.567	834.024	624.703
362.767	16.625	833.694	624.615
363.781	16.454	833.024	623.425
364.796	16.487	832.921	623.416
365.810	16.687	832.082	623.469
366.825	16.708	832.038	623.457
367.840	16.722	831.519	623.067
368.854	16.688	830.981	622.485
369.869	16.724	830.769	622.400
370.883	16.684	830.149	621.733
371.898	16.707	829.908	621.584
372.913	16.834	829.412	621.623
373.927	16.993	828.433	621.418
374.942	16.864	828.553	620.979
375.956	16.830	828.080	620.445
376.971	17.056	827.488	620.774
377.986	16.872	827.051	619.717
379.000	17.080	826.487	620.001
380.015	16.943	826.160	619.200
381.029	16.943	825.769	618.852
382.044	17.036	824.632	618.285
383.059	16.966	824.286	617.714
384.073	16.994	823.794	617.393
385.088	16.901	823.084	616.468
386.102	16.956	822.701	616.330
387.117	16.971	822.263	616.001
388.132	16.993	821.705	615.608
389.146	16.996	820.907	614.965
390.161	17.011	820.668	614.785
391.175	17.050	819.841	614.254
392.190	17.049	819.399	613.863
393.205	17.154	819.083	613.954
394.219	17.031	818.692	613.161
395.234	17.050	818.300	612.883
396.248	17.150	817.761	612.783
397.263	17.059	817.072	611.885
398.278	17.147	816.984	612.085
399.292	17.082	816.764	611.631
400.307	16.964	816.607	611.034
401.321	17.132	815.443	610.713
402.336	17.084	815.095	610.224
403.350	17.192	814.744	610.296
404.365	17.261	814.482	610.293
405.380	17.262	813.554	609.549
406.394	17.312	812.973	609.237
407.409	17.212	812.920	608.785
408.423	17.215	812.392	608.348
409.438	17.258	811.713	607.939
410.453	17.427	811.717	608.492
411.467	17.339	811.324	607.830
412.482	17.561	810.317	607.813
413.496	17.512	810.392	607.641
414.511	17.435	810.219	607.184
415.526	17.371	809.434	606.314
416.540	17.567	808.849	606.521
417.555	17.519	808.637	606.135
418.569	17.523	808.056	605.660
419.584	17.472	807.596	605.081
420.599	17.669	806.996	605.279
421.613	113.841	1298.747	1488.413
422.628	98.328	1370.355	1488.468
