DTS Sentinel unit serial number:	SN413079Multiplexer serial number:	ORYXHardware model number:	OX4-SRSoftware version number:	ORYX F/W v4.00 Oryx Data Collector v3.7.2.0data status	okinstallation	princeton_trtdifferential loss correction	single-endedforward channel	channel 1reverse channel	N/Adate	2019/09/16time	07:38:35forward acquisition time	60.00reverse acquisition time	0.00gamma	496.2192k internal	0.2329k external	0.2329temperature offset calibration	0.9982default loss term (dB/km)	0.3790temperature slope calibration	1.0000multiplexer offset coefficient	1.0000multiplexer slope coefficient	1.0000fibre end	0.00T internal ref (°C)	27.81T ext. ref 1 (°C)	11.67T ext. ref 2 (°C)	24.49length (m)	temperature (°C)	Stokes	anti-Stokes-747.200	-76.066	0.310	0.110
-746.185	683.763	-0.087	0.228
-745.171	-91.865	-0.179	0.051
-744.156	-104.106	-0.282	0.066
-743.142	329.402	0.079	0.153
-742.127	468.272	-0.133	0.301
-741.112	129.993	0.209	0.269
-740.098	319.074	0.169	0.323
-739.083	-48.880	0.026	-0.012
-738.069	-127.533	-0.252	-0.037
-737.054	-74.509	-0.097	-0.035
-736.039	800.000	-0.036	-0.159
-735.025	127.714	0.214	0.274
-734.010	-11.088	-0.272	-0.180
-732.996	261.783	-0.096	-0.168
-731.981	-73.356	-0.194	0.071
-730.966	800.000	0.038	-0.167
-729.952	-123.586	-0.296	-0.047
-728.937	-131.640	-0.237	-0.031
-727.923	800.000	-0.037	-0.131
-726.908	115.024	-0.076	-0.093
-725.894	116.319	0.242	-0.299
-724.879	-200.000	-0.010	0.049
-723.864	-62.555	-0.105	0.044
-722.850	448.346	-0.056	0.125
-721.835	-28.404	0.378	-0.220
-720.821	800.000	-0.055	-0.165
-719.806	800.000	-0.063	0.181
-718.791	-64.828	-0.153	-0.062
-717.777	-91.067	-0.227	0.066
-716.762	-103.620	-0.241	-0.057
-715.748	204.106	0.019	0.029
-714.733	-42.557	-0.142	0.073
-713.718	-162.736	0.284	0.014
-712.704	32.241	-0.069	0.060
-711.689	-26.585	-0.105	0.062
-710.675	392.497	0.071	0.148
-709.660	-200.000	0.004	-0.058
-708.645	-200.000	-0.107	-0.598
-707.631	-63.210	0.160	-0.066
-706.616	-157.664	-0.284	0.017
-705.602	52.690	0.090	0.087
-704.587	41.761	-0.310	-0.282
-703.572	2.177	-0.200	-0.145
-702.558	786.686	-0.059	-0.163
-701.543	-200.000	-0.070	0.332
-700.529	-42.766	0.153	-0.078
-699.514	-200.000	-0.020	0.374
-698.499	87.375	-0.130	-0.145
-697.485	703.227	-0.167	-0.443
-696.470	-1.189	-0.176	0.125
-695.456	255.815	0.060	-0.103
-694.441	-33.547	-0.302	-0.168
-693.426	-200.000	0.005	-0.127
-692.412	-168.153	0.237	-0.009
-691.397	-44.412	0.291	-0.146
-690.383	31.105	0.228	0.196
-689.368	-55.429	-0.111	-0.050
-688.354	112.614	-0.080	0.097
-687.339	147.188	-0.112	-0.151
-686.324	177.692	-0.054	0.079
-685.310	-200.000	-0.021	0.133
-684.295	190.578	-0.087	-0.132
-683.281	-140.246	-0.081	-0.009
-682.266	-200.000	-0.024	-0.217
-681.251	-106.558	0.224	0.050
-680.237	53.616	-0.376	-0.363
-679.222	-124.686	0.038	-0.006
-678.208	339.270	-0.041	0.080
-677.193	-200.000	-0.001	-0.195
-676.178	33.587	-0.220	-0.192
-675.164	-132.996	-0.230	0.029
-674.149	-26.103	-0.090	-0.053
-673.135	-2.776	-0.103	-0.072
-672.120	-175.683	-0.143	-0.004
-671.105	-83.400	0.239	0.077
-670.091	105.164	-0.150	-0.178
-669.076	274.673	0.180	-0.320
-668.062	224.519	-0.181	0.294
-667.047	-32.581	0.046	-0.026
-666.032	-99.301	0.275	0.070
-665.018	52.614	-0.093	0.090
-664.003	-49.147	0.177	0.085
-662.989	36.642	-0.191	0.169
-661.974	13.736	0.246	0.192
-660.959	18.221	-0.058	-0.046
-659.945	88.259	0.117	-0.130
-658.930	111.766	0.055	0.067
-657.916	800.000	-0.044	0.149
-656.901	-147.109	-0.110	0.009
-655.886	-200.000	0.004	0.094
-654.872	305.023	0.095	0.177
-653.857	-200.000	0.004	-0.321
-652.843	700.424	-0.014	0.038
-651.828	-12.668	0.238	0.156
-650.814	-139.085	-0.149	-0.016
-649.799	-27.392	0.282	-0.165
-648.784	-168.743	-0.167	-0.006
-647.770	547.167	0.140	-0.337
-646.755	-200.000	0.011	0.068
-645.741	-200.000	0.029	-0.238
-644.726	131.902	-0.177	-0.228
-643.711	-14.462	-0.176	0.114
-642.697	-200.000	-0.009	-0.332
-641.682	366.764	-0.088	0.178
-640.668	-97.174	-0.267	-0.070
-639.653	-154.724	-0.185	0.012
-638.638	-28.333	0.254	-0.147
-637.624	-95.263	0.077	-0.021
-636.609	132.844	-0.216	0.280
-635.595	164.128	-0.107	-0.152
-634.580	-200.000	0.029	-0.228
-633.565	-90.645	0.029	0.008
-632.551	-125.520	0.228	-0.035
-631.536	-200.000	-0.032	-0.219
-630.522	-128.817	0.234	0.033
-629.507	-119.109	0.271	-0.048
-628.492	-113.518	-0.169	0.033
-627.478	-149.536	-0.159	0.013
-626.463	-200.000	-0.009	-0.315
-625.449	410.161	-0.158	-0.335
-624.434	-48.757	-0.274	0.132
-623.419	800.000	0.074	-0.218
-622.405	-27.645	-0.260	-0.151
-621.390	56.457	-0.226	-0.221
-620.376	-36.925	-0.122	-0.065
-619.361	71.695	-0.108	-0.113
-618.346	8.388	0.162	-0.122
-617.332	-136.534	-0.067	-0.008
-616.317	-112.177	0.125	-0.025
-615.303	-90.486	-0.320	-0.093
-614.288	-200.000	-0.007	-0.223
-613.273	272.641	-0.079	0.139
-612.259	269.932	0.142	-0.250
-611.244	800.000	-0.060	0.168
-610.230	-53.308	-0.223	-0.102
-609.215	800.000	-0.068	0.288
-608.201	-80.989	0.132	-0.044
-607.186	-146.476	0.195	0.017
-606.171	-26.518	-0.193	0.113
-605.157	407.002	-0.137	0.290
-604.142	209.470	0.252	0.396
-603.128	-92.088	0.140	-0.040
-602.113	-194.234	-0.249	-0.002
-601.098	84.995	0.242	0.266
-600.084	-97.295	-0.246	-0.064
-599.069	-200.000	-0.010	-0.194
-598.055	-123.802	0.208	-0.033
-597.040	363.012	-0.225	0.454
-596.025	-200.000	0.015	-0.341
-595.011	129.680	0.098	0.125
-593.996	24.615	-0.182	-0.151
-592.982	-63.062	0.137	0.057
-591.967	-200.000	0.018	0.355
-590.952	-95.771	-0.283	0.076
-589.938	49.518	0.105	0.099
-588.923	-118.732	-0.108	0.019
-587.909	-102.313	-0.199	-0.048
-586.894	-155.537	0.451	0.029
-585.879	-53.163	-0.085	0.039
-584.865	-71.483	-0.115	-0.043
-583.850	-95.981	0.154	0.041
-582.836	-70.559	-0.085	-0.032
-581.821	-143.141	-0.220	-0.021
-580.806	-30.807	-0.211	0.119
-579.792	-6.998	-0.084	0.057
-578.777	-97.432	0.101	0.026
-577.763	-109.905	-0.280	-0.059
-576.748	312.598	0.132	0.249
-575.733	72.050	0.109	0.114
-574.719	248.450	-0.111	0.188
-573.704	29.400	-0.284	0.242
-572.690	-129.180	-0.045	0.006
-571.675	175.779	0.068	-0.099
-570.661	331.184	-0.098	-0.190
-569.646	-71.549	-0.490	0.183
-568.631	-12.563	-0.058	-0.038
-567.617	107.875	0.176	-0.210
-566.602	-200.000	-0.015	0.179
-565.588	-200.000	-0.044	0.368
-564.573	95.886	-0.134	0.153
-563.558	-54.188	0.159	0.072
-562.544	-144.230	-0.277	-0.026
-561.529	252.440	0.182	-0.310
-560.515	-200.000	-0.015	-0.195
-559.500	-80.431	-0.128	-0.043
-558.485	-89.303	0.256	0.075
-557.471	-7.826	0.100	0.068
-556.456	-163.937	0.160	-0.007
-555.442	238.169	0.079	-0.131
-554.427	800.000	0.050	-0.213
-553.412	-181.990	0.112	0.002
-552.398	197.553	-0.083	0.126
-551.383	765.455	-0.088	0.240
-550.369	-132.292	-0.226	0.029
-549.354	-187.356	-0.415	-0.006
-548.339	-175.318	-0.216	0.006
-547.325	-200.000	-0.037	0.384
-546.310	54.916	0.150	0.145
-545.296	32.783	0.313	-0.270
-544.281	-130.614	-0.059	0.008
-543.266	800.000	0.106	0.353
-542.252	250.013	-0.032	0.054
-541.237	67.292	0.180	0.184
-540.223	240.565	-0.071	0.119
-539.208	-200.000	-0.002	-0.201
-538.193	800.000	-0.094	0.307
-537.179	107.338	-0.183	0.218
-536.164	220.206	-0.057	0.091
-535.150	-86.391	0.155	-0.047
-534.135	78.504	-0.216	0.231
-533.121	196.306	0.034	-0.051
-532.106	-158.599	0.207	-0.012
-531.091	64.988	0.040	0.040
-530.077	-46.701	-0.277	-0.136
-529.062	-101.179	-0.201	0.049
-528.048	374.686	0.025	-0.050
-527.033	800.000	-0.059	0.195
-526.018	-200.000	0.015	0.106
-525.004	-36.542	0.222	0.119
-523.989	-112.054	0.072	-0.014
-522.975	742.222	0.085	-0.227
-521.960	-76.276	0.156	0.055
-520.945	-1.667	-0.375	0.264
-519.931	-200.000	0.002	0.106
-518.916	25.178	0.038	-0.032
-517.902	-35.183	-0.260	-0.141
-516.887	-116.047	0.083	0.015
-515.872	-200.000	-0.006	-0.370
-514.858	-109.057	0.247	0.052
-513.843	-64.993	0.169	-0.068
-512.829	-200.000	0.001	0.167
-511.814	-45.974	-0.321	-0.158
-510.799	382.389	-0.200	0.411
-509.785	-128.231	-0.202	0.029
-508.770	-200.000	-0.001	0.088
-507.756	-14.682	-0.093	-0.060
-506.741	-61.848	-0.095	0.040
-505.726	616.804	-0.113	-0.284
-504.712	9.585	0.392	0.297
-503.697	-80.232	-0.058	-0.019
-502.683	-112.611	0.341	-0.068
-501.668	-200.000	0.025	-0.166
-500.653	238.320	-0.061	0.102
-499.639	800.000	0.030	0.089
-498.624	-200.000	-0.033	-0.388
-497.610	274.162	-0.197	-0.348
-496.595	-200.000	0.036	0.227
-495.581	-125.048	0.108	-0.017
-494.566	-200.000	0.020	-0.000
-493.551	-200.000	0.028	-0.242
-492.537	336.613	0.163	0.316
-491.522	-63.867	0.347	-0.142
-490.508	-200.000	-0.047	-0.341
-489.493	-184.298	-0.524	0.009
-488.478	-95.326	0.211	-0.057
-487.464	-200.000	0.002	0.049
-486.449	787.490	0.105	0.288
-485.435	75.478	-0.198	0.209
-484.420	-8.824	-0.225	0.150
-483.405	146.743	0.109	-0.146
-482.391	-200.000	-0.015	0.246
-481.376	-67.421	0.266	-0.104
-480.362	-100.218	-0.207	-0.051
-479.347	230.746	0.127	-0.208
-478.332	-200.000	0.039	0.266
-477.318	245.641	-0.137	0.230
-476.303	30.462	0.183	-0.156
-475.289	-113.894	0.175	-0.034
-474.274	-200.000	0.002	-0.108
-473.259	-65.364	-0.279	-0.112
-472.245	-143.854	0.273	-0.026
-471.230	-173.678	0.071	-0.002
-470.216	-200.000	0.024	-0.205
-469.201	-200.000	0.049	-0.239
-468.186	-200.000	-0.015	0.320
-467.172	-193.390	0.255	0.002
-466.157	553.947	0.125	-0.300
-465.143	119.172	-0.185	-0.228
-464.128	206.596	0.149	-0.231
-463.113	800.000	-0.057	-0.240
-462.099	166.384	0.093	0.132
-461.084	800.000	0.044	-0.135
-460.070	-38.099	0.303	-0.160
-459.055	-200.000	-0.028	-0.229
-458.040	800.000	0.066	-0.248
-457.026	-124.589	-0.112	0.017
-456.011	-200.000	0.062	0.508
-454.997	259.057	-0.159	0.273
-453.982	-80.325	0.376	-0.125
-452.968	-79.833	-0.228	-0.077
-451.953	-119.658	0.219	0.038
-450.938	-122.612	-0.272	0.044
-449.924	-74.115	-0.007	0.003
-448.909	-134.744	0.097	-0.012
-447.895	-200.000	0.005	0.360
-446.880	-200.000	-0.049	0.239
-445.865	-80.184	-0.038	-0.013
-444.851	-47.302	0.077	-0.037
-443.836	93.163	-0.199	0.224
-442.822	-20.309	-0.263	0.161
-441.807	-153.023	0.383	-0.027
-440.792	-200.000	0.002	-0.060
-439.778	1.163	0.199	0.142
-438.763	-78.773	0.283	0.096
-437.749	126.575	-0.162	0.204
-436.734	800.000	-0.084	0.306
-435.719	-52.859	-0.205	-0.094
-434.705	-5.613	-0.088	-0.060
-433.690	542.673	-0.110	0.262
-432.676	163.002	0.062	0.087
-431.661	-150.863	0.352	-0.027
-430.646	152.419	-0.151	-0.205
-429.632	-119.701	0.299	0.051
-428.617	800.000	-0.054	-0.209
-427.603	188.619	0.122	0.181
-426.588	371.163	-0.063	-0.127
-425.573	800.000	-0.168	0.466
-424.559	-200.000	-0.008	-0.175
-423.544	-69.504	0.062	-0.024
-422.530	125.818	0.251	0.316
-421.515	800.000	-0.105	0.434
-420.500	-71.748	-0.271	-0.101
-419.486	250.687	-0.017	0.028
-418.471	-45.519	-0.476	-0.235
-417.457	-200.000	-0.009	0.266
-416.442	-200.000	0.026	0.134
-415.428	-200.000	0.055	-0.250
-414.413	-50.742	-0.184	-0.086
-413.398	79.575	-0.079	-0.084
-412.384	-21.840	0.372	0.225
-411.369	4.651	0.263	-0.192
-410.355	-6.386	-0.213	-0.145
-409.340	199.252	-0.208	-0.318
-408.325	335.012	0.039	-0.075
-407.311	416.418	-0.050	-0.106
-406.296	-80.617	-0.414	-0.137
-405.282	800.000	0.118	-0.405
-404.267	8.584	0.279	-0.209
-403.252	76.210	0.115	0.121
-402.238	-4.936	-0.130	0.089
-401.223	-54.246	0.213	-0.096
-400.209	370.917	-0.045	-0.090
-399.194	12.594	-0.259	0.198
-398.179	179.050	0.066	-0.095
-397.165	-200.000	0.034	-0.341
-396.150	-26.748	-0.105	0.061
-395.136	15.127	0.077	-0.060
-394.121	800.000	0.085	-0.273
-393.106	-8.903	-0.199	0.132
-392.092	12.401	0.033	0.025
-391.077	765.772	-0.068	-0.185
-390.063	162.162	0.204	0.285
-389.048	574.546	0.094	0.227
-388.033	-135.356	0.356	0.042
-387.019	-200.000	0.043	-0.278
-386.004	800.000	0.109	-0.318
-384.990	90.741	0.275	-0.306
-383.975	-200.000	0.030	0.361
-382.960	534.354	0.128	-0.300
-381.946	-200.000	-0.165	-0.001
-380.931	-94.425	-0.063	-0.017
-379.917	-50.729	0.274	0.128
-378.902	767.334	-0.085	0.229
-377.888	-200.000	0.030	0.232
-376.873	27.247	-0.127	-0.106
-375.858	51.074	0.199	0.187
-374.844	280.114	-0.091	0.162
-373.829	341.974	0.127	-0.248
-372.815	-11.170	-0.145	-0.095
-371.800	74.920	0.136	0.142
-370.785	-129.677	-0.195	0.027
-369.771	321.533	0.149	0.282
-368.756	-200.000	0.064	-0.292
-367.742	252.767	-0.016	-0.027
-366.727	-161.417	-0.225	-0.012
-365.712	42.068	-0.132	0.119
-364.698	-110.996	-0.221	0.045
-363.683	-62.165	0.232	-0.096
-362.669	-200.000	0.045	-0.277
-361.654	63.901	0.061	-0.061
-360.639	-12.978	0.126	-0.082
-359.625	354.943	0.100	-0.198
-358.610	365.149	-0.099	-0.199
-357.596	562.442	0.010	-0.025
-356.581	-200.000	0.038	0.287
-355.566	172.258	0.078	-0.112
-354.552	-200.000	0.001	0.012
-353.537	-1.917	-0.188	0.131
-352.523	299.762	-0.286	-0.523
-351.508	-22.388	0.246	-0.148
-350.493	-159.364	-0.294	-0.016
-349.479	-200.000	-0.013	-0.090
-348.464	-134.539	0.194	0.024
-347.450	338.378	-0.082	0.159
-346.435	-106.245	-0.063	-0.014
-345.420	-200.000	-0.012	-0.296
-344.406	-47.137	0.161	-0.078
-343.391	253.625	0.164	-0.277
-342.377	457.641	-0.048	-0.106
-341.362	463.574	-0.116	0.256
-340.348	-200.000	-0.004	0.023
-339.333	800.000	-0.104	-0.308
-338.318	188.971	-0.049	0.073
-337.304	44.309	0.088	0.080
-336.289	118.168	-0.300	-0.367
-335.275	359.232	0.158	0.314
-334.260	-52.755	-0.120	0.055
-333.245	122.770	0.359	0.445
-332.231	46.609	-0.109	0.100
-331.216	-200.000	-0.019	-0.183
-330.202	-30.998	0.102	0.057
-329.187	-200.000	-0.004	0.051
-328.172	-92.612	0.146	-0.041
-327.158	800.000	0.095	-0.319
-326.143	-157.506	0.177	-0.011
-325.129	36.985	-0.401	-0.352
-324.114	62.610	0.117	0.116
-323.099	512.952	-0.127	-0.294
-322.085	800.000	0.044	0.163
-321.070	-200.000	0.014	0.171
-320.056	-34.471	0.225	0.122
-319.041	152.034	-0.227	-0.307
-318.026	-53.570	0.242	0.110
-317.012	357.731	-0.161	-0.318
-315.997	-37.995	0.173	0.091
-314.983	112.501	-0.101	-0.121
-313.968	800.000	-0.064	0.226
-312.953	156.021	0.112	0.153
-311.939	5.740	-0.262	0.192
-310.924	-173.032	0.097	0.003
-309.910	9.467	-0.135	-0.102
-308.895	-200.000	-0.039	0.180
-307.880	-179.536	-0.174	0.004
-306.866	-73.147	0.119	-0.043
-305.851	800.000	-0.032	-0.134
-304.837	-113.867	0.187	-0.036
-303.822	-116.229	0.348	-0.064
-302.807	110.655	-0.175	0.208
-301.793	93.935	0.117	0.131
-300.778	580.862	0.125	0.302
-299.764	97.358	0.205	-0.233
-298.749	104.577	0.021	-0.024
-297.735	-38.230	-0.325	0.171
-296.720	-108.594	0.154	0.033
-295.705	-134.045	-0.207	-0.025
-294.691	40.523	0.111	0.099
-293.676	-200.000	0.015	-0.141
-292.662	18.693	-0.078	-0.062
-291.647	46.963	-0.198	0.183
-290.632	-64.478	0.105	-0.042
-289.618	-85.877	-0.254	0.078
-288.603	-54.843	0.158	0.070
-287.589	2.275	0.152	-0.108
-286.574	-200.000	0.056	0.332
-285.559	-134.045	-0.097	-0.012
-284.545	-200.000	0.028	-0.330
-283.530	800.000	-0.014	-0.040
-282.516	-24.186	0.285	-0.168
-281.501	-68.717	0.082	0.032
-280.486	-200.000	0.037	-0.204
-279.472	-48.223	-0.126	-0.060
-278.457	-145.923	-0.212	0.019
-277.443	0.699	-0.076	-0.054
-276.428	800.000	0.125	0.406
-275.413	-45.443	-0.261	0.128
-274.399	-200.000	0.010	0.137
-273.384	-129.698	0.091	-0.012
-272.370	-200.000	0.022	0.179
-271.355	-70.422	0.461	0.173
-270.340	-200.000	-0.025	-0.346
-269.326	-147.362	0.274	-0.023
-268.311	312.808	-0.104	0.193
-267.297	34.890	-0.196	0.169
-266.282	800.000	0.050	0.204
-265.267	-132.502	-0.183	-0.023
-264.253	-119.494	0.395	0.068
-263.238	800.000	-0.084	-0.357
-262.224	-128.048	0.169	0.024
-261.209	395.342	0.119	0.246
-260.195	288.807	-0.131	0.235
-259.180	-101.294	0.159	-0.038
-258.165	-200.000	-0.031	0.209
-257.151	138.723	-0.055	-0.071
-256.136	-200.000	0.007	0.348
-255.122	-61.065	-0.220	-0.092
-254.107	-66.908	0.087	0.034
-253.092	-200.000	-0.016	-0.272
-252.078	-101.970	-0.149	-0.036
-251.063	-146.368	-0.044	0.004
-250.049	135.389	-0.026	0.034
-249.034	800.000	0.075	-0.282
-248.019	-182.495	0.130	0.002
-247.005	800.000	0.005	0.015
-245.990	800.000	-0.075	0.226
-244.976	85.556	-0.115	-0.124
-243.961	800.000	0.092	-0.367
-242.946	-40.488	0.066	-0.034
-241.932	-76.185	-0.338	0.118
-240.917	-200.000	-0.003	-0.088
-239.903	493.830	-0.089	-0.201
-238.888	12.079	0.176	-0.134
-237.873	38.682	-0.206	0.182
-236.859	-104.117	0.546	-0.125
-235.844	-86.417	0.160	-0.049
-234.830	343.217	-0.235	-0.455
-233.815	77.680	-0.220	-0.232
-232.800	-200.000	-0.001	-0.010
-231.786	527.314	0.119	0.277
-230.771	-133.147	0.202	-0.025
-229.757	-200.000	0.014	0.120
-228.742	601.909	-0.080	0.196
-227.727	-86.635	0.412	0.125
-226.713	276.932	-0.100	-0.175
-225.698	535.095	0.070	0.163
-224.684	292.973	0.120	-0.217
-223.669	232.016	-0.097	-0.156
-222.655	111.928	0.174	0.207
-221.640	-111.866	0.072	-0.014
-220.625	-200.000	-0.095	-0.428
-219.611	-74.690	-0.089	-0.032
-218.596	-110.907	-0.193	0.039
-217.582	-149.332	0.267	-0.021
-216.567	-65.549	0.323	0.128
-215.552	-71.813	-0.154	-0.057
-214.538	-200.000	-0.037	0.241
-213.523	-82.577	0.208	0.066
-212.509	228.795	-0.122	-0.195
-211.494	-163.938	0.211	-0.010
-210.479	-200.000	0.036	0.302
-209.465	-200.000	0.024	-0.198
-208.450	-162.779	0.106	0.005
-207.436	800.000	0.059	0.213
-206.421	-71.719	-0.251	-0.092
-205.406	-200.000	0.022	0.126
-204.392	-80.119	-0.226	-0.075
-203.377	-12.213	0.097	-0.062
-202.363	-44.156	0.076	0.038
-201.348	-46.243	0.029	-0.014
-200.333	85.806	0.108	0.117
-199.319	163.439	-0.076	-0.105
-198.304	-200.000	0.047	0.296
-197.290	691.627	0.053	0.136
-196.275	-200.000	-0.008	-0.249
-195.260	-200.000	-0.003	-0.114
-194.246	-73.122	-0.152	-0.055
-193.231	-43.222	-0.081	0.040
-192.217	-154.706	0.123	0.008
-191.202	-125.935	0.186	-0.028
-190.187	-83.842	-0.328	-0.103
-189.173	-200.000	-0.002	-0.098
-188.158	-81.596	-0.093	-0.030
-187.144	497.801	0.039	0.088
-186.129	-6.357	0.152	0.102
-185.114	-200.000	-0.000	0.037
-184.100	-154.873	-0.091	-0.006
-183.085	800.000	0.052	0.180
-182.071	-198.527	-0.248	0.001
-181.056	34.822	-0.078	-0.067
-180.042	-200.000	0.048	-0.211
-179.027	352.026	-0.064	0.125
-178.012	-200.000	0.064	-0.293
-176.998	-9.295	-0.165	-0.108
-175.983	-22.244	0.047	0.028
-174.969	-200.000	0.039	0.172
-173.954	391.371	0.064	0.130
-172.939	27.255	-0.143	0.118
-171.925	71.270	0.169	-0.173
-170.910	-72.264	0.110	-0.040
-169.896	416.929	0.127	0.267
-168.881	800.000	-0.011	-0.040
-167.866	315.077	-0.124	0.229
-166.852	-60.159	-0.260	-0.109
-165.837	-200.000	-0.017	0.267
-164.823	-92.166	0.096	-0.027
-163.808	148.387	-0.140	-0.186
-162.793	-150.159	0.179	-0.014
-161.779	494.312	-0.042	0.095
-160.764	-170.130	0.167	-0.006
-159.750	-59.396	-0.112	0.047
-158.735	-68.084	0.492	0.189
-157.720	-200.000	-0.049	0.216
-156.706	800.000	-0.096	0.291
-155.691	-134.081	-0.158	0.019
-154.677	196.320	0.051	0.076
-153.662	33.575	0.184	-0.157
-152.647	422.872	0.109	-0.231
-151.633	6.708	-0.198	0.145
-150.618	-200.000	0.020	0.125
-149.604	-111.926	0.113	0.022
-148.589	-115.710	0.130	0.024
-147.574	615.861	-0.015	-0.038
-146.560	478.592	-0.041	-0.092
-145.545	800.000	-0.132	0.490
-144.531	-68.582	0.116	-0.044
-143.516	191.432	0.145	0.215
-142.502	-200.000	-0.007	0.259
-141.487	-19.831	0.283	-0.172
-140.472	41.457	-0.100	-0.089
-139.458	714.383	0.152	0.396
-138.443	800.000	-0.058	0.240
-137.429	119.877	0.232	0.283
-136.414	-140.636	-0.140	0.014
-135.399	12.098	-0.007	0.005
-134.385	-176.427	-0.327	-0.008
-133.370	71.161	-0.153	0.156
-132.356	258.598	0.103	-0.175
-131.341	49.256	-0.115	-0.106
-130.326	257.785	-0.163	0.276
-129.312	-200.000	0.006	-0.209
-128.297	196.780	0.074	-0.111
-127.283	130.466	0.101	-0.127
-126.268	231.516	0.312	0.503
-125.253	800.000	0.031	-0.120
-124.239	-87.877	-0.100	-0.029
-123.224	-63.204	-0.043	0.017
-122.210	800.000	0.028	-0.108
-121.195	-200.000	-0.010	-0.089
-120.180	369.143	-0.157	0.313
-119.166	83.346	0.327	0.350
-118.151	-52.102	-0.245	-0.112
-117.137	469.534	-0.093	-0.206
-116.122	-53.495	0.233	0.105
-115.107	257.480	0.080	0.136
-114.093	-200.000	0.048	0.255
-113.078	57.875	0.175	-0.169
-112.064	-143.565	0.346	0.032
-111.049	54.644	0.081	0.077
-110.034	3.211	0.080	-0.057
-109.020	-200.000	-0.009	-0.069
-108.005	800.000	0.065	0.237
-106.991	800.000	0.069	0.260
-105.976	-170.608	0.248	0.008
-104.962	-35.088	0.154	-0.083
-103.947	-200.000	0.049	0.210
-102.932	-200.000	-0.016	-0.279
-101.918	-22.804	0.151	-0.090
-100.903	-108.531	0.187	0.040
-99.889	-200.000	-0.002	-0.354
-98.874	-130.014	0.345	0.046
-97.859	83.868	-0.267	-0.287
-96.845	-200.000	-0.025	-0.116
-95.830	-200.000	0.035	0.225
-94.816	82.914	0.197	-0.210
-93.801	197.994	0.222	0.333
-92.786	-200.000	0.061	0.335
-91.772	-20.611	0.374	0.225
-90.757	108.262	-0.058	0.068
-89.743	47.087	-0.189	0.172
-88.728	-44.252	0.310	-0.152
-87.713	-200.000	-0.007	0.263
-86.699	-88.647	0.175	-0.051
-85.684	112.074	0.315	0.374
-84.670	800.000	-0.048	-0.182
-83.655	224.250	-0.149	0.236
-82.640	95.938	0.034	-0.038
-81.626	-48.230	0.189	0.090
-80.611	-13.425	-0.100	0.064
-79.597	757.885	-0.057	0.150
-78.582	-53.221	-0.131	-0.059
-77.567	426.687	0.089	0.188
-76.553	9.859	-0.274	0.204
-75.538	800.000	0.096	-0.301
-74.524	23.078	0.257	-0.207
-73.509	43.318	-0.200	-0.179
-72.494	-52.267	-0.281	0.128
-71.480	174.622	-0.327	-0.464
-70.465	351.591	-0.125	-0.243
-69.451	458.619	-0.023	-0.049
-68.436	328.567	-0.002	-0.003
-67.422	-7.010	-0.333	-0.222
-66.407	800.000	-0.029	-0.082
-65.392	609.488	0.069	-0.168
-64.378	129.108	0.081	0.102
-63.363	800.000	0.087	0.263
-62.349	151.668	0.139	0.186
-61.334	93.619	-1.120	-1.244
-60.319	85.959	0.721	0.778
-59.305	-200.000	-0.210	-0.980
-58.290	510.337	0.566	1.291
-57.276	491.746	0.605	1.359
-56.261	-200.000	111.228	615.756
-55.246	448.465	1511.984	3265.493
-54.232	145.716	2682.204	3523.887
-53.217	103.326	2162.591	2486.320
-52.203	39.229	1608.948	1411.402
-51.188	31.120	1354.341	1138.765
-50.173	28.164	1315.855	1088.801
-49.159	53.308	1370.343	1287.178
-48.144	53.041	1385.641	1299.877
-47.130	31.381	1341.229	1129.138
-46.115	27.916	1323.507	1093.472
-45.100	27.681	1318.674	1088.036
-44.086	27.736	1316.583	1086.593
-43.071	27.645	1313.788	1083.706
-42.057	27.525	1312.258	1081.686
-41.042	27.664	1310.078	1080.669
-40.027	27.719	1308.308	1079.493
-39.013	27.710	1306.449	1077.862
-37.998	27.658	1304.996	1076.313
-36.984	27.814	1302.869	1075.437
-35.969	27.855	1301.224	1074.279
-34.954	27.693	1299.859	1072.154
-33.940	27.796	1298.765	1071.814
-32.925	27.862	1296.896	1070.616
-31.911	27.824	1295.573	1069.259
-30.896	27.872	1294.052	1068.246
-29.881	27.979	1292.493	1067.537
-28.867	27.933	1291.227	1066.181
-27.852	27.886	1290.273	1065.080
-26.838	27.919	1288.835	1064.044
-25.823	27.871	1287.097	1062.285
-24.809	27.958	1286.309	1062.099
-23.794	27.865	1284.824	1060.292
-22.779	27.897	1283.428	1059.282
-21.765	27.970	1282.171	1058.623
-20.750	27.837	1280.731	1056.627
-19.736	27.802	1279.675	1055.507
-18.721	27.713	1278.089	1053.645
-17.706	27.878	1276.850	1053.532
-16.692	27.821	1275.977	1052.441
-15.677	27.764	1275.044	1051.304
-14.663	27.811	1273.759	1050.471
-13.648	27.763	1272.268	1048.925
-12.633	27.805	1271.862	1048.789
-11.619	27.715	1271.057	1047.567
-10.604	27.776	1269.742	1046.794
-9.590	27.693	1268.760	1045.467
-8.575	27.745	1267.861	1044.984
-7.560	27.808	1266.781	1044.408
-6.546	27.730	1266.422	1043.627
-5.531	27.823	1264.962	1042.916
-4.517	27.823	1264.310	1042.336
-3.502	27.685	1264.221	1041.432
-2.487	27.731	1262.790	1040.474
-1.473	27.754	1258.731	1037.220
-0.458	26.744	1244.193	1019.522
0.556	22.485	1228.046	985.822
1.571	19.288	1235.047	973.333
2.586	18.542	1250.541	981.189
3.600	18.606	1239.208	972.572
4.615	16.903	1172.867	911.277
5.629	13.654	1104.739	841.797
6.644	11.739	1088.748	819.947
7.659	11.656	1085.839	817.269
8.673	11.655	1084.803	816.409
9.688	11.640	1083.586	815.350
10.702	11.840	1081.441	814.657
11.717	14.021	1084.125	827.478
12.731	17.046	1087.852	845.339
13.746	18.148	1088.377	851.160
14.761	17.682	1087.364	847.978
15.775	16.691	1085.052	841.175
16.790	15.539	1083.675	834.313
17.804	14.937	1081.447	829.540
18.819	14.438	1080.291	826.110
19.834	14.193	1079.094	823.905
20.848	13.966	1078.466	822.230
21.863	13.786	1077.424	820.475
22.877	13.520	1077.187	818.904
23.892	13.598	1075.995	818.309
24.907	13.632	1075.665	818.157
25.921	13.608	1074.259	816.896
26.936	13.742	1072.521	816.162
27.950	13.796	1071.232	815.375
28.965	13.810	1069.985	814.422
29.980	13.825	1067.879	812.819
30.994	13.772	1067.585	812.265
32.009	13.822	1066.160	811.355
33.023	13.783	1065.055	810.253
34.038	13.783	1063.817	809.237
35.053	13.749	1063.153	808.494
36.067	13.739	1062.493	807.870
37.082	13.732	1061.311	806.867
38.096	13.835	1060.794	806.906
39.111	13.731	1059.872	805.627
40.126	13.778	1058.697	804.890
41.140	13.628	1057.342	803.063
42.155	13.495	1056.177	801.465
43.169	13.542	1055.347	800.988
44.184	13.493	1054.152	799.773
45.199	13.715	1052.655	799.640
46.213	13.545	1052.097	798.324
47.228	13.549	1051.435	797.771
48.242	13.777	1049.781	797.542
49.257	13.642	1049.095	796.301
50.271	13.896	1047.995	796.614
51.286	13.721	1047.705	795.485
52.301	13.692	1046.439	794.312
53.315	13.617	1045.295	793.014
54.330	13.605	1044.264	792.105
55.344	13.643	1043.544	791.669
56.359	13.664	1042.499	790.911
57.374	13.573	1041.391	789.567
58.388	13.560	1040.507	788.765
59.403	13.550	1039.562	787.930
60.417	13.570	1038.800	787.377
61.432	13.450	1038.552	786.547
62.447	13.488	1037.539	785.893
63.461	13.542	1036.924	785.615
64.476	13.470	1035.495	784.121
65.490	13.539	1035.047	784.038
66.505	13.532	1034.443	783.480
67.520	13.497	1034.002	782.911
68.534	13.489	1033.110	782.126
69.549	13.592	1032.079	781.765
70.563	13.436	1031.182	780.278
71.578	13.354	1030.643	779.417
72.593	13.303	1029.844	778.505
73.607	13.325	1029.330	778.147
74.622	13.488	1028.083	777.902
75.636	13.528	1027.583	777.642
76.651	13.430	1026.820	776.540
77.666	13.457	1026.391	776.270
78.680	13.439	1025.537	775.471
79.695	13.467	1025.266	775.330
80.709	13.527	1024.888	775.256
81.724	13.457	1023.807	774.042
82.739	13.693	1023.079	774.527
83.753	13.689	1022.593	774.071
84.768	13.736	1021.716	773.557
85.782	13.687	1020.747	772.530
86.797	13.772	1019.602	771.989
87.812	13.668	1018.761	770.798
88.826	13.736	1017.263	769.916
89.841	13.645	1016.954	769.192
90.855	13.726	1015.520	768.411
91.870	13.802	1014.785	768.142
92.884	13.769	1014.352	767.594
93.899	13.958	1013.024	767.391
94.914	13.958	1012.222	766.719
95.928	13.819	1011.613	765.548
96.943	13.828	1010.741	764.860
97.957	13.714	1010.211	763.865
98.972	13.861	1008.757	763.374
99.987	13.849	1007.895	762.603
101.001	13.730	1007.288	761.527
102.016	13.698	1006.501	760.720
103.030	13.865	1005.573	760.717
104.045	13.827	1004.858	759.934
105.060	13.805	1003.799	758.966
106.074	13.655	1002.907	757.535
107.089	13.626	1002.053	756.693
108.103	13.650	1000.896	755.859
109.118	13.624	1000.192	755.146
110.133	13.577	999.095	754.035
111.147	13.528	998.605	753.378
112.162	13.727	997.207	753.160
113.176	13.671	996.666	752.427
114.191	13.760	995.745	752.073
115.206	13.780	994.779	751.366
116.220	13.587	994.195	749.985
117.235	13.657	993.227	749.506
118.249	13.597	992.901	748.921
119.264	13.627	991.832	748.184
120.279	13.650	990.926	747.538
121.293	13.718	989.898	747.002
122.308	13.515	989.097	745.417
123.322	13.638	987.784	744.915
124.337	13.468	987.645	743.982
125.352	13.536	986.458	743.324
126.366	13.488	985.215	742.107
127.381	13.615	984.196	741.846
128.395	13.637	983.276	741.184
129.410	13.678	982.345	740.601
130.424	13.675	981.692	740.028
131.439	13.615	980.798	739.020
132.454	13.699	980.124	738.821
133.468	13.827	979.221	738.646
134.483	13.775	978.266	737.629
135.497	13.642	977.605	736.474
136.512	13.638	976.382	735.471
137.527	13.777	975.702	735.508
138.541	13.839	974.681	734.947
139.556	13.821	974.329	734.539
140.570	13.850	973.251	733.791
141.585	13.874	972.821	733.504
142.600	13.908	971.759	732.791
143.614	13.936	971.162	732.400
144.629	14.087	970.348	732.385
145.643	13.951	969.218	730.867
146.658	13.918	968.192	729.886
147.673	13.840	967.298	728.804
148.687	13.786	966.743	728.085
149.702	13.913	965.326	727.508
150.716	13.757	964.996	726.514
151.731	13.840	964.074	726.118
152.746	13.807	963.494	725.472
153.760	13.871	962.796	725.163
154.775	13.862	962.209	724.615
155.789	13.918	961.837	724.518
156.804	13.959	961.018	724.017
157.819	13.987	960.234	723.480
158.833	14.094	959.799	723.555
159.848	14.067	958.930	722.721
160.862	14.030	958.126	721.888
161.877	13.872	957.189	720.433
162.892	13.785	956.293	719.319
163.906	13.955	954.978	719.000
164.921	13.988	953.938	718.297
165.935	13.958	953.018	717.412
166.950	13.914	952.507	716.773
167.964	14.045	951.621	716.607
168.979	13.987	951.032	715.853
169.994	13.960	949.868	714.796
171.008	13.966	949.579	714.542
172.023	14.073	948.672	714.253
173.037	14.105	947.510	713.456
174.052	14.101	947.292	713.209
175.067	13.944	946.809	712.112
176.081	13.957	945.884	711.406
177.096	14.092	945.342	711.515
178.110	14.011	944.818	710.709
179.125	14.039	944.388	710.446
180.140	14.124	943.412	710.008
181.154	14.167	943.346	710.081
182.169	14.078	942.771	709.204
183.183	14.257	942.319	709.566
184.198	14.363	941.003	708.963
185.213	14.234	940.512	707.983
186.227	14.206	939.954	707.379
187.242	14.388	939.318	707.613
188.256	14.393	938.550	706.991
189.271	14.258	937.730	705.740
190.286	14.162	936.589	704.413
191.300	14.004	935.774	703.067
192.315	14.064	935.301	702.903
193.329	14.027	935.189	702.603
194.344	14.120	934.264	702.237
195.359	14.150	933.782	701.937
196.373	14.215	933.016	701.574
197.388	14.322	932.665	701.698
198.402	14.448	931.904	701.596
199.417	14.402	931.403	700.962
200.432	14.643	930.580	701.293
201.446	14.558	930.329	700.687
202.461	14.598	930.091	700.614
203.475	14.423	929.610	699.453
204.490	14.545	928.607	699.149
205.504	14.397	927.752	697.823
206.519	14.548	926.859	697.722
207.534	14.440	926.374	696.844
208.548	14.476	925.839	696.529
209.563	14.412	925.370	695.848
210.577	14.465	924.593	695.423
211.592	14.556	924.032	695.320
212.607	14.734	922.632	694.947
213.621	14.637	921.982	693.989
214.636	14.599	921.381	693.321
215.650	14.738	920.766	693.371
216.665	14.761	919.666	692.576
217.680	14.829	919.153	692.410
218.694	14.798	919.005	692.112
219.709	14.805	917.991	691.314
220.723	14.818	917.138	690.664
221.738	14.849	916.664	690.374
222.753	14.668	916.037	689.093
223.767	14.746	915.962	689.299
224.782	14.842	914.933	688.858
225.796	14.912	914.557	688.801
226.811	14.832	913.986	687.982
227.826	14.743	912.969	686.790
228.840	14.867	912.149	686.621
229.855	14.903	911.257	686.036
230.869	14.789	910.451	684.903
231.884	14.906	909.598	684.679
232.899	14.842	908.956	683.874
233.913	14.674	908.933	683.111
234.928	14.775	907.855	682.651
235.942	14.844	907.269	682.432
236.957	14.938	906.334	682.053
237.972	14.730	905.983	680.880
238.986	14.723	905.526	680.449
240.001	14.888	904.800	680.513
241.015	14.850	904.342	679.953
242.030	14.936	903.647	679.719
243.045	14.882	903.177	679.087
244.059	14.878	902.849	678.764
245.074	14.969	901.903	678.363
246.088	15.007	901.446	678.114
247.103	15.035	900.846	677.714
248.117	15.036	900.188	677.162
249.132	15.238	899.766	677.602
250.147	15.340	898.694	677.149
251.161	15.361	898.196	676.795
252.176	15.306	897.476	675.972
253.190	15.253	896.795	675.189
254.205	15.159	896.595	674.598
255.220	15.455	895.653	675.021
256.234	15.353	894.977	674.040
257.249	15.326	894.512	673.522
258.263	15.357	893.743	673.007
259.278	15.488	892.653	672.654
260.293	15.468	891.984	672.012
261.307	15.556	891.562	671.985
262.322	15.404	891.425	671.215
263.336	15.521	890.585	670.989
264.351	15.583	889.434	670.310
265.366	15.721	888.787	670.314
266.380	15.629	888.321	669.536
267.395	15.426	887.798	668.273
268.409	15.443	886.994	667.680
269.424	15.653	885.843	667.585
270.439	15.545	885.116	666.551
271.453	15.507	884.593	665.945
272.468	15.557	884.434	665.968
273.482	15.547	883.361	665.059
274.497	15.581	883.116	664.950
275.512	15.382	882.831	663.892
276.526	15.456	882.248	663.685
277.541	15.627	881.258	663.557
278.555	15.662	881.286	663.657
279.570	15.756	880.113	663.088
280.585	15.819	879.137	662.540
281.599	15.717	878.646	661.710
282.614	15.854	877.845	661.588
283.628	15.697	877.317	660.515
284.643	15.790	877.163	660.706
285.657	15.906	875.555	659.892
286.672	15.601	875.994	658.965
287.687	15.803	874.870	658.853
288.701	15.867	874.201	658.543
289.716	15.957	873.667	658.434
290.730	15.876	873.301	657.783
291.745	15.817	873.009	657.274
292.760	15.917	872.152	656.960
293.774	16.095	871.178	656.863
294.789	15.874	870.986	655.800
295.803	15.928	870.168	655.334
296.818	15.858	869.510	654.510
297.833	16.027	868.780	654.558
298.847	16.042	868.116	654.059
299.862	16.030	867.627	653.585
300.876	16.058	866.745	652.974
301.891	16.129	866.487	652.996
302.906	16.034	866.155	652.321
303.920	16.215	865.510	652.477
304.935	16.250	864.542	651.825
305.949	16.184	864.207	651.260
306.964	16.045	863.552	650.171
307.979	16.297	862.848	650.555
308.993	16.357	862.225	650.258
310.008	16.209	861.857	649.353
311.022	16.024	861.838	648.570
312.037	16.161	860.557	648.073
313.052	16.208	860.092	647.847
314.066	16.016	859.364	646.507
315.081	16.150	858.889	646.605
316.095	16.108	858.534	646.119
317.110	16.110	857.858	645.561
318.125	16.120	857.388	645.189
319.139	16.216	856.476	644.811
320.154	16.150	856.682	644.658
321.168	16.128	856.322	644.248
322.183	16.087	855.561	643.460
323.197	16.257	854.697	643.401
324.212	16.308	853.910	642.945
325.227	16.320	853.732	642.802
326.241	16.190	853.023	641.717
327.256	16.223	852.645	641.500
328.270	16.147	851.954	640.634
329.285	16.317	851.245	640.690
330.300	16.222	850.661	639.832
331.314	16.184	850.360	639.407
332.329	16.394	849.678	639.634
333.343	16.387	848.923	638.983
334.358	16.323	848.880	638.651
335.373	16.365	848.308	638.324
336.387	16.468	847.953	638.386
337.402	16.522	847.813	638.429
338.416	16.556	847.471	638.244
339.431	16.576	847.016	637.921
340.446	16.743	846.394	638.024
341.460	16.580	846.232	637.232
342.475	16.751	845.940	637.598
343.489	16.603	845.556	636.696
344.504	16.554	845.174	636.167
345.519	16.677	844.481	636.053
346.533	16.809	843.873	636.035
347.548	16.820	842.813	635.219
348.562	16.696	842.738	634.642
349.577	16.731	841.750	633.973
350.592	16.683	841.199	633.321
351.606	16.657	840.892	632.940
352.621	16.593	840.110	632.055
353.635	16.708	839.363	631.865
354.650	16.498	839.693	631.275
355.665	16.592	838.999	631.047
356.679	16.874	837.739	631.095
357.694	16.871	837.138	630.573
358.708	16.813	836.803	630.049
359.723	16.824	836.086	629.494
360.738	16.809	835.587	629.008
361.752	16.937	834.915	628.922
362.767	17.050	834.082	628.658
363.781	16.987	833.793	628.149
364.796	17.109	833.175	628.079
365.810	16.974	832.877	627.300
366.825	16.984	832.781	627.210
367.840	17.068	832.160	626.998
368.854	17.102	831.078	626.252
369.869	17.137	830.834	626.140
370.883	17.092	830.490	625.662
371.898	17.093	830.562	625.663
372.913	17.122	829.783	625.128
373.927	17.112	829.403	624.750
374.942	17.139	829.168	624.616
375.956	17.197	828.476	624.255
376.971	17.326	828.045	624.346
377.986	17.266	827.759	623.855
379.000	17.266	826.818	623.091
380.015	17.403	826.393	623.219
381.029	17.345	826.011	622.664
382.044	17.331	825.333	622.044
383.059	17.266	825.008	621.508
384.073	17.220	824.314	620.763
385.088	17.309	823.618	620.507
386.102	17.232	822.976	619.689
387.117	17.193	822.275	618.965
388.132	17.164	822.023	618.614
389.146	17.271	821.213	618.339
390.161	17.414	821.111	618.728
391.175	17.391	820.839	618.385
392.190	17.287	820.021	617.335
393.205	17.332	819.240	616.855
394.219	17.334	818.864	616.524
395.234	17.370	818.771	616.531
396.248	17.180	818.591	615.652
397.263	17.226	817.878	615.230
398.278	17.386	817.259	615.287
399.292	17.337	817.117	614.949
400.307	17.314	816.505	614.349
401.321	17.311	816.294	614.126
402.336	17.380	815.646	613.834
403.350	17.485	815.165	613.795
404.365	17.559	814.671	613.635
405.380	17.692	814.004	613.559
406.394	17.599	813.699	612.941
407.409	17.528	813.625	612.572
408.423	17.577	813.316	612.462
409.438	17.897	812.616	613.030
410.453	17.651	812.056	611.673
411.467	17.623	811.918	611.413
412.482	17.669	811.326	611.077
413.496	17.901	811.128	611.705
414.511	17.770	810.450	610.673
415.526	17.839	810.334	610.777
416.540	17.806	809.692	610.121
417.555	17.738	809.314	609.541
418.569	17.882	808.612	609.471
419.584	17.971	808.223	609.442
420.599	17.870	807.706	608.636
421.613	111.457	1293.851	1476.190
422.628	96.239	1364.671	1476.264
