DTS Sentinel unit serial number:	SN413079Multiplexer serial number:	ORYXHardware model number:	OX4-SRSoftware version number:	ORYX F/W v4.00 Oryx Data Collector v3.7.2.0data status	okinstallation	princeton_trtdifferential loss correction	single-endedforward channel	channel 1reverse channel	N/Adate	2019/09/14time	07:34:35forward acquisition time	60.00reverse acquisition time	0.00gamma	496.2192k internal	0.2336k external	0.2336temperature offset calibration	1.0076default loss term (dB/km)	0.3790temperature slope calibration	1.0000multiplexer offset coefficient	1.0000multiplexer slope coefficient	1.0000fibre end	0.00T internal ref (°C)	26.25T ext. ref 1 (°C)	3.47T ext. ref 2 (°C)	21.35length (m)	temperature (°C)	Stokes	anti-Stokes-747.200	-19.334	-0.237	0.148
-746.185	-72.754	-0.484	0.179
-745.171	33.183	0.190	0.166
-744.156	800.000	-0.073	0.261
-743.142	433.802	-0.122	0.265
-742.127	-200.000	-0.005	0.446
-741.112	-156.429	-0.090	0.006
-740.098	-200.000	-0.008	0.207
-739.083	-200.000	-0.305	-0.001
-738.069	-100.225	-0.469	-0.117
-737.054	237.823	-0.095	0.159
-736.039	-200.000	0.010	0.052
-735.025	800.000	0.079	-0.260
-734.010	75.625	-0.286	-0.303
-732.996	800.000	0.079	-0.318
-731.981	800.000	0.066	-0.262
-730.966	-46.354	-0.365	0.180
-729.952	281.576	-0.038	-0.068
-728.937	800.000	0.064	0.188
-727.923	-29.549	-0.279	0.160
-726.908	-115.681	-0.419	0.079
-725.894	-200.000	0.023	-0.126
-724.879	274.412	0.083	-0.147
-723.864	-20.055	0.309	0.191
-722.850	-200.000	-0.012	-0.175
-721.835	-34.585	0.138	-0.076
-720.821	243.092	-0.072	0.120
-719.806	-8.165	-0.252	-0.170
-718.791	-96.451	0.110	-0.029
-717.777	-139.734	-0.126	0.013
-716.762	-36.740	-0.277	-0.149
-715.748	355.862	-0.019	0.037
-714.733	-146.076	0.221	-0.020
-713.718	-200.000	-0.011	-0.265
-712.704	-87.716	-0.268	-0.081
-711.689	446.559	0.063	0.140
-710.675	-200.000	-0.001	0.227
-709.660	-75.696	0.196	-0.070
-708.645	-200.000	-0.016	0.113
-707.631	-3.462	0.153	-0.107
-706.616	-167.691	0.205	0.008
-705.602	585.072	0.093	0.230
-704.587	252.989	-0.094	0.161
-703.572	-200.000	0.015	-0.097
-702.558	88.183	-0.159	-0.177
-701.543	-200.000	-0.038	-0.353
-700.529	800.000	0.041	0.138
-699.514	-112.333	-0.090	-0.018
-698.499	-47.795	-0.096	0.047
-697.485	66.227	-0.149	-0.152
-696.470	800.000	0.056	0.186
-695.456	-200.000	0.408	-0.001
-694.441	198.904	-0.130	-0.200
-693.426	103.550	-0.078	0.092
-692.412	-200.000	0.050	-0.259
-691.397	260.794	-0.086	-0.149
-690.383	-156.232	-0.200	-0.013
-689.368	-200.000	-0.014	-0.083
-688.354	278.770	-0.211	-0.377
-687.339	249.914	0.152	-0.259
-686.324	-13.743	-0.110	0.071
-685.310	-50.959	-0.160	-0.075
-684.295	-48.617	-0.089	-0.043
-683.281	724.578	-0.034	-0.090
-682.266	127.784	0.055	0.070
-681.251	92.984	-0.097	0.110
-680.237	-200.000	0.021	-0.258
-679.222	-47.013	-0.218	0.107
-678.208	79.601	-0.198	-0.212
-677.193	-185.275	-0.093	0.001
-676.178	-21.781	-0.318	-0.194
-675.164	311.616	0.170	-0.319
-674.149	-22.679	-0.054	0.033
-673.135	-24.256	-0.391	0.233
-672.120	-61.707	-0.135	-0.057
-671.105	35.420	0.025	0.022
-670.091	-104.402	-0.399	-0.092
-669.076	275.085	0.141	-0.250
-668.062	88.503	0.167	-0.186
-667.047	234.914	-0.178	0.294
-666.032	-42.723	0.422	0.215
-665.018	478.168	-0.134	-0.304
-664.003	-98.995	-0.049	-0.012
-662.989	-200.000	-0.027	0.302
-661.974	800.000	-0.072	0.226
-660.959	800.000	0.043	0.174
-659.945	800.000	-0.046	-0.197
-658.930	94.292	0.152	-0.173
-657.916	-17.877	0.081	-0.051
-656.901	-47.831	-0.194	-0.094
-655.886	209.326	-0.102	0.159
-654.872	666.753	0.058	-0.150
-653.857	-200.000	-0.007	0.115
-652.843	7.915	0.060	0.045
-651.828	-200.000	0.016	0.121
-650.814	-54.137	-0.117	0.053
-649.799	-12.757	0.184	0.120
-648.784	800.000	-0.050	-0.171
-647.770	391.560	0.074	0.153
-646.755	-53.276	0.203	-0.093
-645.741	249.452	-0.069	0.117
-644.726	441.290	-0.086	-0.188
-643.711	800.000	-0.046	-0.163
-642.697	55.311	0.186	0.180
-641.682	-53.414	0.100	-0.046
-640.668	2.854	0.068	-0.049
-639.653	-200.000	-0.016	-0.160
-638.638	-200.000	0.013	0.258
-637.624	220.356	0.103	-0.165
-636.609	-163.297	-0.023	-0.001
-635.595	77.264	-0.177	0.189
-634.580	800.000	-0.096	-0.367
-633.565	-37.313	0.239	-0.128
-632.551	29.940	0.107	-0.092
-631.536	-200.000	0.026	-0.115
-630.522	-74.749	-0.271	0.097
-629.507	55.000	0.123	-0.118
-628.492	-200.000	-0.017	-0.252
-627.478	122.089	-0.239	-0.299
-626.463	-10.961	0.058	0.039
-625.449	-200.000	-0.046	-0.296
-624.434	-200.000	0.014	-0.102
-623.419	4.743	-0.072	0.053
-622.405	-2.583	-0.243	0.170
-621.390	37.218	0.071	0.063
-620.376	-19.423	0.105	-0.065
-619.361	-200.000	0.027	-0.218
-618.346	-60.125	-0.110	-0.047
-617.332	-73.498	0.215	0.078
-616.317	800.000	-0.079	-0.342
-615.303	255.245	-0.095	0.162
-614.288	797.888	-0.145	0.399
-613.273	331.754	0.102	-0.197
-612.259	-200.000	0.058	-0.417
-611.244	207.175	-0.147	0.229
-610.230	339.240	-0.165	0.320
-609.215	80.406	-0.137	-0.147
-608.201	-200.000	-0.008	-0.375
-607.186	585.676	-0.068	-0.167
-606.171	-132.602	-0.186	0.024
-605.157	-83.409	-0.078	-0.025
-604.142	-200.000	-0.014	0.341
-603.128	-134.602	-0.406	0.049
-602.113	-1.897	0.053	0.037
-601.098	147.734	0.215	0.289
-600.084	107.900	0.105	0.125
-599.069	224.890	0.146	-0.236
-598.055	-69.196	0.196	0.075
-597.040	-80.358	-0.274	-0.091
-596.025	-68.517	-0.144	0.056
-595.011	-60.325	0.219	0.093
-593.996	-17.512	0.316	0.198
-592.982	800.000	0.032	0.128
-591.967	238.649	0.164	0.272
-590.952	-125.452	-0.315	-0.048
-589.938	15.487	0.229	-0.179
-588.923	136.843	-0.236	0.308
-587.909	-200.000	0.028	-0.306
-586.894	800.000	-0.042	0.124
-585.879	183.360	-0.146	-0.215
-584.865	239.572	0.032	0.053
-583.850	61.355	0.307	0.304
-582.836	-91.630	0.018	-0.005
-581.821	-200.000	-0.033	-0.426
-580.806	-111.312	-0.114	-0.023
-579.792	-145.316	-0.098	-0.009
-578.777	-86.201	-0.052	-0.016
-577.763	-108.328	-0.277	-0.060
-576.748	-200.000	0.008	-0.111
-575.733	-64.992	-0.257	-0.103
-574.719	800.000	-0.133	0.518
-573.704	-140.974	-0.227	-0.023
-572.690	122.218	-0.231	-0.288
-571.675	-85.924	-0.366	-0.113
-570.661	0.962	0.144	-0.103
-569.646	-89.135	-0.198	0.058
-568.631	343.909	-0.062	-0.120
-567.617	185.930	-0.124	0.184
-566.602	587.504	0.110	-0.270
-565.588	62.024	-0.223	0.222
-564.573	800.000	-0.031	0.091
-563.558	-200.000	-0.040	-0.181
-562.544	-200.000	-0.059	-0.374
-561.529	-29.222	-0.237	-0.136
-560.515	-100.569	-0.367	0.090
-559.500	-33.744	0.249	0.137
-558.485	-85.990	0.177	0.055
-557.471	173.939	-0.121	-0.175
-556.456	13.427	-0.047	-0.037
-555.442	17.941	0.046	-0.037
-554.427	-45.485	0.120	0.059
-553.412	800.000	-0.025	0.070
-552.398	5.576	0.318	0.234
-551.383	-180.453	0.168	-0.003
-550.369	-166.204	0.370	-0.016
-549.354	-46.218	0.262	0.128
-548.339	118.639	0.060	0.074
-547.325	341.185	-0.088	-0.172
-546.310	-200.000	-0.046	-0.440
-545.296	684.908	-0.067	-0.174
-544.281	-30.877	0.220	0.124
-543.266	-100.340	0.092	-0.023
-542.252	-65.985	0.194	0.077
-541.237	751.175	-0.114	0.308
-540.223	-22.526	-0.213	0.129
-539.208	-87.835	0.211	0.063
-538.193	426.908	0.091	-0.195
-537.179	-77.979	-0.215	0.074
-536.164	-200.000	-0.020	0.338
-535.150	-171.591	-0.129	0.004
-534.135	-123.667	0.287	0.045
-533.121	-46.996	0.316	0.154
-532.106	-104.396	-0.206	0.047
-531.091	-54.868	0.190	0.086
-530.077	-200.000	0.025	0.292
-529.062	-21.994	0.337	-0.204
-528.048	352.787	0.053	-0.105
-527.033	18.444	0.048	-0.038
-526.018	690.449	-0.036	-0.093
-525.004	-120.728	-0.234	-0.039
-523.989	224.641	-0.047	0.076
-522.975	392.417	-0.037	-0.076
-521.960	-200.000	0.000	0.135
-520.945	800.000	-0.051	0.156
-519.931	-98.863	-0.150	0.038
-518.916	21.524	-0.078	0.063
-517.902	-74.431	0.102	0.037
-516.887	-200.000	0.010	0.118
-515.872	549.067	0.123	-0.293
-514.858	-200.000	0.022	0.191
-513.843	-200.000	0.045	0.277
-512.829	-85.895	0.332	0.102
-511.814	487.313	-0.013	0.030
-510.799	-37.458	-0.304	-0.161
-509.785	-200.000	-0.048	-0.246
-508.770	-104.354	-0.095	-0.022
-507.756	-48.715	-0.340	-0.163
-506.741	65.149	0.222	0.223
-505.726	285.727	-0.042	0.076
-504.712	-23.136	0.088	0.053
-503.697	-10.772	0.168	0.111
-502.683	-18.804	0.194	-0.120
-501.668	144.718	0.133	-0.177
-500.653	605.821	-0.035	0.087
-499.639	-154.352	0.317	0.021
-498.624	-67.382	0.326	-0.127
-497.610	541.129	-0.087	0.207
-496.595	-45.041	0.190	0.094
-495.581	800.000	0.053	0.177
-494.566	-200.000	-0.006	0.264
-493.551	-200.000	-0.007	-0.090
-492.537	153.831	0.086	-0.117
-491.522	-164.838	0.143	-0.006
-490.508	-200.000	0.029	0.441
-489.493	387.245	-0.123	-0.253
-488.478	-117.711	0.173	-0.031
-487.464	-129.435	-0.096	-0.013
-486.449	92.327	-0.125	0.140
-485.435	-14.438	0.263	-0.168
-484.420	-200.000	-0.014	-0.064
-483.405	-200.000	-0.030	-0.248
-482.391	800.000	0.176	0.558
-481.376	-200.000	-0.038	-0.256
-480.362	-62.847	0.219	-0.090
-479.347	125.743	0.104	-0.131
-478.332	250.689	-0.037	0.062
-477.318	230.138	-0.053	-0.086
-476.303	-200.000	0.037	0.327
-475.289	379.052	0.080	0.163
-474.274	52.798	0.080	-0.076
-473.259	7.078	0.071	0.053
-472.245	-52.514	0.353	-0.162
-471.230	102.427	-0.209	0.243
-470.216	59.085	0.164	0.160
-469.201	-91.824	-0.416	-0.117
-468.186	-73.154	0.255	0.093
-467.172	2.178	0.077	-0.055
-466.157	171.088	0.070	0.099
-465.143	-8.930	0.215	0.143
-464.128	16.846	-0.157	0.123
-463.113	800.000	-0.027	-0.112
-462.099	29.730	-0.163	-0.138
-461.084	415.013	0.050	-0.105
-460.070	57.378	-0.175	0.170
-459.055	-83.188	-0.392	0.125
-458.040	-122.554	0.016	0.003
-457.026	157.343	0.117	0.161
-456.011	-150.411	0.135	0.010
-454.997	-200.000	-0.181	0.000
-453.982	-25.645	0.029	-0.017
-452.968	-82.187	-0.157	-0.051
-451.953	142.664	-0.096	-0.126
-450.938	391.068	0.094	0.195
-449.924	-33.892	0.204	-0.111
-448.909	20.800	-0.073	0.059
-447.895	-115.203	-0.240	-0.045
-446.880	-55.788	0.048	0.021
-445.865	-39.487	-0.207	-0.108
-444.851	259.797	-0.122	-0.209
-443.836	102.257	0.167	0.193
-442.822	-200.000	0.042	0.685
-441.807	-61.588	0.236	0.098
-440.792	-1.246	0.166	-0.116
-439.778	-200.000	0.018	-0.123
-438.763	-19.524	0.277	0.170
-437.749	-73.862	-0.376	0.136
-436.734	-93.348	-0.195	0.054
-435.719	299.453	0.071	-0.130
-434.705	605.953	-0.187	0.463
-433.690	-133.717	-0.139	0.017
-432.676	-42.983	-0.076	0.038
-431.661	189.526	-0.094	0.139
-430.646	-27.870	0.091	-0.052
-429.632	-125.128	0.360	0.055
-428.617	-200.000	0.008	0.155
-427.603	230.888	-0.139	-0.225
-426.588	81.655	0.187	0.201
-425.573	-179.964	-0.213	-0.005
-424.559	-118.242	0.290	0.051
-423.544	-97.534	-0.186	-0.048
-422.530	12.595	-0.145	0.111
-421.515	-200.000	0.041	0.194
-420.500	330.068	-0.252	0.482
-419.486	-154.049	-0.270	0.018
-418.471	-64.206	-0.101	-0.041
-417.457	212.530	-0.117	-0.182
-416.442	-53.998	0.331	-0.150
-415.428	800.000	0.038	0.130
-414.413	-92.360	-0.134	0.037
-413.398	-121.511	0.204	-0.034
-412.384	800.000	-0.041	0.129
-411.369	-157.468	0.355	-0.021
-410.355	706.288	-0.071	0.186
-409.340	800.000	-0.027	0.106
-408.325	-99.190	-0.076	0.019
-407.311	-107.675	-0.340	0.074
-406.296	86.858	0.253	-0.277
-405.282	-89.744	0.155	0.045
-404.267	-50.754	-0.309	0.144
-403.252	9.278	0.138	-0.104
-402.238	-23.408	-0.136	0.081
-401.223	-200.000	0.022	0.262
-400.209	-102.275	-0.410	-0.098
-399.194	427.682	0.109	0.233
-398.179	222.333	-0.065	-0.104
-397.165	800.000	0.053	-0.180
-396.150	-200.000	0.006	-0.163
-395.136	-167.214	-0.047	0.002
-394.121	-112.250	-0.105	-0.021
-393.106	-200.000	-0.015	0.406
-392.092	-43.891	0.333	0.166
-391.077	30.901	0.246	0.208
-390.063	-5.557	0.256	0.174
-389.048	-169.737	0.189	0.007
-388.033	-94.817	0.014	0.004
-387.019	-104.754	0.073	0.017
-386.004	32.982	0.132	-0.113
-384.990	115.897	-0.103	-0.125
-383.975	-200.000	0.009	-0.387
-382.960	-104.498	0.215	-0.049
-381.946	145.549	-0.144	-0.191
-380.931	485.700	-0.039	0.087
-379.917	-149.605	0.346	-0.027
-378.902	-2.202	-0.276	0.192
-377.888	-9.298	0.193	0.127
-376.873	34.938	-0.180	-0.156
-375.858	-200.000	0.031	-0.191
-374.844	128.444	0.153	-0.192
-373.829	-200.000	0.200	-0.000
-372.815	-52.199	-0.259	0.119
-371.800	91.034	0.227	-0.252
-370.785	-55.172	-0.132	-0.059
-369.771	152.285	-0.236	0.319
-368.756	-104.762	-0.259	0.059
-367.742	482.754	-0.166	-0.373
-366.727	-40.979	0.284	0.145
-365.712	-45.212	0.187	-0.092
-364.698	-140.662	-0.043	-0.004
-363.683	-25.401	-0.346	0.203
-362.669	-135.786	-0.235	-0.027
-361.654	376.906	-0.120	-0.243
-360.639	342.303	0.030	0.059
-359.625	800.000	0.023	-0.076
-358.610	-200.000	0.003	-0.154
-357.596	255.042	-0.154	-0.261
-356.581	714.235	0.071	0.187
-355.566	-86.871	0.684	0.207
-354.552	-200.000	-0.015	0.144
-353.537	800.000	0.040	-0.163
-352.523	-66.116	0.249	0.098
-351.508	800.000	-0.044	0.147
-350.493	640.413	-0.180	0.453
-349.479	-200.000	-0.023	0.194
-348.464	583.222	0.072	-0.174
-347.450	-26.109	0.029	0.017
-346.435	13.544	-0.047	-0.036
-345.420	-29.304	-0.212	-0.120
-344.406	-130.305	-0.309	-0.041
-343.391	-32.851	-0.181	0.100
-342.377	-69.692	-0.039	-0.015
-341.362	-45.824	0.181	0.089
-340.348	258.702	-0.035	0.060
-339.333	-66.463	-0.108	-0.042
-338.318	-200.000	-0.046	0.354
-337.304	61.688	-0.114	0.112
-336.289	-12.367	0.166	-0.107
-335.275	-200.000	0.016	0.150
-334.260	-94.044	0.105	0.029
-333.245	-53.456	0.036	-0.016
-332.231	124.583	0.151	-0.187
-331.216	-200.000	0.031	-0.177
-330.202	800.000	-0.142	0.460
-329.187	-14.447	0.082	-0.052
-328.172	158.969	0.199	-0.273
-327.158	42.650	0.231	0.208
-326.143	-188.896	-0.355	0.004
-325.129	-104.343	-0.292	-0.067
-324.114	436.507	-0.105	0.225
-323.099	-71.717	-0.259	-0.095
-322.085	-51.802	0.175	-0.081
-321.070	-153.011	-0.277	-0.019
-320.056	21.983	-0.249	-0.201
-319.041	161.314	0.205	-0.284
-318.026	85.985	0.130	0.142
-317.012	-132.914	-0.118	0.015
-315.997	-124.888	0.234	0.036
-314.983	5.187	0.148	-0.108
-313.968	92.519	0.180	-0.200
-312.953	-200.000	0.005	0.084
-311.939	-200.000	0.005	-0.273
-310.924	223.317	-0.205	-0.327
-309.910	60.911	0.152	-0.149
-308.895	4.797	0.086	-0.062
-307.880	-200.000	0.010	0.071
-306.866	14.417	0.027	-0.021
-305.851	-119.836	-0.116	0.020
-304.837	-36.465	0.203	0.108
-303.822	-145.378	-0.430	0.038
-302.807	136.196	-0.087	0.112
-301.793	-93.408	-0.128	-0.035
-300.778	-200.000	-0.026	0.292
-299.764	800.000	0.005	-0.015
-298.749	-200.000	-0.013	-0.193
-297.735	-200.000	0.026	-0.452
-296.720	-107.649	-0.272	0.059
-295.705	-72.311	0.238	0.087
-294.691	800.000	-0.037	0.133
-293.676	-148.864	-0.112	-0.009
-292.662	-200.000	-0.017	0.163
-291.647	-77.753	-0.253	-0.086
-290.632	197.243	0.120	-0.180
-289.618	-150.558	0.339	-0.026
-288.603	25.902	-0.283	0.232
-287.589	133.071	0.122	-0.156
-286.574	-8.103	-0.291	0.194
-285.559	64.482	-0.290	0.288
-284.545	-200.000	0.026	0.171
-283.530	-117.275	0.232	-0.042
-282.516	-155.377	-0.178	0.011
-281.501	129.961	0.101	-0.128
-280.486	-200.000	0.011	-0.254
-279.472	615.147	-0.142	-0.351
-278.457	281.303	0.118	-0.209
-277.443	741.264	-0.089	-0.236
-276.428	410.959	0.127	0.266
-275.413	-138.035	0.167	0.018
-274.399	-80.518	-0.168	-0.055
-273.384	800.000	0.107	-0.297
-272.370	-200.000	-0.021	-0.213
-271.355	428.956	0.096	-0.205
-270.340	-200.000	0.033	-0.272
-269.326	-200.000	0.021	-0.360
-268.311	11.383	0.183	-0.138
-267.297	297.730	-0.162	-0.293
-266.282	-50.087	0.031	0.015
-265.267	-102.340	-0.262	-0.062
-264.253	-167.642	0.171	-0.007
-263.238	239.639	0.230	0.377
-262.224	-90.781	-0.160	-0.045
-261.209	6.655	0.147	-0.108
-260.195	652.256	-0.174	-0.439
-259.180	38.430	0.141	-0.124
-258.165	-200.000	-0.001	0.054
-257.151	-200.000	-0.042	-0.223
-256.136	-200.000	0.048	-0.248
-255.122	-109.995	-0.224	0.046
-254.107	-16.286	0.207	0.129
-253.092	-52.290	0.069	-0.032
-252.078	81.682	0.055	0.058
-251.063	143.593	0.153	-0.200
-250.049	-68.110	-0.077	-0.029
-249.034	800.000	-0.017	-0.062
-248.019	-34.777	-0.211	0.113
-247.005	-64.523	-0.214	-0.086
-245.990	395.030	-0.085	-0.174
-244.976	-16.915	-0.319	-0.198
-243.961	96.391	0.263	0.296
-242.946	-9.601	0.140	-0.092
-241.932	145.194	0.084	0.111
-240.917	229.556	0.045	0.072
-239.903	-200.000	-0.006	0.075
-238.888	-19.521	-0.291	0.178
-237.873	-200.000	0.020	0.088
-236.859	-58.813	0.226	-0.096
-235.844	283.742	0.092	-0.163
-234.830	24.004	-0.059	-0.048
-233.815	285.057	-0.081	0.143
-232.800	-50.584	0.212	0.098
-231.786	128.931	-0.026	-0.033
-230.771	698.995	-0.065	0.169
-229.757	800.000	0.111	-0.312
-228.742	55.367	-0.161	0.153
-227.727	800.000	0.015	0.055
-226.713	-200.000	-0.124	-0.536
-225.698	93.273	0.031	0.034
-224.684	-7.851	0.239	0.159
-223.669	705.861	-0.039	-0.100
-222.655	-30.076	0.073	0.041
-221.640	29.197	-0.235	0.197
-220.625	-200.000	-0.031	-0.156
-219.611	80.171	-0.407	0.430
-218.596	-200.000	-0.048	0.219
-217.582	-200.000	-0.033	-0.388
-216.567	-200.000	-0.019	-0.383
-215.552	-200.000	0.006	0.208
-214.538	-200.000	-0.026	-0.144
-213.523	-105.394	-0.176	-0.039
-212.509	800.000	0.070	0.258
-211.494	8.099	0.289	0.213
-210.479	-75.493	0.286	0.100
-209.465	-115.151	-0.198	-0.037
-208.450	341.801	-0.060	0.116
-207.436	-153.717	0.197	0.013
-206.421	-146.993	-0.240	-0.020
-205.406	620.160	-0.066	0.163
-204.392	753.391	0.043	-0.114
-203.377	-179.104	0.053	0.001
-202.363	28.381	-0.095	-0.079
-201.348	-51.750	0.249	-0.114
-200.333	-178.690	-0.064	0.001
-199.319	800.000	-0.048	0.160
-198.304	-200.000	-0.004	0.183
-197.290	-74.164	0.194	0.069
-196.275	217.921	0.165	-0.258
-195.260	-120.642	-0.203	-0.034
-194.246	800.000	-0.018	0.053
-193.231	-52.047	0.179	-0.082
-192.217	-127.413	-0.164	0.023
-191.202	-200.000	-0.006	0.253
-190.187	223.425	-0.206	0.326
-189.173	-17.871	-0.264	0.163
-188.158	-24.769	-0.155	0.091
-187.144	-200.000	0.034	0.172
-186.129	169.354	-0.138	-0.193
-185.114	101.080	-0.142	0.162
-184.100	-118.469	0.230	-0.040
-183.085	234.015	0.133	-0.215
-182.071	-140.121	-0.041	0.004
-181.056	-200.000	0.044	0.343
-180.042	-54.881	-0.125	0.056
-179.027	124.467	-0.230	-0.285
-178.012	-200.000	0.249	0.001
-176.998	-200.000	0.008	-0.112
-175.983	-24.764	0.272	-0.159
-174.969	-200.000	-0.021	-0.350
-173.954	-143.796	-0.191	-0.018
-172.939	-47.871	0.220	0.105
-171.925	-200.000	0.055	-0.299
-170.910	-200.000	0.009	-0.043
-169.896	-200.000	0.051	-0.340
-168.881	-123.189	0.354	-0.056
-167.866	157.761	-0.148	0.202
-166.852	-166.068	0.267	-0.011
-165.837	-200.000	-0.009	-0.104
-164.823	-200.000	0.061	-0.354
-163.808	-115.908	-0.153	0.028
-162.793	75.846	0.077	-0.080
-161.779	-37.583	0.195	-0.102
-160.764	221.722	0.218	0.344
-159.750	88.048	-0.179	0.195
-158.735	-200.000	0.004	-0.306
-157.720	-137.371	0.293	0.033
-156.706	43.754	-0.125	0.112
-155.691	58.660	-0.237	0.228
-154.677	-125.559	-0.164	0.024
-153.662	176.591	0.161	0.230
-152.647	-60.932	0.351	-0.145
-151.633	-161.368	-0.262	0.013
-150.618	312.753	0.140	-0.258
-149.604	-75.357	-0.329	0.115
-148.589	8.445	0.274	0.203
-147.574	1.677	-0.231	-0.163
-146.560	-103.403	0.139	0.032
-145.545	-104.234	0.090	-0.021
-144.531	17.114	0.235	0.183
-143.516	800.000	-0.110	0.305
-142.502	230.250	0.094	-0.151
-141.487	6.667	0.152	-0.111
-140.472	-118.655	-0.402	-0.070
-139.458	-75.760	0.087	-0.030
-138.443	800.000	-0.063	-0.223
-137.429	-36.323	-0.254	-0.134
-136.414	16.440	-0.150	-0.116
-135.399	3.386	0.267	-0.191
-134.385	73.621	-0.086	-0.089
-133.370	543.550	-0.087	-0.204
-132.356	-200.000	-0.066	0.349
-131.341	76.227	-0.038	-0.040
-130.326	-113.404	-0.126	-0.024
-129.312	-101.415	0.202	0.048
-128.297	-144.330	-0.584	-0.053
-127.283	58.063	0.152	0.145
-126.268	-200.000	-0.026	0.143
-125.253	106.428	-0.251	-0.292
-124.239	7.814	0.124	0.091
-123.224	9.208	-0.160	-0.119
-122.210	800.000	-0.098	-0.317
-121.195	69.099	0.261	-0.263
-120.180	544.438	0.147	0.344
-119.166	800.000	0.031	0.124
-118.151	800.000	0.086	0.330
-117.137	-150.700	0.217	-0.016
-116.122	-200.000	0.038	0.216
-115.107	504.791	-0.143	0.324
-114.093	-173.120	0.193	-0.006
-113.078	67.429	-0.203	-0.203
-112.064	-106.208	-0.412	-0.091
-111.049	126.517	0.224	0.278
-110.034	-16.283	-0.122	-0.076
-109.020	-98.753	-0.374	0.093
-108.005	800.000	0.144	0.448
-106.991	33.894	0.168	0.143
-105.976	276.420	-0.025	0.043
-104.962	239.134	-0.219	-0.357
-103.947	83.218	-0.190	-0.203
-102.932	-200.000	-0.013	0.126
-101.918	-12.842	0.240	0.153
-100.903	800.000	0.090	0.358
-99.889	136.322	-0.030	-0.038
-98.874	-89.390	-0.157	0.045
-97.859	-75.283	-0.240	-0.084
-96.845	-200.000	0.013	0.169
-95.830	454.359	-0.039	-0.085
-94.816	-59.291	0.398	0.168
-93.801	-61.740	0.172	0.070
-92.786	800.000	-0.034	0.101
-91.772	-56.696	-0.045	-0.019
-90.757	-114.889	0.198	0.037
-89.743	-54.946	0.143	0.063
-88.728	24.952	-0.274	-0.223
-87.713	0.084	0.294	-0.205
-86.699	-21.089	-0.071	-0.042
-85.684	30.607	-0.148	0.124
-84.670	66.952	-0.265	0.264
-83.655	-56.717	0.143	-0.062
-82.640	-200.000	-0.019	0.092
-81.626	-177.936	-0.172	-0.004
-80.611	-100.515	0.194	0.047
-79.597	16.032	0.198	-0.152
-78.582	159.616	0.211	-0.288
-77.567	-200.000	-0.037	0.215
-76.553	15.567	-0.094	-0.072
-75.538	-200.000	0.045	-0.346
-74.524	-200.000	0.040	-0.183
-73.509	155.676	-0.096	0.129
-72.494	6.958	0.102	-0.074
-71.480	-106.874	-0.105	0.023
-70.465	-129.328	-0.037	-0.005
-69.451	478.533	-0.147	0.325
-68.436	735.262	-0.185	0.485
-67.422	-200.000	-0.011	-0.331
-66.407	-102.255	0.213	0.050
-65.392	-200.000	0.012	-0.199
-64.378	-200.000	0.029	-0.137
-63.363	-47.762	0.193	0.092
-62.349	3.804	-0.410	0.293
-61.334	17.147	-1.146	-0.889
-60.319	-48.859	0.683	0.320
-59.305	800.000	-0.424	-1.317
-58.290	800.000	0.548	1.649
-57.276	261.605	0.913	1.547
-56.261	-200.000	117.575	643.131
-55.246	488.422	1551.746	3463.905
-54.232	173.856	2722.583	3842.162
-53.217	105.577	2159.957	2495.193
-52.203	37.952	1590.990	1382.355
-51.188	29.515	1332.113	1107.048
-50.173	26.829	1293.428	1059.190
-49.159	53.114	1352.487	1265.390
-48.144	51.251	1365.173	1266.103
-47.130	29.714	1319.515	1097.583
-46.115	26.372	1301.441	1062.896
-45.100	26.182	1296.579	1057.773
-44.086	26.049	1293.677	1054.587
-43.071	26.020	1291.644	1052.719
-42.057	26.076	1289.366	1051.144
-41.042	26.095	1287.780	1049.921
-40.027	26.122	1286.180	1048.733
-39.013	26.211	1284.119	1047.523
-37.998	26.025	1282.832	1045.355
-36.984	26.216	1280.667	1044.658
-35.969	26.228	1278.948	1043.281
-34.954	26.346	1276.824	1042.189
-33.940	26.244	1275.843	1040.758
-32.925	26.205	1274.202	1039.156
-31.911	26.298	1272.680	1038.407
-30.896	26.382	1271.290	1037.712
-29.881	26.342	1269.756	1036.190
-28.867	26.368	1268.627	1035.373
-27.852	26.346	1267.769	1034.509
-26.838	26.397	1265.715	1033.086
-25.823	26.232	1264.922	1031.455
-24.809	26.266	1263.314	1030.292
-23.794	26.316	1261.779	1029.286
-22.779	26.345	1260.628	1028.471
-21.765	26.423	1259.237	1027.738
-20.750	26.345	1258.330	1026.518
-19.736	26.258	1256.769	1024.710
-18.721	26.192	1256.100	1023.746
-17.706	26.219	1254.519	1022.571
-16.692	26.209	1253.802	1021.891
-15.677	26.222	1252.355	1020.746
-14.663	26.316	1251.229	1020.316
-13.648	26.158	1250.040	1018.415
-12.633	26.196	1249.219	1017.918
-11.619	26.181	1248.495	1017.203
-10.604	26.190	1247.466	1016.376
-9.590	26.139	1246.572	1015.319
-8.575	26.223	1245.206	1014.641
-7.560	26.199	1244.945	1014.254
-6.546	26.265	1243.714	1013.577
-5.531	26.232	1242.979	1012.757
-4.517	26.289	1241.672	1011.967
-3.502	26.247	1241.160	1011.278
-2.487	26.286	1240.109	1010.596
-1.473	26.201	1236.310	1006.987
-0.458	24.784	1221.812	987.324
0.556	21.713	1205.192	951.364
1.571	18.088	1212.014	936.836
2.586	17.513	1226.284	944.591
3.600	17.077	1214.638	933.143
4.615	12.800	1143.011	855.867
5.629	6.194	1072.672	770.834
6.644	3.542	1055.057	745.310
7.659	3.420	1053.062	743.248
8.673	3.393	1052.407	742.591
9.688	3.546	1050.591	741.978
10.702	3.667	1048.618	741.102
11.717	7.335	1053.831	762.383
12.731	14.428	1063.550	803.661
13.746	18.730	1068.770	828.335
14.761	19.297	1069.626	831.660
15.775	18.654	1067.935	827.172
16.790	17.753	1065.526	820.899
17.804	17.050	1064.117	816.360
18.819	16.676	1063.201	813.787
19.834	16.444	1062.348	811.951
20.848	16.274	1061.654	810.529
21.863	16.155	1060.464	808.981
22.877	16.131	1059.734	808.235
23.892	15.972	1059.479	807.209
24.907	16.004	1058.320	806.409
25.921	16.002	1057.306	805.554
26.936	15.980	1056.402	804.687
27.950	15.883	1055.432	803.417
28.965	16.193	1053.571	803.404
29.980	16.198	1051.795	802.005
30.994	16.301	1050.806	801.668
32.009	16.286	1049.692	800.677
33.023	16.163	1048.763	799.312
34.038	16.229	1047.648	798.705
35.053	16.163	1046.866	797.727
36.067	16.007	1046.167	796.384
37.082	16.062	1045.777	796.277
38.096	16.155	1044.580	795.734
39.111	16.223	1043.739	795.344
40.126	16.056	1042.403	793.468
41.140	15.972	1041.056	791.980
42.155	15.864	1039.917	790.537
43.169	15.826	1038.505	789.214
44.184	15.792	1037.857	788.493
45.199	15.719	1036.797	787.276
46.213	15.915	1035.710	787.300
47.228	16.047	1034.839	787.182
48.242	16.033	1034.047	786.444
49.257	15.964	1033.075	785.314
50.271	16.170	1032.049	785.424
51.286	16.061	1031.497	784.430
52.301	16.048	1030.387	783.455
53.315	16.079	1029.123	782.569
54.330	16.013	1027.718	781.121
55.344	15.904	1027.103	780.082
56.359	15.792	1026.423	778.980
57.374	15.919	1025.831	779.048
58.388	15.782	1025.011	777.723
59.403	15.753	1023.946	776.711
60.417	15.775	1023.282	776.243
61.432	15.756	1023.033	775.896
62.447	15.772	1021.433	774.687
63.461	15.622	1020.560	773.264
64.476	15.586	1020.135	772.708
65.490	15.692	1019.119	772.360
66.505	15.809	1018.309	772.216
67.520	15.745	1017.704	771.392
68.534	15.725	1016.982	770.688
69.549	15.815	1016.384	770.576
70.563	15.665	1015.473	769.130
71.578	15.691	1014.543	768.478
72.593	15.544	1014.086	767.392
73.607	15.573	1013.402	766.937
74.622	15.530	1013.141	766.478
75.636	15.591	1012.262	766.021
76.651	15.551	1011.821	765.441
77.666	15.681	1010.577	765.022
78.680	15.701	1009.737	764.410
79.695	15.694	1009.137	763.856
80.709	15.664	1009.078	763.606
81.724	15.819	1008.204	763.580
82.739	15.940	1007.851	763.796
83.753	16.080	1006.474	763.320
84.768	16.243	1005.671	763.380
85.782	16.160	1005.228	762.602
86.797	16.059	1004.445	761.483
87.812	16.084	1002.910	760.362
88.826	16.111	1001.911	759.661
89.841	16.301	1000.783	759.594
90.855	16.290	1000.028	758.904
91.870	16.193	999.421	757.941
92.884	16.190	998.492	757.155
93.899	16.198	997.757	756.566
94.914	16.375	996.757	756.536
95.928	16.231	996.027	755.268
96.943	16.199	995.211	754.440
97.957	16.175	994.024	753.369
98.972	16.126	993.512	752.695
99.987	16.256	992.513	752.451
101.001	16.312	991.173	751.614
102.016	16.244	990.554	750.778
103.030	16.316	990.097	750.685
104.045	16.221	989.336	749.621
105.060	16.138	988.179	748.307
106.074	15.921	987.352	746.656
107.089	15.790	986.492	745.356
108.103	15.838	985.498	744.752
109.118	15.749	984.588	743.606
110.133	15.829	983.856	743.341
111.147	15.899	982.510	742.567
112.162	15.867	982.104	742.055
113.176	15.903	981.490	741.684
114.191	15.892	980.627	740.917
115.206	15.976	980.142	740.854
116.220	15.865	979.434	739.767
117.235	16.037	977.529	739.015
118.249	15.880	977.247	738.047
119.264	15.844	976.394	737.183
120.279	15.808	975.639	736.389
121.293	15.846	974.644	735.738
122.308	15.882	973.726	735.137
123.322	15.737	973.064	733.941
124.337	15.692	971.905	732.806
125.352	15.661	970.935	731.871
126.366	15.697	969.612	730.968
127.381	15.689	968.546	730.063
128.395	15.747	967.817	729.702
129.410	15.857	966.746	729.305
130.424	15.645	966.620	728.229
131.439	16.042	965.519	729.054
132.454	15.858	965.014	727.811
133.468	15.914	964.026	727.244
134.483	15.939	963.311	726.747
135.497	16.035	962.181	726.246
136.512	15.949	961.349	725.180
137.527	15.940	960.632	724.539
138.541	15.915	960.112	723.973
139.556	16.007	959.357	723.738
140.570	16.078	959.263	723.905
141.585	16.188	957.825	723.230
142.600	16.226	956.746	722.514
143.614	16.333	956.585	722.787
144.629	16.455	955.562	722.468
145.643	16.253	954.782	720.953
146.658	16.140	953.686	719.582
147.673	16.162	952.859	718.986
148.687	16.058	951.839	717.710
149.702	16.095	951.151	717.284
150.716	16.120	949.815	716.321
151.731	16.020	949.836	715.849
152.746	16.086	948.825	715.303
153.760	16.090	948.376	714.917
154.775	16.128	947.916	714.670
155.789	16.248	946.848	714.307
156.804	16.269	945.930	713.642
157.819	16.337	945.592	713.609
158.833	16.369	945.362	713.508
159.848	16.426	944.266	712.860
160.862	16.400	943.250	711.920
161.877	16.256	941.821	710.172
162.892	16.036	941.265	708.767
163.906	16.035	940.405	708.049
164.921	16.021	939.550	707.284
165.935	16.201	938.228	706.984
166.950	16.275	937.430	706.628
167.964	16.274	936.878	706.145
168.979	16.033	936.081	704.474
169.994	16.188	934.981	704.234
171.008	16.315	934.256	704.152
172.023	16.470	933.566	704.215
173.037	16.567	933.226	704.300
174.052	16.353	932.497	702.798
175.067	16.210	932.129	701.862
176.081	16.153	931.092	700.786
177.096	16.206	930.383	700.407
178.110	16.318	929.704	700.299
179.125	16.197	929.241	699.389
180.140	16.272	929.139	699.559
181.154	16.314	928.929	699.514
182.169	16.503	927.796	699.382
183.183	16.396	927.684	698.792
184.198	16.596	926.556	698.705
185.213	16.586	925.762	698.006
186.227	16.562	925.235	697.447
187.242	16.584	924.863	697.195
188.256	16.805	924.038	697.423
189.271	16.589	923.414	696.002
190.286	16.270	922.734	694.117
191.300	16.059	921.562	692.307
192.315	16.032	920.590	691.404
193.329	16.051	920.321	691.218
194.344	16.201	920.063	691.577
195.359	16.400	919.231	691.705
196.373	16.438	918.473	691.232
197.388	16.650	918.296	691.900
198.402	16.766	917.917	692.030
199.417	16.666	917.413	691.179
200.432	16.794	916.939	691.283
201.446	16.786	916.247	690.669
202.461	16.997	915.510	690.912
203.475	16.916	914.760	689.955
204.490	16.817	914.126	689.014
205.504	16.745	913.523	688.206
206.519	16.687	912.698	687.286
207.534	16.759	911.564	686.664
208.548	16.690	911.239	686.078
209.563	16.789	910.746	686.048
210.577	16.715	910.011	685.133
211.592	16.936	909.342	685.463
212.607	16.864	908.752	684.667
213.621	16.905	907.774	684.037
214.636	16.867	907.110	683.322
215.650	16.917	906.237	682.806
216.665	17.001	906.065	682.950
217.680	17.123	905.125	682.675
218.694	16.999	904.734	681.822
219.709	17.065	903.829	681.341
220.723	17.072	903.371	680.966
221.738	16.975	902.598	679.935
222.753	17.029	901.771	679.467
223.767	16.960	901.779	679.136
224.782	17.075	901.439	679.279
225.796	17.287	900.294	679.203
226.811	17.081	900.118	678.189
227.826	17.096	898.971	677.326
228.840	17.161	897.951	676.757
229.855	17.049	897.324	675.777
230.869	16.997	896.407	674.819
231.884	16.844	896.320	674.086
232.899	16.945	895.600	673.886
233.913	16.876	894.798	672.949
234.928	16.808	894.237	672.197
235.942	16.784	893.629	671.585
236.957	16.906	892.866	671.437
237.972	16.914	892.184	670.895
238.986	16.965	891.498	670.521
240.001	16.945	891.032	670.035
241.015	17.047	890.431	669.927
242.030	17.044	890.141	669.637
243.045	17.107	889.363	669.239
244.059	17.176	889.061	669.223
245.074	17.215	887.970	668.497
246.088	17.198	887.463	667.988
247.103	17.409	887.002	668.412
248.117	17.371	887.152	668.316
249.132	17.577	886.358	668.468
250.147	17.775	885.202	668.313
251.161	17.720	884.877	667.792
252.176	17.664	884.369	667.133
253.190	17.737	883.885	666.994
254.205	17.778	883.254	666.620
255.220	17.743	882.456	665.819
256.234	17.879	881.565	665.619
257.249	17.674	881.368	664.615
258.263	17.675	880.335	663.779
259.278	17.613	879.986	663.216
260.293	17.911	878.962	663.546
261.307	17.969	878.895	663.659
262.322	17.831	878.300	662.616
263.336	17.982	877.250	662.350
264.351	17.915	876.541	661.497
265.366	17.947	876.101	661.231
266.380	17.988	875.362	660.773
267.395	17.972	874.476	659.986
268.409	17.923	873.778	659.211
269.424	17.844	872.959	658.231
270.439	17.845	872.143	657.559
271.453	17.796	871.579	656.885
272.468	17.863	871.275	656.857
273.482	17.708	870.805	655.848
274.497	17.769	870.103	655.495
275.512	17.911	869.459	655.499
276.526	17.672	869.535	654.581
277.541	17.850	868.812	654.662
278.555	18.096	868.100	655.010
279.570	18.072	867.405	654.336
280.585	18.142	866.150	653.599
281.599	18.185	865.738	653.395
282.614	17.994	865.054	652.091
283.628	17.908	864.291	651.128
284.643	18.050	864.226	651.564
285.657	17.902	863.356	650.288
286.672	17.833	863.244	649.883
287.687	18.020	862.122	649.693
288.701	17.928	861.943	649.151
289.716	18.174	861.159	649.434
290.730	18.067	860.714	648.639
291.745	18.126	860.115	648.351
292.760	18.071	859.851	647.887
293.774	18.161	859.036	647.557
294.789	18.270	857.983	647.119
295.803	18.188	857.216	646.171
296.818	18.066	856.879	645.399
297.833	18.121	855.764	644.710
298.847	18.151	855.174	644.323
299.862	18.137	854.941	644.037
300.876	18.298	854.247	644.061
301.891	18.320	854.145	644.011
302.906	18.435	853.444	643.859
303.920	18.541	853.140	643.970
304.935	18.557	852.369	643.389
305.949	18.482	851.459	642.367
306.964	18.391	850.939	641.575
307.979	18.562	849.974	641.431
308.993	18.444	850.013	640.963
310.008	18.456	849.287	640.404
311.022	18.362	848.857	639.671
312.037	18.356	848.103	639.023
313.052	18.203	847.954	638.285
314.066	18.226	846.822	637.461
315.081	18.236	846.580	637.261
316.095	18.331	845.575	636.802
317.110	18.289	845.292	636.374
318.125	18.286	844.673	635.840
319.139	18.272	844.081	635.290
320.154	18.244	843.747	634.875
321.168	18.397	843.102	634.902
322.183	18.442	842.468	634.536
323.197	18.386	842.273	634.126
324.212	18.450	841.757	633.915
325.227	18.434	840.867	633.130
326.241	18.276	840.604	632.294
327.256	18.396	839.999	632.225
328.270	18.314	839.641	631.598
329.285	18.408	838.698	631.180
330.300	18.341	838.207	630.507
331.314	18.480	837.511	630.440
332.329	18.509	837.236	630.281
333.343	18.468	836.951	629.863
334.358	18.655	836.271	629.981
335.373	18.565	836.043	629.423
336.387	18.669	835.652	629.455
337.402	18.711	835.659	629.557
338.416	18.606	835.458	628.965
339.431	18.857	834.723	629.274
340.446	18.858	834.377	628.964
341.460	18.960	834.165	629.121
342.475	19.057	833.746	629.104
343.489	18.961	833.179	628.269
344.504	19.150	832.768	628.593
345.519	18.988	832.329	627.614
346.533	18.888	831.991	626.943
347.548	18.990	830.838	626.387
348.562	18.760	830.654	625.357
349.577	18.771	830.019	624.861
350.592	18.709	829.473	624.171
351.606	18.751	828.574	623.592
352.621	18.660	827.956	622.742
353.635	18.642	827.682	622.417
354.650	18.883	826.560	622.390
355.665	18.811	826.484	622.016
356.679	18.920	825.539	621.645
357.694	18.869	825.259	621.193
358.708	18.918	824.773	620.950
359.723	18.975	823.625	620.236
360.738	19.004	822.856	619.706
361.752	19.097	822.549	619.755
362.767	19.050	821.944	619.077
363.781	19.107	821.749	619.081
364.796	19.276	821.230	619.242
365.810	19.436	820.678	619.345
366.825	19.357	820.976	619.230
367.840	19.395	819.998	618.574
368.854	19.390	819.163	617.873
369.869	19.270	818.845	617.147
370.883	19.188	818.550	616.577
371.898	19.383	818.450	617.147
372.913	19.520	817.901	617.169
373.927	19.409	817.661	616.534
374.942	19.323	817.142	615.782
375.956	19.301	816.589	615.230
376.971	19.514	816.369	615.772
377.986	19.719	815.608	615.872
379.000	19.798	815.060	615.685
380.015	19.525	814.781	614.450
381.029	19.574	814.309	614.215
382.044	19.572	813.591	613.609
383.059	19.739	812.772	613.531
384.073	19.554	812.219	612.404
385.088	19.547	811.318	611.644
386.102	19.521	810.872	611.164
387.117	19.375	810.749	610.499
388.132	19.404	810.034	610.010
389.146	19.391	809.731	609.682
390.161	19.586	809.153	609.880
391.175	19.579	809.142	609.793
392.190	19.520	808.465	609.020
393.205	19.522	807.736	608.424
394.219	19.399	807.568	607.810
395.234	19.250	806.881	606.717
396.248	19.442	806.309	606.907
397.263	19.278	806.025	606.065
398.278	19.499	805.005	606.020
399.292	19.410	804.796	605.495
400.307	19.372	804.486	605.075
401.321	19.400	804.196	604.900
402.336	19.523	803.333	604.631
403.350	19.593	803.487	604.938
404.365	19.633	803.045	604.691
405.380	19.700	802.637	604.564
406.394	19.830	801.951	604.449
407.409	19.837	801.485	604.070
408.423	19.906	801.259	604.086
409.438	20.080	801.168	604.572
410.453	20.096	800.379	603.977
411.467	20.031	800.160	603.534
412.482	20.008	799.799	603.128
413.496	20.145	799.309	603.180
414.511	20.073	799.011	602.650
415.526	20.020	798.346	601.914
416.540	20.046	798.174	601.820
417.555	20.040	797.333	601.113
418.569	20.199	796.895	601.280
419.584	20.024	796.664	600.447
420.599	20.043	796.532	600.358
421.613	162.477	1371.116	1797.093
422.628	140.984	1454.800	1797.162
