DTS Sentinel unit serial number:	SN413079Multiplexer serial number:	ORYXHardware model number:	OX4-SRSoftware version number:	ORYX F/W v4.00 Oryx Data Collector v3.7.2.0data status	okinstallation	princeton_trtdifferential loss correction	single-endedforward channel	channel 1reverse channel	N/Adate	2019/09/11time	09:36:11forward acquisition time	60.00reverse acquisition time	0.00gamma	496.2192k internal	0.2305k external	0.2305temperature offset calibration	0.9953default loss term (dB/km)	0.3790temperature slope calibration	1.0000multiplexer offset coefficient	1.0000multiplexer slope coefficient	1.0000fibre end	0.00T internal ref (°C)	34.80T ext. ref 1 (°C)	0.13T ext. ref 2 (°C)	31.05length (m)	temperature (°C)	Stokes	anti-Stokes-747.200	-200.000	0.010	0.080
-746.185	-200.000	-0.007	0.270
-745.171	-16.434	-0.267	0.172
-744.156	-200.000	0.036	0.231
-743.142	-200.000	-0.299	0.001
-742.127	450.867	0.120	0.270
-741.112	398.079	0.073	-0.156
-740.098	275.869	-0.155	0.279
-739.083	176.165	-0.085	0.126
-738.069	-121.018	-0.485	0.083
-737.054	790.020	-0.097	0.270
-736.039	800.000	-0.021	0.066
-735.025	800.000	0.080	0.352
-734.010	21.472	-0.288	-0.238
-732.996	800.000	-0.053	-0.229
-731.981	-200.000	-0.038	0.332
-730.966	109.564	-0.178	-0.217
-729.952	-200.000	0.026	0.230
-728.937	-135.840	0.235	-0.028
-727.923	-134.183	-0.114	0.014
-726.908	176.895	-0.020	-0.030
-725.894	-140.626	-0.291	-0.031
-724.879	-187.563	0.228	-0.003
-723.864	-39.383	-0.230	0.123
-722.850	483.994	-0.105	0.242
-721.835	-143.660	-0.168	-0.016
-720.821	407.053	-0.134	-0.288
-719.806	-200.000	-0.014	-0.487
-718.791	800.000	0.046	-0.177
-717.777	-200.000	0.009	-0.165
-716.762	-140.289	-0.195	-0.021
-715.748	16.965	0.308	-0.248
-714.733	-164.221	-0.327	0.015
-713.718	143.328	0.165	0.223
-712.704	-108.267	0.084	-0.019
-711.689	-200.000	0.034	0.195
-710.675	289.427	-0.128	0.236
-709.660	379.608	-0.108	-0.224
-708.645	-42.722	0.216	0.112
-707.631	257.273	0.031	-0.053
-706.616	-4.341	0.220	-0.154
-705.602	-200.000	-0.017	-0.082
-704.587	-200.000	-0.033	-0.395
-703.572	279.661	-0.030	-0.054
-702.558	-3.930	0.177	0.125
-701.543	118.732	0.200	-0.251
-700.529	11.744	0.252	-0.197
-699.514	111.409	-0.094	0.115
-698.499	-56.476	-0.162	-0.073
-697.485	21.488	0.191	-0.158
-696.470	-200.000	0.000	0.037
-695.456	42.390	0.136	-0.126
-694.441	-200.000	-0.014	0.240
-693.426	-200.000	0.010	-0.169
-692.412	-12.918	0.204	-0.135
-691.397	63.066	0.319	-0.324
-690.383	800.000	0.018	-0.066
-689.368	93.659	0.214	-0.247
-688.354	-200.000	0.005	0.195
-687.339	652.584	-0.026	0.068
-686.324	426.251	0.048	-0.105
-685.310	-200.000	0.024	-0.454
-684.295	-32.660	-0.137	0.078
-683.281	105.846	-0.159	-0.191
-682.266	-119.633	-0.207	0.036
-681.251	-200.000	-0.015	0.160
-680.237	169.679	0.117	-0.169
-679.222	175.690	0.189	-0.279
-678.208	-13.542	0.204	-0.134
-677.193	800.000	0.045	0.140
-676.178	107.002	-0.098	0.119
-675.164	169.065	0.069	-0.099
-674.149	43.047	0.016	-0.015
-673.135	-2.327	0.108	-0.077
-672.120	-21.194	0.129	0.080
-671.105	290.270	-0.091	0.167
-670.091	-35.777	0.049	-0.027
-669.076	750.117	0.178	0.489
-668.062	-107.197	0.230	-0.051
-667.047	600.970	0.077	0.195
-666.032	-200.000	-0.012	0.157
-665.018	-200.000	-0.003	-0.144
-664.003	800.000	0.111	-0.448
-662.989	140.619	0.143	-0.191
-661.974	-200.000	0.023	0.181
-660.959	568.257	0.056	-0.137
-659.945	27.906	-0.414	-0.354
-658.930	-145.976	-0.280	-0.025
-657.916	-82.910	0.039	-0.013
-656.901	-130.091	0.110	0.015
-655.886	-200.000	-0.058	0.332
-654.872	573.403	0.032	0.080
-653.857	-62.293	-0.095	-0.040
-652.843	640.966	-0.038	-0.097
-651.828	794.642	0.153	-0.427
-650.814	-200.000	0.002	0.110
-649.799	252.156	0.125	0.215
-648.784	108.310	-0.150	-0.182
-647.770	37.548	-0.170	-0.153
-646.755	151.545	0.073	0.100
-645.741	-104.368	-0.385	-0.090
-644.726	-200.000	-0.005	-0.150
-643.711	-51.951	-0.364	0.172
-642.697	-80.922	0.299	-0.100
-641.682	-73.906	0.132	0.049
-640.668	-200.000	0.023	-0.143
-639.653	-59.290	0.200	-0.087
-638.638	-200.000	0.013	0.151
-637.624	-19.197	0.290	-0.183
-636.609	-200.000	-0.019	0.196
-635.595	-200.000	-0.044	0.260
-634.580	437.959	-0.070	0.155
-633.565	400.517	-0.210	0.447
-632.551	77.319	-0.021	0.022
-631.536	278.374	0.182	0.329
-630.522	298.243	-0.051	-0.095
-629.507	405.240	0.120	0.256
-628.492	-34.756	-0.338	-0.187
-627.478	285.482	-0.131	0.240
-626.463	-38.660	-0.173	0.093
-625.449	-8.412	0.243	-0.166
-624.434	-200.000	-0.054	0.282
-623.419	140.372	0.133	0.178
-622.405	-200.000	-0.254	-0.000
-621.390	222.874	-0.073	-0.119
-620.376	-200.000	-0.020	-0.364
-619.361	-2.130	-0.278	-0.198
-618.346	-200.000	-0.048	-0.317
-617.332	-200.000	0.045	-0.207
-616.317	480.335	-0.134	0.307
-615.303	-200.000	0.023	-0.172
-614.288	-147.187	-0.080	-0.007
-613.273	-89.721	-0.275	-0.081
-612.259	2.090	-0.160	0.117
-611.244	800.000	-0.025	0.096
-610.230	-56.803	-0.330	-0.148
-609.215	-44.984	0.245	0.123
-608.201	409.056	0.159	-0.342
-607.186	-200.000	-0.331	-0.001
-606.171	-10.170	0.104	-0.070
-605.157	800.000	-0.047	-0.153
-604.142	133.938	-0.117	-0.153
-603.128	313.268	0.106	-0.201
-602.113	-76.970	0.183	0.065
-601.098	-13.217	-0.156	0.102
-600.084	-176.377	0.117	0.003
-599.069	-10.605	-0.071	0.048
-598.055	-200.000	0.007	-0.079
-597.040	-94.995	0.456	-0.125
-596.025	-200.000	-0.075	-0.363
-595.011	-200.000	-0.035	-0.262
-593.996	-200.000	0.009	0.138
-592.982	175.760	-0.061	0.090
-591.967	-15.639	-0.395	-0.255
-590.952	800.000	0.019	-0.075
-589.938	-200.000	0.006	-0.198
-588.923	-117.886	0.187	-0.034
-587.909	-200.000	-0.007	0.194
-586.894	-80.846	0.283	0.095
-585.879	-9.146	0.033	-0.022
-584.865	-143.958	0.192	-0.018
-583.850	131.774	-0.164	0.213
-582.836	-61.214	-0.145	0.062
-581.821	-13.920	0.114	-0.074
-580.806	-200.000	0.049	-0.240
-579.792	86.114	-0.135	0.150
-578.777	43.400	0.104	-0.096
-577.763	481.744	-0.010	-0.023
-576.748	-71.860	-0.072	-0.027
-575.733	-200.000	0.011	-0.274
-574.719	337.428	0.076	0.150
-573.704	-142.268	-0.127	-0.013
-572.690	800.000	-0.093	0.311
-571.675	-200.000	0.029	-0.474
-570.661	800.000	0.039	-0.150
-569.646	45.431	-0.087	-0.082
-568.631	444.998	-0.120	-0.267
-567.617	-200.000	0.011	-0.266
-566.602	800.000	-0.054	0.179
-565.588	-117.289	0.125	-0.023
-564.573	51.664	-0.118	0.113
-563.558	-11.042	-0.114	-0.076
-562.544	126.050	0.038	-0.048
-561.529	800.000	-0.043	-0.176
-560.515	106.141	0.173	0.207
-559.500	-200.000	0.025	-0.368
-558.485	-20.321	-0.180	0.112
-557.471	394.144	-0.133	0.281
-556.456	460.254	-0.074	-0.166
-555.442	-86.810	-0.287	0.089
-554.427	-200.000	0.001	0.239
-553.412	17.909	-0.107	0.086
-552.398	353.068	-0.153	0.307
-551.383	-81.439	-0.184	-0.061
-550.369	104.999	0.156	-0.185
-549.354	427.695	-0.127	0.277
-548.339	187.786	-0.050	-0.076
-547.325	175.026	-0.106	-0.156
-546.310	-200.000	0.010	-0.191
-545.296	-200.000	-0.004	-0.037
-544.281	87.285	0.243	0.271
-543.266	-110.352	-0.021	-0.004
-542.252	610.535	0.121	0.306
-541.237	35.651	0.305	-0.271
-540.223	237.441	-0.169	-0.282
-539.208	-22.723	-0.309	-0.189
-538.193	-16.316	0.084	-0.054
-537.179	58.837	0.263	0.261
-536.164	-1.235	-0.109	0.078
-535.150	-165.291	0.295	-0.013
-534.135	800.000	0.057	-0.171
-533.121	-14.663	0.185	0.120
-532.106	-129.250	-0.216	-0.030
-531.091	56.816	-0.074	-0.073
-530.077	252.463	0.093	-0.160
-529.062	800.000	-0.067	-0.214
-528.048	182.444	0.146	-0.217
-527.033	-200.000	0.012	-0.294
-526.018	-181.702	-0.231	0.004
-525.004	198.721	0.187	0.288
-523.989	251.643	-0.258	-0.443
-522.975	29.844	0.105	-0.090
-521.960	388.572	0.049	0.102
-520.945	-200.000	0.016	0.095
-519.931	-200.000	0.003	0.305
-518.916	165.323	0.303	0.431
-517.902	-19.497	0.069	0.043
-516.887	-60.371	-0.178	-0.077
-515.872	-200.000	0.024	0.393
-514.858	-81.499	0.276	0.092
-513.843	-141.569	0.104	0.011
-512.829	-159.353	0.386	0.022
-511.814	122.012	-0.162	-0.204
-510.799	-200.000	0.051	0.276
-509.785	-200.000	0.046	-0.405
-508.770	-120.466	0.173	0.030
-507.756	159.347	-0.039	-0.055
-506.741	-42.942	0.254	-0.130
-505.726	-36.790	0.338	-0.183
-504.712	394.722	0.026	-0.055
-503.697	800.000	0.080	-0.245
-502.683	53.819	-0.285	-0.276
-501.668	-200.000	0.008	-0.083
-500.653	255.885	-0.121	0.208
-499.639	76.541	0.078	0.084
-498.624	-200.000	-0.035	-0.219
-497.610	800.000	-0.080	0.291
-496.595	84.546	0.153	-0.169
-495.581	-96.779	0.359	0.095
-494.566	36.833	0.145	0.129
-493.551	-46.896	-0.036	0.018
-492.537	-169.432	-0.247	-0.009
-491.522	-200.000	0.011	-0.233
-490.508	-76.500	0.126	-0.045
-489.493	-200.000	0.049	-0.259
-488.478	-200.000	0.002	0.016
-487.464	-11.827	-0.149	-0.099
-486.449	119.666	-0.094	0.117
-485.435	-20.928	0.097	0.060
-484.420	800.000	-0.055	-0.177
-483.405	-84.749	-0.055	0.018
-482.391	109.900	0.073	0.088
-481.376	198.201	0.036	-0.055
-480.362	232.727	0.090	-0.149
-479.347	108.083	-0.087	-0.104
-478.332	148.182	0.075	0.101
-477.318	-200.000	-0.025	0.171
-476.303	-46.186	-0.130	0.065
-475.289	-200.000	0.003	-0.083
-474.274	-60.061	-0.066	0.028
-473.259	1.327	-0.116	-0.084
-472.245	49.128	-0.177	0.168
-471.230	-200.000	0.027	-0.322
-470.216	-200.000	0.012	0.134
-469.201	-128.383	-0.095	0.014
-468.186	-200.000	-0.006	0.210
-467.172	-142.576	0.359	-0.035
-466.157	-200.000	-0.044	-0.195
-465.143	18.389	0.197	-0.158
-464.128	-200.000	-0.021	0.292
-463.113	-200.000	0.001	-0.035
-462.099	37.172	0.056	-0.050
-461.084	-34.898	0.322	0.177
-460.070	800.000	0.027	-0.110
-459.055	-162.309	-0.177	-0.009
-458.040	-200.000	0.007	-0.086
-457.026	-110.952	0.137	-0.028
-456.011	-116.884	-0.358	0.066
-454.997	-92.310	0.708	-0.201
-453.982	-54.059	-0.094	0.043
-452.968	-200.000	0.011	0.257
-451.953	-124.760	0.175	-0.027
-450.938	53.273	-0.111	0.107
-449.924	-98.100	0.246	-0.064
-448.909	32.916	0.046	0.040
-447.895	132.751	-0.172	-0.223
-446.880	-59.215	-0.142	0.062
-445.865	-98.524	0.049	0.013
-444.851	-86.021	-0.021	-0.007
-443.836	-0.858	0.147	-0.104
-442.822	-163.999	-0.099	0.005
-441.807	111.843	-0.068	-0.082
-440.792	-91.282	-0.298	-0.086
-439.778	253.867	-0.076	0.131
-438.763	-16.623	-0.211	0.135
-437.749	-69.268	-0.116	-0.045
-436.734	-199.089	0.185	-0.001
-435.719	92.818	-0.165	-0.187
-434.705	-200.000	0.013	0.078
-433.690	100.916	0.042	0.049
-432.676	87.477	0.154	0.172
-431.661	-200.000	-0.011	-0.229
-430.646	275.710	0.159	-0.284
-429.632	-39.975	-0.092	0.048
-428.617	800.000	-0.066	0.270
-427.603	168.015	0.147	-0.210
-426.588	-85.523	-0.275	-0.086
-425.573	800.000	0.068	-0.263
-424.559	265.128	-0.074	0.130
-423.544	4.999	0.120	0.088
-422.530	-39.609	-0.135	0.071
-421.515	-38.545	-0.227	0.121
-420.500	-200.000	-0.018	-0.165
-419.486	-171.333	-0.129	-0.004
-418.471	-154.928	0.181	-0.012
-417.457	800.000	-0.019	-0.058
-416.442	-87.116	0.139	0.042
-415.428	430.485	-0.104	0.225
-414.413	800.000	0.136	0.428
-413.398	425.480	-0.064	0.137
-412.384	82.597	0.140	0.153
-411.369	154.526	0.247	-0.341
-410.355	122.814	-0.218	0.274
-409.340	230.159	0.073	-0.120
-408.325	-13.025	-0.125	-0.082
-407.311	364.662	-0.103	0.209
-406.296	-200.000	0.033	-0.199
-405.282	-200.000	-0.016	0.152
-404.267	-200.000	0.012	-0.095
-403.252	-110.749	-0.090	-0.019
-402.238	166.746	0.175	0.249
-401.223	-139.570	-0.181	0.019
-400.209	-4.203	-0.229	-0.159
-399.194	-166.175	-0.193	-0.008
-398.179	800.000	-0.095	0.344
-397.165	147.649	0.258	0.349
-396.150	-29.001	0.289	0.167
-395.136	800.000	-0.063	-0.194
-394.121	-200.000	-0.008	0.103
-393.106	800.000	-0.038	0.157
-392.092	140.770	-0.170	-0.225
-391.077	-200.000	-0.336	0.001
-390.063	190.447	-0.059	0.089
-389.048	235.262	-0.052	-0.086
-388.033	-28.539	-0.247	-0.143
-387.019	-200.000	-0.043	-0.369
-386.004	31.586	-0.070	0.061
-384.990	-200.000	0.016	-0.321
-383.975	-163.158	-0.333	0.016
-382.960	92.329	-0.177	-0.200
-381.946	88.190	0.253	-0.282
-380.931	-3.549	0.437	-0.305
-379.917	-16.437	-0.087	-0.056
-378.902	-90.408	0.182	-0.053
-377.888	-85.750	0.128	0.040
-376.873	52.736	0.114	0.109
-375.858	800.000	-0.070	-0.197
-374.844	-75.377	-0.272	0.097
-373.829	-200.000	-0.016	0.077
-372.815	-73.747	-0.163	0.059
-371.800	44.625	0.075	-0.069
-370.785	-200.000	-0.008	0.242
-369.771	-61.721	0.489	0.206
-368.756	-25.537	0.206	-0.122
-367.742	800.000	-0.087	-0.274
-366.727	673.482	0.138	0.358
-365.712	-200.000	0.018	-0.158
-364.698	800.000	-0.042	-0.164
-363.683	64.864	0.240	-0.243
-362.669	-65.388	-0.208	0.084
-361.654	-69.938	-0.558	-0.213
-360.639	-200.000	0.002	-0.119
-359.625	-106.180	-0.187	-0.042
-358.610	-200.000	-0.041	-0.312
-357.596	-200.000	-0.055	-0.408
-356.581	800.000	-0.016	-0.070
-355.566	53.268	-0.012	-0.012
-354.552	800.000	-0.126	0.391
-353.537	-99.228	0.126	-0.032
-352.523	229.355	0.126	-0.206
-351.508	209.446	0.064	0.100
-350.493	-200.000	0.010	0.125
-349.479	57.676	-0.168	0.165
-348.464	48.076	0.042	-0.039
-347.450	169.788	0.089	0.128
-346.435	-200.000	0.000	-0.018
-345.420	17.611	-0.064	0.051
-344.406	-99.847	-0.280	-0.070
-343.391	-101.574	-0.126	0.031
-342.377	21.194	0.214	-0.174
-341.362	-31.240	0.219	0.124
-340.348	403.831	0.105	0.221
-339.333	-83.099	0.079	0.025
-338.318	75.277	-0.204	-0.215
-337.304	-200.000	-0.007	-0.089
-336.289	-164.764	-0.285	0.013
-335.275	70.055	0.126	-0.131
-334.260	159.675	-0.187	0.261
-333.245	-200.000	0.015	0.217
-332.231	-83.357	0.394	0.127
-331.216	26.918	0.151	-0.127
-330.202	55.574	-0.537	0.521
-329.187	276.932	0.087	0.155
-328.172	-200.000	0.002	-0.148
-327.158	800.000	-0.031	0.119
-326.143	680.007	0.154	0.403
-325.129	-136.257	0.207	-0.024
-324.114	-29.708	0.146	0.083
-323.099	-26.867	0.109	-0.064
-322.085	-200.000	-0.025	-0.187
-321.070	176.366	-0.280	0.407
-320.056	-41.748	-0.083	0.043
-319.041	-200.000	-0.042	-0.309
-318.026	-152.185	0.363	-0.026
-317.012	-51.854	0.192	-0.089
-315.997	253.432	-0.169	0.289
-314.983	97.899	-0.352	-0.405
-313.968	47.994	-0.161	0.150
-312.953	800.000	-0.092	0.289
-311.939	800.000	0.089	-0.334
-310.924	-150.237	-0.125	0.010
-309.910	-129.938	0.384	0.053
-308.895	336.624	0.046	0.090
-307.880	268.791	-0.091	-0.160
-306.866	-184.955	-0.214	-0.003
-305.851	-200.000	0.017	-0.407
-304.837	427.766	-0.094	0.203
-303.822	-200.000	0.044	0.220
-302.807	800.000	-0.012	0.051
-301.793	-49.992	-0.256	0.121
-300.778	-9.515	-0.323	-0.215
-299.764	585.040	-0.077	-0.189
-298.749	-200.000	0.006	-0.194
-297.735	11.004	-0.062	-0.047
-296.720	-200.000	-0.011	-0.129
-295.705	800.000	0.088	-0.289
-294.691	-116.798	0.186	-0.034
-293.676	-65.394	0.334	0.134
-292.662	-200.000	0.020	0.197
-291.647	-40.319	-0.085	-0.044
-290.632	77.211	-0.265	0.281
-289.618	-28.415	0.137	-0.079
-288.603	171.541	-0.243	-0.348
-287.589	31.271	0.188	-0.162
-286.574	42.262	0.147	0.134
-285.559	117.663	0.138	0.170
-284.545	115.018	0.252	-0.308
-283.530	5.304	0.361	-0.266
-282.516	72.544	0.143	-0.149
-281.501	-71.012	0.269	-0.101
-280.486	-52.006	-0.291	0.135
-279.472	445.969	0.065	-0.143
-278.457	13.227	0.117	-0.090
-277.443	-167.291	-0.090	-0.004
-276.428	800.000	-0.059	0.167
-275.413	-21.815	-0.204	0.124
-274.399	44.618	0.383	0.352
-273.384	48.293	0.228	0.213
-272.370	-200.000	0.003	0.018
-271.355	-200.000	0.001	-0.103
-270.340	-200.000	0.026	-0.403
-269.326	26.984	-0.150	0.126
-268.311	-200.000	-0.049	-0.359
-267.297	362.199	0.105	0.211
-266.282	652.719	0.009	-0.024
-265.267	-130.424	0.319	-0.043
-264.253	-123.390	0.433	-0.069
-263.238	156.235	-0.122	0.168
-262.224	40.157	0.235	0.211
-261.209	357.717	-0.104	0.207
-260.195	-200.000	-0.027	-0.144
-259.180	-131.910	0.428	-0.056
-258.165	800.000	-0.142	-0.410
-257.151	3.586	-0.331	-0.241
-256.136	-38.716	-0.092	0.049
-255.122	-117.189	0.021	0.004
-254.107	-200.000	-0.006	0.049
-253.092	-47.642	0.014	0.007
-252.078	85.947	-0.049	0.053
-251.063	-200.000	0.017	0.135
-250.049	68.945	-0.097	-0.100
-249.034	800.000	-0.044	-0.138
-248.019	-200.000	0.026	0.307
-247.005	800.000	-0.072	0.252
-245.990	-70.253	-0.097	-0.037
-244.976	-68.006	-0.210	0.082
-243.961	-20.148	-0.127	0.078
-242.946	92.031	-0.347	0.390
-241.932	800.000	-0.077	-0.290
-240.917	800.000	-0.067	-0.199
-239.903	-98.498	0.475	-0.121
-238.888	800.000	-0.087	0.305
-237.873	-114.512	0.095	-0.018
-236.859	161.154	0.074	0.104
-235.844	-200.000	-0.005	0.493
-234.830	55.474	0.037	0.036
-233.815	-200.000	-0.010	-0.150
-232.800	85.750	-0.110	0.121
-231.786	377.148	-0.044	0.089
-230.771	24.529	-0.077	-0.063
-229.757	-200.000	-0.018	0.248
-228.742	-137.958	0.083	-0.009
-227.727	800.000	0.071	0.207
-226.713	41.380	-0.164	0.148
-225.698	-200.000	-0.032	0.179
-224.684	-80.046	-0.132	-0.044
-223.669	34.951	-0.274	-0.239
-222.655	625.410	0.136	0.341
-221.640	25.306	-0.193	0.160
-220.625	136.720	0.180	0.235
-219.611	-200.000	-0.025	-0.235
-218.596	96.090	0.110	0.125
-217.582	-104.415	0.239	-0.055
-216.567	-29.783	0.176	0.100
-215.552	800.000	-0.058	-0.182
-214.538	-134.191	0.061	0.008
-213.523	76.930	-0.216	0.229
-212.509	-137.606	0.247	0.028
-211.494	62.797	0.145	0.145
-210.479	-93.594	0.400	0.110
-209.465	-200.000	0.007	-0.168
-208.450	-36.404	-0.052	-0.028
-207.436	800.000	0.019	0.057
-206.421	-63.290	0.110	0.045
-205.406	93.181	-0.166	0.188
-204.392	-47.220	-0.173	0.084
-203.377	74.286	-0.175	0.184
-202.363	493.614	0.201	0.459
-201.348	-102.269	0.295	-0.070
-200.333	-186.888	0.229	-0.003
-199.319	-173.758	-0.232	0.007
-198.304	68.571	-0.237	0.242
-197.290	-200.000	0.015	-0.201
-196.275	36.463	0.174	0.153
-195.260	-91.363	-0.105	-0.030
-194.246	-200.000	-0.025	-0.266
-193.231	-200.000	-0.053	-0.333
-192.217	-128.365	0.240	0.034
-191.202	277.045	0.058	-0.104
-190.187	-200.000	-0.014	0.082
-189.173	382.159	-0.055	0.112
-188.158	177.493	-0.139	0.202
-187.144	-1.718	0.133	0.093
-186.129	800.000	0.187	0.517
-185.114	-114.960	0.240	-0.045
-184.100	26.223	-0.056	-0.047
-183.085	76.190	0.344	0.362
-182.071	-125.872	-0.241	0.036
-181.056	164.351	-0.168	-0.235
-180.042	367.607	0.080	-0.162
-179.027	49.436	0.110	0.103
-178.012	5.699	0.223	-0.164
-176.998	-200.000	0.014	0.145
-175.983	93.548	-0.007	-0.007
-174.969	-200.000	0.001	0.106
-173.954	-102.894	-0.273	0.065
-172.939	139.283	-0.098	0.128
-171.925	800.000	0.032	0.128
-170.910	-45.779	0.049	-0.024
-169.896	-90.132	0.126	0.037
-168.881	335.078	-0.122	0.235
-167.866	209.958	-0.107	-0.168
-166.852	-200.000	0.031	0.175
-165.837	-200.000	0.015	0.322
-164.823	82.877	0.075	0.081
-163.808	-68.499	0.619	0.239
-162.793	216.379	-0.027	-0.042
-161.779	-130.562	-0.132	-0.018
-160.764	-130.075	-0.406	-0.055
-159.750	-94.606	-0.253	-0.068
-158.735	800.000	-0.036	-0.114
-157.720	-200.000	-0.044	-0.343
-156.706	51.513	-0.028	-0.026
-155.691	-106.744	0.119	-0.026
-154.677	18.412	-0.203	0.161
-153.662	-162.311	0.133	-0.007
-152.647	-80.201	-0.162	0.054
-151.633	-200.000	0.088	-0.408
-150.618	-151.972	0.131	0.010
-149.604	428.779	-0.082	0.176
-148.589	800.000	0.042	0.154
-147.574	431.594	0.063	-0.136
-146.560	-113.815	0.142	-0.027
-145.545	-39.671	-0.300	0.156
-144.531	-200.000	0.029	0.320
-143.516	800.000	0.067	-0.185
-142.502	-200.000	0.003	0.313
-141.487	-180.785	-0.406	-0.008
-140.472	37.021	0.155	0.136
-139.458	-28.785	-0.132	0.076
-138.443	-116.217	0.253	0.047
-137.429	-73.382	0.072	-0.026
-136.414	-73.093	0.141	0.051
-135.399	22.522	0.230	-0.187
-134.385	-54.345	0.250	-0.113
-133.370	800.000	0.099	-0.283
-132.356	-7.364	0.156	-0.105
-131.341	95.862	0.058	0.066
-130.326	18.049	0.416	0.330
-129.312	33.314	0.182	0.157
-128.297	-107.905	-0.100	0.022
-127.283	45.753	-0.168	0.154
-126.268	-200.000	0.071	-0.388
-125.253	-44.047	0.072	0.036
-124.239	-186.641	-0.150	0.002
-123.224	-91.781	-0.277	-0.078
-122.210	90.702	0.187	0.208
-121.195	-69.115	0.039	0.015
-120.180	33.833	-0.166	-0.143
-119.166	-200.000	0.018	-0.135
-118.151	-82.576	-0.303	0.097
-117.137	62.855	-0.122	0.121
-116.122	-76.521	0.326	-0.114
-115.107	800.000	0.047	-0.143
-114.093	-200.000	-0.039	0.251
-113.078	-179.745	0.358	0.008
-112.064	-73.457	-0.409	0.148
-111.049	-200.000	-0.178	-0.001
-110.034	1.596	-0.211	0.151
-109.020	-87.600	0.525	-0.158
-108.005	-30.359	-0.285	-0.160
-106.991	-130.574	0.068	0.009
-105.976	-200.000	0.011	0.388
-104.962	-175.928	-0.240	0.006
-103.947	-200.000	-0.001	0.244
-102.932	77.518	0.033	0.035
-101.918	205.478	0.163	0.251
-100.903	-134.144	-0.019	0.002
-99.889	-102.146	0.293	-0.070
-98.874	32.555	0.348	-0.298
-97.859	-1.712	-0.230	0.161
-96.845	57.187	0.072	0.070
-95.830	800.000	0.067	-0.191
-94.816	-79.094	-0.122	-0.041
-93.801	-200.000	0.018	0.246
-92.786	-111.095	-0.078	-0.016
-91.772	-7.743	0.010	0.007
-90.757	-200.000	0.022	0.113
-89.743	-30.894	0.314	0.176
-88.728	67.344	0.136	-0.138
-87.713	6.765	0.299	0.221
-86.699	709.261	0.049	-0.129
-85.684	-200.000	-0.005	-0.041
-84.670	531.058	0.126	-0.296
-83.655	-98.698	-0.185	0.047
-82.640	0.891	-0.278	0.198
-81.626	-4.266	0.160	0.110
-80.611	6.268	-0.308	0.227
-79.597	86.772	-0.136	-0.149
-78.582	206.095	0.128	-0.198
-77.567	-200.000	0.026	-0.216
-76.553	800.000	-0.114	0.314
-75.538	171.611	0.092	0.131
-74.524	-200.000	0.036	0.317
-73.509	-26.005	-0.093	-0.054
-72.494	177.034	-0.110	0.159
-71.480	101.045	0.043	-0.050
-70.465	-38.355	0.314	0.165
-69.451	-200.000	-0.022	-0.196
-68.436	-76.428	-0.121	-0.042
-67.422	-200.000	-0.021	-0.290
-66.407	-200.000	-0.006	-0.471
-65.392	81.943	0.148	0.158
-64.378	-24.002	0.133	-0.079
-63.363	189.295	-0.087	-0.129
-62.349	800.000	-0.115	0.460
-61.334	115.225	-0.806	-0.976
-60.319	407.650	0.345	0.723
-59.305	204.153	-0.459	-0.704
-58.290	175.557	0.756	1.086
-57.276	800.000	0.513	1.740
-56.261	-200.000	93.744	520.498
-55.246	566.275	1373.185	3300.661
-54.232	184.634	2614.182	3838.506
-53.217	116.927	2206.010	2683.530
-52.203	46.219	1653.742	1517.861
-51.188	38.198	1385.875	1222.046
-50.173	34.926	1342.571	1163.944
-49.159	54.557	1391.165	1328.190
-48.144	58.402	1409.115	1369.110
-47.130	38.505	1363.787	1204.268
-46.115	35.011	1345.905	1167.169
-45.100	34.741	1341.333	1161.518
-44.086	34.713	1338.869	1159.169
-43.071	34.598	1336.229	1156.139
-42.057	34.562	1334.236	1154.153
-41.042	34.691	1332.482	1153.364
-40.027	34.615	1331.176	1151.730
-39.013	34.717	1329.269	1150.652
-37.998	34.728	1326.875	1148.599
-36.984	34.898	1324.970	1147.928
-35.969	34.837	1323.199	1145.978
-34.954	34.819	1321.515	1144.369
-33.940	34.893	1320.059	1143.503
-32.925	34.872	1319.065	1142.470
-31.911	34.927	1317.478	1141.383
-30.896	34.877	1315.890	1139.661
-29.881	34.939	1314.717	1138.969
-28.867	34.965	1313.157	1137.725
-27.852	34.902	1311.256	1135.659
-26.838	34.834	1310.092	1134.203
-25.823	34.910	1308.951	1133.625
-24.809	34.933	1307.247	1132.237
-23.794	34.878	1305.611	1130.453
-22.779	34.778	1304.981	1129.271
-21.765	34.717	1303.861	1127.897
-20.750	34.862	1301.923	1127.027
-19.736	34.777	1300.781	1125.492
-18.721	34.759	1299.021	1123.824
-17.706	34.814	1297.687	1122.949
-16.692	34.830	1296.879	1122.299
-15.677	34.686	1296.128	1120.760
-14.663	34.681	1294.619	1119.378
-13.648	34.792	1293.162	1118.722
-12.633	34.758	1292.189	1117.642
-11.619	34.687	1291.462	1116.552
-10.604	34.729	1290.689	1116.082
-9.590	34.730	1289.954	1115.409
-8.575	34.734	1288.661	1114.273
-7.560	34.695	1287.973	1113.404
-6.546	34.738	1286.946	1112.724
-5.531	34.623	1286.227	1111.389
-4.517	34.633	1285.581	1110.845
-3.502	34.694	1284.365	1110.102
-2.487	34.743	1283.373	1109.486
-1.473	34.772	1278.972	1105.803
-0.458	33.678	1263.817	1086.396
0.556	28.467	1245.407	1047.606
1.571	25.071	1250.443	1032.234
2.586	24.322	1266.102	1040.697
3.600	23.287	1254.420	1025.018
4.615	16.120	1177.674	923.130
5.629	5.099	1097.158	803.450
6.644	0.446	1075.026	763.658
7.659	0.037	1072.555	759.769
8.673	0.047	1070.771	758.489
9.688	-0.019	1069.738	757.359
10.702	0.394	1068.592	758.557
11.717	7.291	1078.824	800.690
12.731	17.321	1093.761	862.845
13.746	21.580	1098.444	888.119
14.761	21.939	1099.058	890.357
15.775	21.972	1098.166	889.724
16.790	21.735	1097.305	887.748
17.804	21.673	1096.760	886.910
18.819	21.834	1096.388	887.348
19.834	21.892	1096.064	887.302
20.848	21.858	1095.291	886.422
21.863	21.813	1094.824	885.740
22.877	21.777	1094.697	885.380
23.892	21.800	1093.345	884.321
24.907	21.826	1092.810	883.943
25.921	21.750	1091.655	882.547
26.936	21.725	1090.356	881.294
27.950	21.704	1088.533	879.637
28.965	21.614	1086.594	877.538
29.980	21.745	1084.747	876.627
30.994	22.014	1083.832	877.156
32.009	21.763	1083.152	875.274
33.023	21.765	1081.592	873.944
34.038	21.634	1081.499	873.137
35.053	21.865	1080.532	873.433
36.067	21.906	1079.574	872.784
37.082	21.995	1078.656	872.406
38.096	22.092	1077.849	872.158
39.111	22.215	1077.206	872.173
40.126	22.070	1075.511	870.005
41.140	21.615	1074.293	866.688
42.155	21.497	1072.389	864.492
43.169	21.571	1071.712	864.239
44.184	21.623	1070.405	863.362
45.199	21.459	1069.311	861.598
46.213	21.437	1068.598	860.836
47.228	21.659	1067.601	861.047
48.242	21.724	1066.909	860.732
49.257	21.765	1065.983	860.113
50.271	21.910	1065.266	860.170
51.286	21.975	1064.303	859.636
52.301	21.937	1063.993	859.120
53.315	21.980	1062.253	857.850
54.330	21.693	1061.797	856.005
55.344	21.836	1060.881	855.888
56.359	21.820	1060.086	855.091
57.374	21.608	1058.954	853.072
58.388	21.492	1058.617	852.161
59.403	21.519	1057.445	851.273
60.417	21.462	1056.240	849.952
61.432	21.452	1056.079	849.698
62.447	21.696	1055.072	849.997
63.461	21.724	1054.299	849.432
64.476	21.588	1053.319	847.909
65.490	21.507	1052.343	846.659
66.505	21.539	1051.683	846.207
67.520	21.653	1051.020	846.149
68.534	21.355	1049.840	843.684
69.549	21.063	1048.677	841.265
70.563	21.106	1047.678	840.601
71.578	21.230	1046.739	840.370
72.593	20.906	1045.946	838.100
73.607	21.108	1045.657	838.764
74.622	21.388	1044.881	839.410
75.636	21.333	1044.275	838.587
76.651	21.314	1042.998	837.396
77.666	21.328	1042.510	836.998
78.680	21.307	1041.986	836.402
79.695	21.292	1041.856	836.151
80.709	21.528	1040.561	836.167
81.724	21.511	1039.657	835.287
82.739	21.435	1039.193	834.476
83.753	21.725	1038.969	835.605
84.768	22.194	1037.496	836.581
85.782	22.127	1036.331	835.246
86.797	21.991	1035.683	834.007
87.812	21.976	1034.567	832.962
88.826	22.009	1033.596	832.265
89.841	22.063	1032.748	831.764
90.855	22.148	1031.664	831.217
91.870	21.985	1030.916	829.772
92.884	21.961	1029.579	828.507
93.899	21.871	1028.793	827.376
94.914	22.116	1027.709	827.585
95.928	22.000	1026.431	825.938
96.943	21.845	1025.099	824.064
97.957	21.550	1023.872	821.624
98.972	21.270	1023.290	819.767
99.987	21.536	1022.541	820.342
101.001	21.766	1021.695	820.668
102.016	21.734	1021.112	819.976
103.030	21.709	1019.367	818.386
104.045	21.653	1018.599	817.438
105.060	21.396	1017.378	815.185
106.074	21.453	1017.198	815.234
107.089	21.884	1016.370	816.508
108.103	21.791	1015.121	815.000
109.118	21.594	1013.961	813.079
110.133	21.581	1013.299	812.417
111.147	21.349	1011.888	810.137
112.162	21.428	1010.294	809.155
113.176	21.722	1010.180	810.353
114.191	21.393	1009.582	808.283
115.206	21.136	1008.180	805.900
116.220	21.043	1007.577	804.919
117.235	21.272	1006.814	805.293
118.249	21.348	1005.750	804.720
119.264	21.188	1005.031	803.340
120.279	21.273	1004.300	803.074
121.293	21.493	1003.321	803.230
122.308	21.436	1002.324	802.100
123.322	21.259	1001.086	800.229
124.337	21.274	999.622	799.055
125.352	20.699	998.091	795.135
126.366	20.657	997.129	794.106
127.381	21.398	997.381	797.620
128.395	21.603	997.217	798.352
129.410	21.938	995.674	798.570
130.424	21.771	995.089	797.270
131.439	21.850	993.760	796.494
132.454	21.794	993.254	795.763
133.468	21.768	991.782	794.394
134.483	21.807	991.450	794.236
135.497	22.049	990.351	794.382
136.512	22.091	989.484	793.804
137.527	22.040	988.880	793.019
138.541	22.020	988.371	792.450
139.556	22.101	987.532	792.076
140.570	22.218	986.450	791.662
141.585	22.158	985.242	790.351
142.600	22.089	984.642	789.491
143.614	22.315	983.505	789.522
144.629	22.368	983.268	789.501
145.643	22.284	981.520	787.653
146.658	22.044	980.094	785.364
147.673	21.919	978.937	783.812
148.687	21.897	978.140	783.003
149.702	21.848	976.937	781.753
150.716	21.797	976.476	781.086
151.731	21.904	976.108	781.203
152.746	22.094	975.296	781.327
153.760	22.220	974.139	780.893
154.775	22.131	973.857	780.203
155.789	22.241	972.578	779.594
156.804	22.067	972.032	778.320
157.819	22.193	970.924	777.920
158.833	22.306	970.212	777.781
159.848	22.254	969.295	776.747
160.862	22.195	967.492	774.975
161.877	22.202	967.038	774.571
162.892	22.214	966.270	773.939
163.906	22.154	964.826	772.451
164.921	22.126	964.119	771.694
165.935	22.163	963.266	771.107
166.950	22.229	962.487	770.705
167.964	22.225	961.658	769.954
168.979	22.104	960.303	768.272
169.994	22.130	959.068	767.331
171.008	22.200	958.887	767.421
172.023	22.175	957.996	766.531
173.037	21.995	956.647	764.601
174.052	21.868	955.348	762.941
175.067	21.924	955.242	763.034
176.081	22.103	954.205	762.916
177.096	21.927	954.010	761.928
178.110	21.782	952.681	760.171
179.125	21.639	951.782	758.766
180.140	21.556	951.867	758.408
181.154	21.691	951.442	758.588
182.169	21.988	951.431	759.796
183.183	22.160	951.109	760.214
184.198	22.150	949.894	759.135
185.213	22.119	948.734	758.004
186.227	22.216	948.067	757.824
187.242	22.234	947.341	757.254
188.256	22.324	946.587	756.972
189.271	22.283	946.091	756.331
190.286	22.046	944.697	754.133
191.300	21.346	943.821	750.363
192.315	20.694	941.833	745.923
193.329	20.495	941.707	744.904
194.344	21.477	941.996	749.274
195.359	22.021	941.906	751.465
196.373	22.188	941.139	751.501
197.388	21.958	940.974	750.319
198.402	21.989	940.095	749.686
199.417	22.105	939.267	749.452
200.432	21.739	938.488	747.203
201.446	21.664	937.467	746.005
202.461	21.782	936.878	745.972
203.475	20.868	935.065	740.582
204.490	20.000	933.758	735.796
205.504	21.022	934.166	740.391
206.519	21.582	934.161	742.700
207.534	21.600	933.756	742.389
208.548	22.298	932.852	744.557
209.563	21.927	932.410	742.569
210.577	21.845	931.541	741.465
211.592	22.339	931.096	743.133
212.607	22.318	930.231	742.289
213.621	22.316	929.798	741.868
214.636	22.248	929.013	740.892
215.650	22.178	928.246	739.919
216.665	22.270	927.752	739.847
217.680	22.202	926.955	738.861
218.694	21.687	925.651	735.593
219.709	21.775	924.892	735.292
220.723	22.026	924.551	736.010
221.738	22.115	923.817	735.731
222.753	22.071	923.195	734.987
223.767	22.088	922.994	734.836
224.782	22.354	922.371	735.386
225.796	22.431	921.781	735.170
226.811	21.686	920.219	730.756
227.826	21.070	919.342	727.423
228.840	21.281	918.501	727.574
229.855	21.545	917.389	727.729
230.869	21.033	916.688	724.977
231.884	21.290	917.183	726.374
232.899	22.176	916.979	729.832
233.913	21.997	916.152	728.364
234.928	21.989	915.646	727.863
235.942	21.947	915.013	727.121
236.957	21.711	913.914	725.210
237.972	21.632	913.327	724.353
238.986	21.968	912.367	724.915
240.001	21.682	912.350	723.653
241.015	21.854	911.845	723.902
242.030	21.901	911.161	723.489
243.045	22.093	911.107	724.172
244.059	22.350	910.128	724.386
245.074	22.012	909.086	722.104
246.088	21.645	908.436	720.016
247.103	21.960	907.981	720.885
248.117	22.638	908.166	723.751
249.132	22.682	907.561	723.387
250.147	22.772	907.007	723.250
251.161	22.985	906.665	723.785
252.176	22.743	905.930	722.146
253.190	22.986	905.007	722.340
254.205	23.163	904.840	722.865
255.220	23.134	903.789	721.845
256.234	22.936	902.905	720.265
257.249	22.809	902.508	719.366
258.263	22.913	901.522	718.940
259.278	22.966	901.038	718.707
260.293	22.975	900.309	718.100
261.307	22.850	899.505	716.887
262.322	22.665	899.253	715.871
263.336	21.943	896.996	711.087
264.351	20.887	894.835	705.040
265.366	21.096	894.760	705.765
266.380	22.113	895.271	710.216
267.395	22.548	895.119	711.793
268.409	22.433	894.487	710.764
269.424	22.645	893.745	710.966
270.439	22.642	893.482	710.679
271.453	22.785	892.649	710.530
272.468	22.917	892.432	710.829
273.482	22.988	891.690	710.459
274.497	22.641	890.007	707.660
275.512	22.272	889.395	705.633
276.526	22.585	889.828	707.170
277.541	22.906	889.051	707.778
278.555	22.575	887.986	705.541
279.570	22.409	887.223	704.209
280.585	22.651	886.571	704.597
281.599	22.599	885.982	703.859
282.614	22.077	884.382	700.443
283.628	22.071	884.088	700.126
284.643	22.344	884.001	701.083
285.657	21.902	882.813	698.320
286.672	21.730	881.759	696.740
287.687	22.295	881.970	699.092
288.701	22.367	881.202	698.705
289.716	22.150	880.254	697.030
290.730	22.106	879.694	696.351
291.745	21.693	878.964	694.075
292.760	22.065	878.800	695.361
293.774	22.982	879.110	699.170
294.789	23.355	878.723	700.278
295.803	23.242	878.165	699.325
296.818	23.288	877.575	698.974
297.833	22.982	876.137	696.559
298.847	22.848	875.193	695.222
299.862	23.163	875.499	696.645
300.876	23.280	875.296	696.882
301.891	23.346	874.135	696.153
302.906	22.766	873.135	693.018
303.920	22.961	873.055	693.661
304.935	23.263	873.080	694.804
305.949	23.324	872.132	694.225
306.964	22.949	871.440	692.143
307.979	23.085	871.297	692.501
308.993	23.415	870.821	693.355
310.008	23.437	869.990	692.717
311.022	23.171	869.095	690.905
312.037	23.011	869.130	690.249
313.052	22.676	867.826	687.843
314.066	22.069	865.850	683.856
315.081	21.698	865.360	681.963
316.095	22.328	866.056	684.907
317.110	22.857	865.499	686.459
318.125	22.309	863.719	682.864
319.139	21.109	862.350	677.066
320.154	21.108	861.778	676.554
321.168	22.009	862.516	680.569
322.183	22.727	862.668	683.407
323.197	22.762	862.520	683.368
324.212	23.048	862.242	684.192
325.227	23.007	861.523	683.404
326.241	22.963	860.589	682.431
327.256	22.822	860.224	681.537
328.270	22.875	859.377	681.013
329.285	22.576	858.465	679.075
330.300	22.570	857.363	678.121
331.314	22.551	857.368	677.993
332.329	22.951	857.569	679.631
333.343	23.094	857.058	679.713
334.358	23.151	856.354	679.314
335.373	23.214	856.126	679.317
336.387	23.464	856.117	680.207
337.402	23.509	856.024	680.248
338.416	23.441	855.479	679.490
339.431	23.583	855.128	679.697
340.446	23.716	854.500	679.647
341.460	23.615	854.166	678.936
342.475	23.458	853.603	677.826
343.489	23.493	853.052	677.464
344.504	23.898	852.808	678.756
345.519	24.016	852.773	679.119
346.533	23.927	852.269	678.318
347.548	24.017	851.365	677.880
348.562	24.063	850.745	677.502
349.577	23.834	850.525	676.397
350.592	23.926	849.578	675.931
351.606	23.856	848.809	674.994
352.621	23.849	847.944	674.222
353.635	23.764	847.203	673.251
354.650	23.033	845.710	669.239
355.665	22.156	844.405	664.829
356.679	22.648	843.991	666.304
357.694	22.946	843.470	666.958
358.708	22.807	843.494	666.394
359.723	23.161	843.117	667.375
360.738	23.598	842.512	668.480
361.752	23.768	841.997	668.654
362.767	24.038	841.669	669.349
363.781	24.159	841.660	669.738
364.796	24.258	841.220	669.700
365.810	24.461	840.916	670.161
366.825	24.329	840.019	668.895
367.840	23.907	839.421	666.777
368.854	23.490	838.664	664.553
369.869	23.664	838.246	664.813
370.883	23.517	837.887	663.922
371.898	23.664	837.059	663.756
372.913	23.599	837.042	663.440
373.927	23.919	836.087	663.819
374.942	24.001	835.658	663.726
375.956	23.968	835.787	663.648
376.971	24.084	835.357	663.681
377.986	24.313	835.039	664.222
379.000	24.165	834.561	663.229
380.015	24.113	833.637	662.243
381.029	24.233	833.069	662.182
382.044	24.272	832.510	661.823
383.059	24.281	831.977	661.373
384.073	24.390	831.575	661.399
385.088	24.250	831.146	660.482
386.102	24.020	830.145	658.775
387.117	24.098	829.628	658.597
388.132	23.643	828.672	656.096
389.146	23.267	827.222	653.505
390.161	23.557	827.241	654.533
391.175	23.985	827.044	655.894
392.190	23.652	826.212	653.952
393.205	22.343	824.118	647.422
394.219	20.879	822.424	640.657
395.234	20.829	822.052	640.124
396.248	22.433	823.504	647.098
397.263	23.928	824.372	653.222
398.278	23.825	824.002	652.493
399.292	23.457	823.356	650.571
400.307	23.467	822.979	650.251
401.321	23.750	822.395	650.770
402.336	24.002	822.231	651.505
403.350	24.429	822.179	652.968
404.365	24.731	821.811	653.724
405.380	25.067	821.864	654.937
406.394	24.907	821.325	653.866
407.409	24.943	820.785	653.508
408.423	24.834	820.646	652.942
409.438	24.869	819.935	652.447
410.453	24.894	819.691	652.286
411.467	24.761	819.042	651.225
412.482	24.886	818.520	651.210
413.496	24.880	818.412	651.043
414.511	25.004	817.607	650.796
415.526	24.941	816.913	649.956
416.540	24.707	816.661	648.852
417.555	24.488	815.866	647.365
418.569	24.634	815.540	647.581
419.584	24.578	814.862	646.783
420.599	24.461	814.416	645.949
421.613	152.947	1366.394	1791.595
422.628	133.053	1446.809	1791.706
