DTS Sentinel unit serial number:	SN413079Multiplexer serial number:	ORYXHardware model number:	OX4-SRSoftware version number:	ORYX F/W v4.00 Oryx Data Collector v3.7.2.0data status	okinstallation	princeton_trtdifferential loss correction	single-endedforward channel	channel 1reverse channel	N/Adate	2019/09/17time	21:38:35forward acquisition time	60.00reverse acquisition time	0.00gamma	496.2192k internal	0.2339k external	0.2339temperature offset calibration	0.9976default loss term (dB/km)	0.3790temperature slope calibration	1.0000multiplexer offset coefficient	1.0000multiplexer slope coefficient	1.0000fibre end	0.00T internal ref (°C)	26.81T ext. ref 1 (°C)	0.17T ext. ref 2 (°C)	19.11length (m)	temperature (°C)	Stokes	anti-Stokes-747.200	-12.080	0.281	0.185
-746.185	800.000	-0.055	0.232
-745.171	-78.469	-0.373	-0.128
-744.156	-200.000	-0.013	0.194
-743.142	238.411	0.219	0.364
-742.127	800.000	0.092	0.373
-741.112	-200.000	-0.018	0.258
-740.098	-27.219	-0.262	0.153
-739.083	800.000	0.054	-0.172
-738.069	-84.268	-0.367	0.116
-737.054	-38.223	-0.158	0.084
-736.039	-57.173	0.151	-0.067
-735.025	19.720	0.145	-0.117
-734.010	402.855	0.015	-0.032
-732.996	-200.000	-0.035	-0.159
-731.981	-200.000	0.027	-0.348
-730.966	404.112	-0.070	-0.148
-729.952	-82.201	-0.063	-0.021
-728.937	147.987	0.078	-0.105
-727.923	-200.000	-0.106	0.554
-726.908	800.000	-0.018	0.075
-725.894	764.994	-0.033	0.090
-724.879	-6.698	-0.074	-0.050
-723.864	-200.000	0.001	-0.250
-722.850	514.531	0.063	-0.148
-721.835	696.036	0.048	-0.126
-720.821	-124.625	-0.268	0.042
-719.806	-128.721	0.133	-0.019
-718.791	800.000	0.131	0.395
-717.777	-97.378	0.088	0.023
-716.762	-200.000	-0.001	0.036
-715.748	-2.494	0.194	0.136
-714.733	-24.721	0.177	-0.106
-713.718	-1.611	-0.122	-0.086
-712.704	-6.750	0.300	0.204
-711.689	-38.613	-0.117	-0.062
-710.675	-130.408	-0.175	0.024
-709.660	120.077	-0.096	-0.119
-708.645	-200.000	0.007	0.171
-707.631	-120.754	-0.168	-0.028
-706.616	-118.706	0.342	-0.060
-705.602	-16.141	-0.233	0.148
-704.587	0.786	0.197	0.141
-703.572	31.521	0.131	0.113
-702.558	800.000	-0.075	0.214
-701.543	-176.293	0.498	-0.013
-700.529	710.226	0.053	-0.141
-699.514	274.188	-0.124	0.219
-698.499	-145.927	-0.073	0.007
-697.485	296.091	-0.189	-0.347
-696.470	-39.615	-0.156	-0.082
-695.456	194.057	-0.043	-0.065
-694.441	-182.078	0.313	0.006
-693.426	41.188	0.189	-0.171
-692.412	342.358	0.211	-0.412
-691.397	-200.000	-0.007	0.033
-690.383	31.481	0.029	0.025
-689.368	123.352	-0.090	0.113
-688.354	50.949	-0.518	0.492
-687.339	-94.431	0.169	-0.046
-686.324	726.632	-0.116	-0.311
-685.310	-108.821	-0.330	-0.071
-684.295	312.480	-0.143	-0.268
-683.281	-179.197	-0.065	-0.001
-682.266	-114.038	-0.253	0.049
-681.251	119.322	0.262	-0.325
-680.237	41.718	0.291	-0.263
-679.222	-200.000	0.022	-0.097
-678.208	800.000	-0.068	0.294
-677.193	-131.978	-0.311	-0.040
-676.178	800.000	-0.100	-0.316
-675.164	-200.000	0.041	-0.189
-674.149	382.542	0.052	0.107
-673.135	-200.000	0.028	-0.233
-672.120	800.000	0.032	-0.100
-671.105	-200.000	-0.006	-0.123
-670.091	7.623	0.215	-0.161
-669.076	-168.490	0.278	-0.011
-668.062	59.233	-0.103	-0.101
-667.047	-200.000	-0.133	0.000
-666.032	800.000	0.058	-0.188
-665.018	35.130	0.298	-0.261
-664.003	-115.543	-0.272	0.051
-662.989	-166.793	0.192	0.008
-661.974	58.350	-0.217	-0.213
-660.959	144.480	0.019	0.025
-659.945	-98.739	0.142	-0.036
-658.930	126.226	-0.051	-0.064
-657.916	-35.827	0.235	-0.127
-656.901	229.681	0.093	0.153
-655.886	183.460	-0.050	-0.073
-654.872	-77.877	-0.103	0.036
-653.857	-167.025	0.316	0.013
-652.843	-93.470	-0.409	0.113
-651.828	-51.905	-0.167	0.078
-650.814	-158.267	-0.198	-0.012
-649.799	64.103	0.085	-0.086
-648.784	-106.374	-0.199	0.044
-647.770	12.306	-0.251	-0.193
-646.755	-172.326	0.217	-0.007
-645.741	-151.416	0.495	0.037
-644.726	58.955	-0.206	0.202
-643.711	-161.306	-0.035	-0.002
-642.697	-200.000	0.088	-0.388
-641.682	95.937	0.186	-0.213
-640.668	319.882	0.087	0.165
-639.653	-119.213	-0.183	-0.032
-638.638	-66.940	-0.198	-0.078
-637.624	140.831	-0.241	0.319
-636.609	301.518	0.048	0.089
-635.595	-112.612	-0.345	0.069
-634.580	97.665	-0.166	-0.190
-633.565	42.314	-0.276	0.251
-632.551	481.697	-0.077	-0.174
-631.536	-27.929	-0.101	-0.058
-630.522	-200.000	0.000	-0.102
-629.507	303.014	-0.090	-0.166
-628.492	17.105	0.237	0.188
-627.478	-200.000	-0.001	-0.172
-626.463	-182.368	-0.471	-0.009
-625.449	83.873	0.125	0.137
-624.434	-200.000	-0.000	0.132
-623.419	73.706	-0.258	0.270
-622.405	-200.000	0.001	-0.328
-621.390	-121.920	-0.245	-0.040
-620.376	86.142	0.136	0.150
-619.361	204.322	-0.087	0.135
-618.346	262.878	-0.218	-0.378
-617.332	10.810	-0.230	0.175
-616.317	146.192	-0.167	-0.224
-615.303	107.999	0.125	-0.148
-614.288	-149.806	-0.331	-0.026
-613.273	315.822	0.081	-0.153
-612.259	-200.000	-0.007	-0.046
-611.244	-53.945	-0.095	-0.043
-610.230	-87.772	-0.222	-0.067
-609.215	-130.793	-0.137	0.018
-608.201	-200.000	-0.017	-0.274
-607.186	-112.196	0.180	-0.036
-606.171	526.734	-0.041	0.097
-605.157	138.142	-0.186	-0.244
-604.142	-200.000	-0.016	0.087
-603.128	546.904	-0.106	-0.254
-602.113	-136.370	0.376	-0.044
-601.098	80.685	0.094	0.102
-600.084	-200.000	-0.061	-0.285
-599.069	229.555	-0.220	-0.359
-598.055	-200.000	0.007	-0.087
-597.040	-50.132	-0.259	0.122
-596.025	60.850	0.182	-0.180
-595.011	-7.088	0.051	0.034
-593.996	800.000	-0.079	0.218
-592.982	-200.000	-0.010	-0.042
-591.967	-73.283	-0.359	-0.131
-590.952	-15.240	0.334	0.213
-589.938	63.164	-0.121	-0.121
-588.923	-75.678	0.073	0.026
-587.909	83.001	0.321	-0.348
-586.894	-178.071	0.271	-0.006
-585.879	256.699	0.024	0.042
-584.865	302.450	-0.049	0.091
-583.850	-200.000	-0.010	-0.102
-582.836	70.606	-0.163	0.168
-581.821	800.000	-0.040	0.118
-580.806	-15.967	-0.079	-0.050
-579.792	88.165	-0.053	-0.059
-578.777	-79.730	-0.163	0.055
-577.763	178.864	0.240	-0.349
-576.748	-25.232	0.104	0.061
-575.733	800.000	0.116	0.355
-574.719	331.615	-0.128	-0.246
-573.704	-90.436	-0.354	-0.102
-572.690	289.733	0.093	0.168
-571.675	-45.511	0.067	-0.033
-570.661	420.483	-0.040	0.085
-569.646	-200.000	0.023	-0.240
-568.631	240.269	0.154	0.256
-567.617	-200.000	-0.081	0.424
-566.602	-200.000	0.029	0.341
-565.588	800.000	0.029	0.113
-564.573	260.227	-0.077	-0.133
-563.558	16.403	0.278	0.218
-562.544	-200.000	0.012	-0.174
-561.529	-67.903	0.195	-0.076
-560.515	-26.409	-0.164	-0.096
-559.500	800.000	0.050	-0.147
-558.485	106.316	0.026	-0.031
-557.471	-86.144	-0.181	0.056
-556.456	-47.775	0.271	-0.131
-555.442	-156.326	-0.220	0.014
-554.427	92.652	0.203	0.228
-553.412	-200.000	0.014	-0.085
-552.398	-168.208	-0.405	-0.016
-551.383	36.650	0.072	-0.063
-550.369	531.389	0.089	0.210
-549.354	-53.253	0.128	0.058
-548.339	-200.000	0.074	-0.387
-547.325	-172.568	0.197	-0.006
-546.310	11.130	-0.156	0.119
-545.296	-98.336	0.318	0.081
-544.281	-117.331	-0.066	0.012
-543.266	-78.805	0.090	-0.030
-542.252	-110.744	0.259	-0.053
-541.237	-99.333	-0.432	-0.108
-540.223	-117.968	0.281	0.050
-539.208	800.000	-0.067	-0.218
-538.193	73.714	-0.052	0.054
-537.179	-29.333	0.135	-0.077
-536.164	-200.000	0.015	0.186
-535.150	-84.852	-0.084	-0.026
-534.135	90.129	-0.148	0.165
-533.121	30.491	0.151	-0.129
-532.106	72.560	0.147	-0.153
-531.091	-172.363	0.123	0.004
-530.077	-59.359	-0.021	0.009
-529.062	-107.349	-0.269	0.059
-528.048	-49.619	-0.090	-0.043
-527.033	1.259	-0.347	-0.248
-526.018	800.000	-0.051	-0.221
-525.004	-200.000	0.024	0.175
-523.989	149.761	-0.056	0.075
-522.975	193.903	0.167	0.251
-521.960	98.182	-0.182	-0.208
-520.945	92.340	-0.067	0.075
-519.931	-30.786	-0.174	0.098
-518.916	-122.450	0.276	-0.045
-517.902	19.914	-0.357	-0.286
-516.887	67.855	0.163	0.166
-515.872	-63.319	0.362	-0.148
-514.858	53.099	-0.246	0.234
-513.843	-34.822	0.218	-0.119
-512.829	-23.804	-0.165	0.098
-511.814	-79.675	-0.488	0.163
-510.799	-68.202	-0.293	0.113
-509.785	43.230	0.154	-0.139
-508.770	-200.000	-0.002	-0.090
-507.756	-79.325	-0.243	0.082
-506.741	-200.000	0.038	-0.221
-505.726	-156.304	-0.055	-0.003
-504.712	81.038	-0.198	0.212
-503.697	-36.541	-0.223	0.119
-502.683	800.000	-0.086	0.236
-501.668	-200.000	-0.071	0.374
-500.653	334.037	0.101	-0.194
-499.639	-200.000	0.024	-0.254
-498.624	-64.107	0.273	-0.111
-497.610	-102.412	0.316	-0.075
-496.595	-67.948	-0.154	0.060
-495.581	-95.659	0.110	-0.029
-494.566	-176.584	0.150	-0.004
-493.551	-4.538	0.174	-0.120
-492.537	800.000	0.133	0.473
-491.522	46.077	-0.133	0.122
-490.508	-31.026	-0.150	0.084
-489.493	136.118	0.027	0.034
-488.478	-200.000	0.025	-0.462
-487.464	-24.907	-0.341	-0.201
-486.449	71.568	-0.031	0.032
-485.435	-51.291	0.056	-0.026
-484.420	-126.514	0.158	0.023
-483.405	-198.920	0.159	0.001
-482.391	-200.000	-0.037	0.291
-481.376	800.000	0.019	0.072
-480.362	105.401	-0.129	-0.151
-479.347	-188.368	-0.188	0.002
-478.332	-200.000	-0.006	0.278
-477.318	-21.908	-0.257	-0.155
-476.303	-53.655	0.191	-0.087
-475.289	-50.528	0.162	-0.076
-474.274	-200.000	0.041	-0.280
-473.259	652.130	0.065	-0.165
-472.245	82.264	0.132	0.142
-471.230	800.000	0.075	0.211
-470.216	-158.876	-0.080	0.004
-469.201	-41.410	-0.108	0.055
-468.186	116.031	-0.122	0.148
-467.172	-94.680	0.229	-0.062
-466.157	-73.918	-0.122	0.044
-465.143	-78.401	-0.196	-0.067
-464.128	-143.341	0.211	0.020
-463.113	-200.000	0.002	0.364
-462.099	-200.000	-0.007	0.129
-461.084	-200.000	0.013	0.058
-460.070	57.142	0.057	-0.055
-459.055	261.471	0.139	0.238
-458.040	71.612	0.272	-0.280
-457.026	296.826	0.188	-0.343
-456.011	12.407	0.186	-0.142
-454.997	-22.501	-0.152	-0.091
-453.982	-200.000	-0.004	-0.101
-452.968	800.000	-0.186	-0.540
-451.953	433.555	0.109	0.234
-450.938	137.386	0.165	0.214
-449.924	190.428	-0.186	0.276
-448.909	125.682	0.166	-0.208
-447.895	-160.536	0.200	0.011
-446.880	-31.466	-0.209	0.117
-445.865	390.601	0.116	-0.238
-444.851	-200.000	0.001	0.124
-443.836	320.450	0.043	0.082
-442.822	-146.788	0.121	0.010
-441.807	-200.000	0.007	0.189
-440.792	30.984	-0.056	0.048
-439.778	-75.373	-0.429	-0.151
-438.763	800.000	0.090	-0.278
-437.749	800.000	0.059	-0.249
-436.734	-92.625	0.349	0.097
-435.719	-80.607	0.190	-0.063
-434.705	-148.808	-0.104	-0.008
-433.690	-103.685	0.224	0.052
-432.676	-200.000	0.045	-0.258
-431.661	-200.000	0.021	0.099
-430.646	17.235	-0.079	0.062
-429.632	40.999	-0.105	0.094
-428.617	44.418	-0.276	-0.251
-427.603	-200.000	0.038	-0.192
-426.588	27.439	0.079	0.066
-425.573	-200.000	-0.010	-0.050
-424.559	-200.000	-0.008	0.215
-423.544	800.000	-0.035	0.138
-422.530	-169.649	0.360	-0.013
-421.515	800.000	-0.072	-0.296
-420.500	-102.434	-0.149	0.035
-419.486	35.977	0.088	0.077
-418.471	505.664	-0.082	0.188
-417.457	-60.228	-0.270	0.114
-416.442	404.667	0.036	-0.075
-415.428	-200.000	-0.009	0.066
-414.413	-13.154	0.061	0.039
-413.398	-9.881	0.096	-0.064
-412.384	-32.795	-0.278	0.153
-411.369	158.775	-0.102	0.141
-410.355	-93.486	0.284	-0.078
-409.340	204.991	0.030	0.046
-408.325	-65.836	0.075	0.030
-407.311	800.000	0.002	-0.007
-406.296	22.919	0.185	-0.150
-405.282	-92.164	-0.425	-0.119
-404.267	130.686	0.055	-0.069
-403.252	-144.392	0.267	0.025
-402.238	2.772	0.276	-0.198
-401.223	157.115	0.069	-0.095
-400.209	-111.925	-0.199	-0.040
-399.194	338.629	-0.022	0.043
-398.179	209.543	-0.054	-0.083
-397.165	-200.000	0.007	0.201
-396.150	-41.623	-0.087	0.044
-395.136	800.000	-0.086	-0.319
-394.121	332.513	0.156	-0.298
-393.106	-119.028	0.037	-0.006
-392.092	-138.446	-0.212	0.023
-391.077	66.660	0.095	0.095
-390.063	-183.046	0.348	-0.006
-389.048	-42.925	0.257	0.129
-388.033	94.620	0.167	-0.188
-387.019	-200.000	-0.007	-0.070
-386.004	800.000	0.031	-0.088
-384.990	36.805	-0.240	-0.210
-383.975	-55.169	-0.213	0.095
-382.960	-115.775	0.021	-0.004
-381.946	-110.698	-0.114	0.023
-380.931	274.954	-0.063	0.110
-379.917	-200.000	-0.019	0.251
-378.902	-104.066	-0.275	0.063
-377.888	38.658	0.344	-0.303
-376.873	229.574	0.125	-0.202
-375.858	-200.000	0.005	0.296
-374.844	31.284	-0.245	0.208
-373.829	548.952	-0.050	0.118
-372.815	-200.000	-0.002	-0.066
-371.800	-42.507	-0.089	-0.045
-370.785	-22.246	0.186	0.111
-369.771	310.452	-0.229	-0.423
-368.756	610.965	0.146	-0.360
-367.742	-200.000	0.004	-0.326
-366.727	-129.306	0.163	0.022
-365.712	-103.068	0.228	0.053
-364.698	-116.193	-0.072	-0.013
-363.683	368.471	0.029	0.058
-362.669	-29.005	0.170	0.097
-361.654	-154.625	0.120	-0.008
-360.639	469.013	-0.078	-0.174
-359.625	685.050	0.080	0.206
-358.610	572.188	-0.091	0.220
-357.596	-200.000	0.009	0.173
-356.581	-88.401	-0.173	0.051
-355.566	-119.266	0.258	0.044
-354.552	247.828	-0.282	-0.472
-353.537	800.000	0.082	-0.325
-352.523	75.518	0.153	0.159
-351.508	800.000	0.040	-0.171
-350.493	800.000	-0.013	-0.051
-349.479	-200.000	-0.007	0.237
-348.464	165.736	-0.226	0.316
-347.450	81.728	0.058	-0.062
-346.435	-108.836	-0.098	-0.021
-345.420	-115.423	-0.042	0.008
-344.406	-49.819	0.222	-0.104
-343.391	6.691	0.208	0.153
-342.377	-200.000	0.011	-0.112
-341.362	-200.000	0.008	0.462
-340.348	-200.000	-0.021	0.134
-339.333	-45.851	0.132	0.065
-338.318	35.276	0.249	-0.216
-337.304	207.162	0.007	-0.011
-336.289	-109.328	-0.207	0.043
-335.275	265.946	-0.132	-0.227
-334.260	-200.000	0.014	0.160
-333.245	-200.000	-0.004	0.137
-332.231	13.923	-0.246	0.189
-331.216	-21.675	0.183	-0.110
-330.202	-146.408	-0.392	-0.034
-329.187	94.877	0.234	-0.262
-328.172	35.087	0.003	0.003
-327.158	-200.000	-0.034	0.156
-326.143	202.223	-0.136	0.207
-325.129	800.000	0.044	0.137
-324.114	-200.000	-0.024	-0.134
-323.099	-148.886	0.222	-0.018
-322.085	-52.084	-0.424	0.194
-321.070	-200.000	-0.019	0.160
-320.056	-75.722	0.304	0.106
-319.041	-200.000	0.037	0.230
-318.026	-41.712	-0.126	0.064
-317.012	87.070	0.095	0.104
-315.997	-171.447	-0.482	-0.016
-314.983	-47.997	-0.261	0.125
-313.968	-196.362	-0.094	0.001
-312.953	-186.515	0.593	-0.008
-311.939	-122.746	0.126	0.020
-310.924	35.715	0.102	0.088
-309.910	191.955	0.146	-0.217
-308.895	517.052	-0.101	0.232
-307.880	800.000	-0.071	-0.209
-306.866	-142.075	0.029	0.003
-305.851	-132.550	-0.251	0.032
-304.837	117.821	0.216	-0.263
-303.822	800.000	-0.011	-0.036
-302.807	-25.083	-0.075	0.044
-301.793	-200.000	0.014	-0.204
-300.778	145.009	-0.121	-0.159
-299.764	-41.265	0.229	-0.117
-298.749	187.306	0.072	-0.105
-297.735	80.345	0.181	-0.193
-296.720	340.837	-0.116	0.223
-295.705	568.380	-0.020	0.047
-294.691	-55.141	0.179	-0.079
-293.676	-122.309	0.236	-0.038
-292.662	369.310	-0.143	-0.286
-291.647	209.461	0.205	-0.316
-290.632	-132.778	0.301	-0.038
-289.618	-121.470	0.061	-0.010
-288.603	3.671	-0.285	0.205
-287.589	-156.832	0.335	-0.020
-286.574	-60.318	0.439	0.184
-285.559	-99.309	0.210	0.052
-284.545	-104.652	-0.164	-0.037
-283.530	5.567	0.117	-0.085
-282.516	669.375	-0.065	0.167
-281.501	-159.987	0.103	0.006
-280.486	248.067	0.133	0.222
-279.472	559.378	-0.147	0.349
-278.457	800.000	-0.015	-0.064
-277.443	137.674	-0.235	0.303
-276.428	-200.000	0.021	-0.346
-275.413	800.000	-0.074	-0.229
-274.399	14.560	-0.085	-0.065
-273.384	-200.000	-0.003	0.138
-272.370	-102.338	0.327	0.077
-271.355	-200.000	0.030	0.274
-270.340	-121.317	-0.121	0.020
-269.326	46.657	0.066	0.060
-268.311	-200.000	0.023	0.302
-267.297	-200.000	0.000	0.401
-266.282	321.701	-0.143	0.269
-265.267	119.969	-0.275	0.336
-264.253	-114.420	0.139	-0.026
-263.238	-39.369	-0.377	-0.195
-262.224	-200.000	-0.006	0.336
-261.209	54.068	-0.220	0.208
-260.195	240.658	-0.135	-0.222
-259.180	-84.970	0.183	-0.056
-258.165	10.984	-0.137	-0.103
-257.151	-84.593	0.341	-0.106
-256.136	-200.000	0.026	-0.226
-255.122	-161.228	0.198	0.010
-254.107	38.980	-0.133	0.117
-253.092	-45.060	0.040	0.020
-252.078	36.271	-0.160	-0.139
-251.063	117.810	0.181	-0.220
-250.049	23.806	-0.207	-0.167
-249.034	-200.000	-0.018	-0.191
-248.019	-98.059	-0.174	0.044
-247.005	-200.000	-0.025	-0.144
-245.990	359.402	-0.087	-0.171
-244.976	31.679	-0.089	-0.075
-243.961	-101.796	0.082	-0.020
-242.946	-54.310	0.271	-0.121
-241.932	619.484	-0.059	0.145
-240.917	800.000	0.102	0.316
-239.903	58.381	-0.146	0.141
-238.888	800.000	0.041	-0.129
-237.873	140.242	0.006	-0.007
-236.859	389.248	-0.028	0.057
-235.844	296.504	-0.086	-0.155
-234.830	-74.946	0.323	-0.114
-233.815	-127.646	0.216	-0.031
-232.800	162.910	0.048	0.066
-231.786	-110.304	-0.295	0.060
-230.771	-165.325	0.272	0.012
-229.757	-200.000	0.010	0.089
-228.742	-8.941	0.326	0.215
-227.727	-51.621	-0.171	-0.078
-226.713	-115.378	0.177	-0.033
-225.698	447.927	-0.079	0.171
-224.684	-119.215	-0.203	0.035
-223.669	-91.700	0.331	-0.092
-222.655	-200.000	0.037	0.250
-221.640	-200.000	-0.033	0.400
-220.625	86.957	0.186	0.202
-219.611	-146.384	-0.610	0.052
-218.596	800.000	0.064	0.224
-217.582	25.535	-0.168	-0.137
-216.567	23.296	0.151	-0.122
-215.552	80.936	-0.206	-0.219
-214.538	170.733	0.193	-0.271
-213.523	87.090	-0.139	-0.151
-212.509	-142.628	0.265	0.025
-211.494	-39.239	0.034	-0.017
-210.479	-30.706	-0.457	0.254
-209.465	-191.410	0.237	0.002
-208.450	293.855	-0.072	0.129
-207.436	5.678	0.165	0.120
-206.421	6.809	-0.291	-0.213
-205.406	-115.127	-0.230	0.043
-204.392	-200.000	-0.015	0.201
-203.377	-131.742	0.495	0.064
-202.363	-11.053	0.077	-0.050
-201.348	468.433	-0.076	-0.168
-200.333	800.000	-0.089	-0.253
-199.319	-200.000	-0.118	0.531
-198.304	-109.156	0.352	0.074
-197.290	249.127	-0.041	0.069
-196.275	800.000	0.075	0.299
-195.260	109.765	0.173	0.204
-194.246	-53.018	-0.123	-0.055
-193.231	-52.959	0.236	0.106
-192.217	800.000	-0.085	0.276
-191.202	24.322	0.152	-0.123
-190.187	-123.761	-0.147	0.023
-189.173	-114.704	-0.325	-0.061
-188.158	-153.594	0.165	0.011
-187.144	-200.000	-0.012	-0.148
-186.129	-200.000	-0.016	-0.122
-185.114	118.997	0.129	0.157
-184.100	-35.712	0.243	-0.129
-183.085	376.533	-0.023	-0.046
-182.071	-200.000	-0.020	-0.100
-181.056	-200.000	-0.031	-0.518
-180.042	676.193	0.105	0.269
-179.027	-16.512	-0.360	0.224
-178.012	152.267	-0.176	0.235
-176.998	37.803	-0.106	-0.092
-175.983	800.000	0.117	-0.323
-174.969	-200.000	0.025	0.348
-173.954	258.798	-0.124	0.210
-172.939	-200.000	0.014	0.153
-171.925	-56.937	-0.208	0.090
-170.910	-200.000	-0.047	0.393
-169.896	800.000	-0.040	-0.165
-168.881	-163.385	-0.035	-0.002
-167.866	-2.196	0.014	0.010
-166.852	187.380	-0.094	-0.137
-165.837	-119.554	0.137	0.023
-164.823	-105.348	0.184	-0.041
-163.808	91.464	0.097	-0.107
-162.793	-200.000	-0.025	-0.272
-161.779	38.036	0.059	0.052
-160.764	22.500	0.156	-0.125
-159.750	179.532	-0.169	0.242
-158.735	-162.895	0.513	0.024
-157.720	161.465	-0.300	0.412
-156.706	106.715	0.182	-0.212
-155.691	115.944	-0.171	-0.205
-154.677	-146.856	-0.171	-0.014
-153.662	226.000	0.156	-0.247
-152.647	131.239	0.020	0.025
-151.633	-200.000	-0.009	0.092
-150.618	-125.418	0.144	0.022
-149.604	-200.000	0.007	-0.231
-148.589	785.968	0.231	-0.620
-147.574	163.543	-0.190	0.261
-146.560	-4.029	-0.313	-0.212
-145.545	-200.000	0.003	0.072
-144.531	-125.492	-0.186	0.028
-143.516	69.030	0.187	-0.189
-142.502	40.468	0.282	-0.249
-141.487	800.000	-0.043	-0.149
-140.472	-113.759	0.197	0.038
-139.458	800.000	0.050	-0.159
-138.443	-175.015	-0.245	-0.007
-137.429	-68.385	-0.125	-0.047
-136.414	-99.526	-0.222	0.055
-135.399	-200.000	-0.014	0.292
-134.385	-200.000	0.012	-0.280
-133.370	382.275	-0.269	-0.540
-132.356	51.360	-0.072	0.067
-131.341	144.622	-0.081	-0.107
-130.326	-165.835	-0.116	0.005
-129.312	-200.000	0.088	0.395
-128.297	32.886	-0.124	-0.105
-127.283	-56.938	-0.053	0.023
-126.268	-89.323	0.225	-0.065
-125.253	-130.580	0.187	-0.025
-124.239	139.614	0.194	-0.250
-123.224	179.084	0.200	0.286
-122.210	-144.766	-0.142	0.013
-121.195	129.611	0.063	0.079
-120.180	800.000	-0.040	0.121
-119.166	70.439	-0.051	-0.052
-118.151	156.503	0.162	-0.219
-117.137	249.154	0.090	-0.149
-116.122	125.926	0.194	0.240
-115.107	-187.626	-0.141	0.002
-114.093	-11.747	-0.064	0.041
-113.078	1.717	0.363	0.256
-112.064	-72.697	-0.086	0.031
-111.049	15.382	-0.163	0.125
-110.034	82.599	0.080	0.085
-109.020	184.779	-0.230	0.333
-108.005	428.324	0.088	0.185
-106.991	-77.257	-0.163	0.056
-105.976	-200.000	-0.028	-0.127
-104.962	78.930	-0.152	-0.159
-103.947	15.971	-0.255	-0.196
-102.932	-52.492	-0.100	0.045
-101.918	-200.000	-0.009	0.221
-100.903	-74.740	-0.266	0.094
-99.889	87.016	0.105	0.113
-98.874	-172.221	0.292	-0.009
-97.859	12.194	0.071	-0.053
-96.845	25.558	0.275	0.224
-95.830	-57.054	-0.113	-0.049
-94.816	53.256	-0.189	0.177
-93.801	-200.000	-0.037	0.172
-92.786	-200.000	-0.012	-0.365
-91.772	-13.517	0.248	-0.157
-90.757	-200.000	-0.012	-0.198
-89.743	800.000	0.053	-0.154
-88.728	374.541	0.070	0.139
-87.713	639.873	0.144	0.358
-86.699	-108.467	0.063	0.013
-85.684	-126.399	0.124	-0.018
-84.670	129.510	-0.156	0.195
-83.655	800.000	0.058	0.166
-82.640	-35.937	0.180	0.095
-81.626	192.488	-0.284	-0.418
-80.611	30.850	-0.101	-0.085
-79.597	41.840	-0.031	-0.027
-78.582	138.233	0.216	-0.277
-77.567	-71.330	0.320	-0.117
-76.553	-126.914	-0.137	-0.020
-75.538	-200.000	0.033	-0.331
-74.524	793.049	0.090	0.242
-73.509	-200.000	0.002	0.164
-72.494	536.382	-0.061	0.141
-71.480	-80.091	-0.367	-0.120
-70.465	800.000	0.025	0.082
-69.451	-200.000	0.015	0.209
-68.436	152.083	-0.078	-0.104
-67.422	56.212	0.067	0.064
-66.407	-200.000	-0.009	0.077
-65.392	-200.000	-0.020	-0.625
-64.378	-116.699	0.391	0.070
-63.363	800.000	-0.076	-0.206
-62.349	42.509	-0.277	-0.246
-61.334	48.082	-1.128	-1.029
-60.319	406.583	0.314	0.648
-59.305	270.960	-0.587	-1.009
-58.290	389.568	0.720	1.456
-57.276	486.310	0.620	1.379
-56.261	-200.000	113.670	621.786
-55.246	450.102	1489.316	3207.734
-54.232	152.370	2646.731	3527.113
-53.217	98.919	2123.078	2392.777
-52.203	37.681	1573.033	1363.153
-51.188	30.287	1319.111	1099.452
-50.173	27.408	1280.756	1050.850
-49.159	51.480	1341.156	1243.669
-48.144	50.317	1354.370	1248.993
-47.130	30.241	1307.823	1089.599
-46.115	26.961	1289.436	1055.209
-45.100	26.628	1284.872	1049.499
-44.086	26.625	1282.607	1047.593
-43.071	26.669	1279.804	1045.513
-42.057	26.747	1277.722	1044.222
-41.042	26.731	1276.293	1042.923
-40.027	26.644	1275.396	1041.649
-39.013	26.678	1272.962	1039.814
-37.998	26.679	1271.207	1038.344
-36.984	26.713	1269.571	1037.160
-35.969	26.870	1267.383	1036.226
-34.954	26.739	1266.153	1034.435
-33.940	26.870	1264.654	1033.917
-32.925	26.751	1263.440	1032.204
-31.911	26.787	1261.946	1031.149
-30.896	26.865	1260.560	1030.415
-29.881	26.940	1259.216	1029.704
-28.867	26.869	1258.056	1028.309
-27.852	26.868	1257.089	1027.474
-26.838	26.926	1255.259	1026.266
-25.823	26.841	1254.331	1024.988
-24.809	27.038	1252.614	1024.656
-23.794	26.951	1251.138	1022.914
-22.779	26.867	1250.316	1021.729
-21.765	26.865	1249.024	1020.621
-20.750	26.909	1247.467	1019.558
-19.736	26.795	1246.607	1018.176
-18.721	26.848	1245.226	1017.300
-17.706	26.733	1244.393	1015.936
-16.692	26.954	1242.692	1015.747
-15.677	26.867	1241.693	1014.399
-14.663	26.803	1240.715	1013.202
-13.648	26.760	1239.671	1012.071
-12.633	26.830	1239.048	1011.911
-11.619	26.755	1238.038	1010.630
-10.604	26.790	1236.877	1009.837
-9.590	26.701	1235.997	1008.586
-8.575	26.791	1235.250	1008.436
-7.560	26.678	1234.705	1007.320
-6.546	26.748	1233.877	1006.994
-5.531	26.769	1233.010	1006.365
-4.517	26.733	1232.033	1005.329
-3.502	26.747	1231.616	1005.024
-2.487	26.721	1230.839	1004.209
-1.473	26.575	1226.110	999.501
-0.458	24.688	1210.628	976.547
0.556	19.018	1194.090	936.234
1.571	15.010	1200.161	918.944
2.586	13.939	1214.843	924.143
3.600	13.924	1202.617	914.679
4.615	10.223	1133.471	842.775
5.629	3.619	1062.710	757.756
6.644	0.358	1045.003	729.307
7.659	0.180	1042.728	726.797
8.673	-0.003	1041.999	725.340
9.688	0.155	1040.437	724.950
10.702	0.393	1038.070	724.377
11.717	4.318	1043.184	746.803
12.731	11.573	1052.320	788.398
13.746	16.185	1057.750	814.719
14.761	16.838	1058.308	818.229
15.775	16.025	1056.362	812.734
16.790	15.122	1054.308	806.733
17.804	14.458	1053.346	802.730
18.819	14.021	1051.899	799.453
19.834	13.914	1050.910	798.116
20.848	13.641	1050.248	796.235
21.863	13.283	1049.508	793.882
22.877	13.206	1048.820	792.924
23.892	13.185	1047.718	791.920
24.907	13.135	1047.192	791.209
25.921	13.218	1046.590	791.082
26.936	13.285	1045.488	790.499
27.950	13.220	1045.211	789.913
28.965	13.233	1043.693	788.758
29.980	13.359	1042.671	788.516
30.994	13.468	1041.044	787.734
32.009	13.362	1040.764	786.947
33.023	13.368	1039.323	785.817
34.038	13.329	1038.410	784.874
35.053	13.413	1036.995	784.133
36.067	13.413	1036.323	783.551
37.082	13.359	1035.849	782.871
38.096	13.369	1035.560	782.632
39.111	13.490	1034.257	782.146
40.126	13.374	1033.010	780.587
41.140	13.248	1032.215	779.323
42.155	13.238	1030.665	778.039
43.169	13.081	1030.161	776.848
44.184	13.156	1028.993	776.253
45.199	13.179	1027.650	775.277
46.213	13.092	1027.196	774.461
47.228	13.217	1025.644	773.806
48.242	13.322	1024.632	773.467
49.257	13.355	1023.453	772.664
50.271	13.312	1022.726	771.842
51.286	13.355	1021.978	771.410
52.301	13.358	1021.410	770.929
53.315	13.331	1019.993	769.664
54.330	13.207	1019.275	768.481
55.344	13.171	1018.355	767.548
56.359	13.223	1017.586	767.142
57.374	13.160	1016.737	766.144
58.388	13.089	1015.674	764.945
59.403	13.215	1014.867	764.852
60.417	13.125	1014.029	763.737
61.432	13.133	1013.365	763.207
62.447	13.159	1012.447	762.570
63.461	13.018	1011.739	761.317
64.476	12.953	1011.152	760.510
65.490	13.092	1009.966	760.190
66.505	13.204	1009.055	759.950
67.520	13.237	1008.293	759.464
68.534	13.205	1007.753	758.842
69.549	13.181	1007.049	758.136
70.563	13.187	1006.351	757.570
71.578	13.179	1005.302	756.676
72.593	13.039	1004.525	755.382
73.607	13.122	1003.902	755.226
74.622	12.985	1003.847	754.494
75.636	13.010	1002.323	753.396
76.651	12.961	1002.044	752.894
77.666	13.017	1002.009	753.058
78.680	13.019	1000.636	751.966
79.695	13.246	999.539	752.109
80.709	13.112	999.580	751.462
81.724	13.157	998.761	750.985
82.739	13.053	998.058	749.921
83.753	13.178	997.466	749.976
84.768	13.260	996.442	749.512
85.782	13.323	995.141	748.753
86.797	13.229	994.491	747.773
87.812	13.378	993.779	747.842
88.826	13.269	992.773	746.526
89.841	13.263	992.146	745.962
90.855	13.388	991.285	745.812
91.870	13.379	990.187	744.881
92.884	13.190	989.793	743.669
93.899	13.343	988.865	743.594
94.914	13.434	987.595	742.978
95.928	13.440	986.923	742.438
96.943	13.440	986.633	742.150
97.957	13.463	985.172	741.089
98.972	13.387	984.122	739.894
99.987	13.491	983.241	739.630
101.001	13.308	982.714	738.355
102.016	13.514	981.462	738.263
103.030	13.382	980.789	737.106
104.045	13.382	980.394	736.742
105.060	13.282	979.464	735.534
106.074	13.320	977.997	734.538
107.089	13.140	977.588	733.367
108.103	13.290	976.397	733.073
109.118	13.162	975.813	732.002
110.133	13.302	974.545	731.604
111.147	13.212	973.900	730.656
112.162	13.276	973.121	730.290
113.176	13.248	972.741	729.817
114.191	13.370	971.348	729.245
115.206	13.431	970.784	729.027
116.220	13.351	970.143	728.131
117.235	13.286	969.294	727.144
118.249	13.326	968.518	726.673
119.264	13.387	967.817	726.348
120.279	13.253	966.772	724.913
121.293	13.246	966.097	724.311
122.308	13.220	965.452	723.648
123.322	13.280	964.370	723.036
124.337	13.181	963.259	721.709
125.352	13.271	962.128	721.189
126.366	13.114	961.278	719.806
127.381	13.200	960.327	719.402
128.395	13.199	959.615	718.802
129.410	13.271	958.413	718.152
130.424	13.413	957.497	718.019
131.439	13.324	957.068	717.245
132.454	13.263	956.343	716.375
133.468	13.384	955.435	716.155
134.483	13.389	954.434	715.362
135.497	13.293	953.837	714.437
136.512	13.173	953.345	713.487
137.527	13.392	952.041	713.393
138.541	13.306	951.608	712.634
139.556	13.350	950.892	712.223
140.570	13.409	949.946	711.708
141.585	13.460	949.034	711.178
142.600	13.526	947.873	710.530
143.614	13.535	947.140	709.954
144.629	13.469	946.665	709.255
145.643	13.463	945.766	708.494
146.658	13.462	944.773	707.681
147.673	13.510	943.671	706.998
148.687	13.418	942.863	705.940
149.702	13.387	942.202	705.251
150.716	13.375	941.483	704.597
151.731	13.525	940.669	704.564
152.746	13.451	940.329	703.933
153.760	13.551	939.598	703.747
154.775	13.427	939.692	703.229
155.789	13.567	938.302	702.720
156.804	13.529	937.560	701.941
157.819	13.612	937.213	701.973
158.833	13.557	936.768	701.343
159.848	13.627	935.420	700.568
160.862	13.558	934.685	699.662
161.877	13.643	933.265	698.896
162.892	13.600	932.589	698.150
163.906	13.542	931.831	697.274
164.921	13.611	931.073	696.934
165.935	13.620	930.067	696.159
166.950	13.563	929.427	695.377
167.964	13.626	928.748	695.074
168.979	13.639	927.793	694.354
169.994	13.704	926.353	693.487
171.008	13.582	926.053	692.691
172.023	13.859	925.005	692.998
173.037	13.786	924.752	692.444
174.052	13.749	923.680	691.426
175.067	13.781	922.923	690.931
176.081	13.682	922.669	690.267
177.096	13.612	922.285	689.629
178.110	13.771	921.277	689.474
179.125	13.676	921.190	688.954
180.140	13.813	920.631	689.042
181.154	13.810	920.335	688.747
182.169	13.807	919.663	688.173
183.183	13.805	919.125	687.703
184.198	13.935	917.590	687.031
185.213	13.947	917.540	686.982
186.227	13.833	916.895	685.965
187.242	13.873	916.533	685.801
188.256	13.963	915.668	685.463
189.271	13.817	914.927	684.245
190.286	13.905	913.781	683.691
191.300	13.721	913.473	682.644
192.315	13.676	912.711	681.826
193.329	13.633	912.812	681.664
194.344	13.861	911.484	681.548
195.359	13.905	910.619	681.025
196.373	13.869	910.531	680.748
197.388	14.027	909.943	680.897
198.402	14.103	909.044	680.473
199.417	14.090	908.528	679.975
200.432	14.154	908.203	679.932
201.446	14.206	907.616	679.647
202.461	14.235	907.222	679.411
203.475	14.259	906.457	678.873
204.490	14.140	905.631	677.712
205.504	14.082	905.364	677.214
206.519	14.117	904.494	676.648
207.534	14.075	903.572	675.728
208.548	14.144	903.086	675.583
209.563	14.206	902.243	675.146
210.577	14.164	901.397	674.283
211.592	14.316	900.751	674.355
212.607	14.309	900.271	673.907
213.621	14.336	899.529	673.400
214.636	14.296	898.905	672.713
215.650	14.277	898.392	672.194
216.665	14.230	897.938	671.602
217.680	14.497	896.844	671.801
218.694	14.336	896.520	670.850
219.709	14.314	896.070	670.367
220.723	14.368	895.001	669.724
221.738	14.366	894.250	669.095
222.753	14.314	894.062	668.687
223.767	14.474	893.206	668.627
224.782	14.467	892.447	667.975
225.796	14.457	892.390	667.833
226.811	14.487	891.330	667.100
227.826	14.555	890.908	666.995
228.840	14.654	889.773	666.481
229.855	14.544	889.226	665.575
230.869	14.498	888.299	664.641
231.884	14.514	887.581	664.107
232.899	14.541	886.981	663.707
233.913	14.464	886.470	662.958
234.928	14.412	886.150	662.455
235.942	14.461	885.566	662.154
236.957	14.460	884.974	661.647
237.972	14.499	884.200	661.168
238.986	14.593	883.287	660.799
240.001	14.491	882.948	660.081
241.015	14.565	882.169	659.736
242.030	14.601	881.173	659.073
243.045	14.457	881.318	658.555
244.059	14.552	880.450	658.222
245.074	14.502	879.711	657.415
246.088	14.836	879.099	658.215
247.103	14.748	878.391	657.281
248.117	14.918	877.784	657.434
249.132	14.867	877.384	656.876
250.147	14.830	876.667	656.138
251.161	15.055	876.090	656.529
252.176	14.889	875.610	655.461
253.190	14.912	874.826	654.905
254.205	15.009	874.335	654.860
255.220	14.962	873.583	654.055
256.234	15.172	872.848	654.267
257.249	15.078	872.415	653.518
258.263	15.073	871.515	652.767
259.278	14.986	870.804	651.839
260.293	15.139	870.342	652.031
261.307	15.113	870.020	651.631
262.322	15.169	869.435	651.351
263.336	15.051	868.720	650.301
264.351	15.133	867.886	649.938
265.366	15.283	867.003	649.800
266.380	15.284	866.650	649.480
267.395	15.159	866.186	648.592
268.409	15.286	865.431	648.460
269.424	15.345	864.185	647.697
270.439	15.127	863.799	646.507
271.453	15.244	863.264	646.502
272.468	15.143	862.661	645.605
273.482	15.217	862.158	645.455
274.497	15.129	861.415	644.503
275.512	15.252	861.054	644.650
276.526	15.210	860.773	644.222
277.541	15.300	860.452	644.269
278.555	15.349	859.883	643.974
279.570	15.416	859.028	643.534
280.585	15.440	858.175	642.932
281.599	15.325	857.135	641.654
282.614	15.580	856.551	642.135
283.628	15.322	856.218	640.844
284.643	15.572	855.410	641.134
285.657	15.501	854.604	640.203
286.672	15.369	854.237	639.370
287.687	15.393	853.790	639.070
288.701	15.513	853.217	639.040
289.716	15.520	852.647	638.586
290.730	15.479	852.204	638.039
291.745	15.525	851.338	637.512
292.760	15.531	850.959	637.195
293.774	15.559	849.845	636.407
294.789	15.658	849.520	636.484
295.803	15.759	848.795	636.268
296.818	15.581	847.831	634.816
297.833	15.654	847.057	634.455
298.847	15.765	846.613	634.486
299.862	15.703	846.213	633.894
300.876	15.724	845.748	633.568
301.891	15.573	845.392	632.679
302.906	15.744	844.765	632.795
303.920	15.775	844.357	632.551
304.935	15.741	843.975	632.081
305.949	15.843	843.023	631.695
306.964	15.833	842.502	631.211
307.979	15.893	842.103	631.080
308.993	15.868	841.581	630.541
310.008	15.963	840.561	630.077
311.022	15.927	840.238	629.646
312.037	15.929	839.400	628.970
313.052	15.885	838.866	628.347
314.066	15.759	838.515	627.560
315.081	15.820	837.796	627.192
316.095	15.702	837.436	626.428
317.110	15.915	836.749	626.651
318.125	15.930	836.123	626.182
319.139	15.760	836.128	625.498
320.154	15.896	835.005	625.109
321.168	16.000	834.534	625.086
322.183	15.907	834.179	624.420
323.197	16.015	833.625	624.352
324.212	15.806	833.684	623.566
325.227	15.966	832.415	623.153
326.241	16.098	831.643	623.009
327.256	16.061	831.332	622.584
328.270	15.998	831.012	622.055
329.285	16.109	830.577	622.085
330.300	16.068	829.824	621.313
331.314	15.858	829.627	620.338
332.329	15.974	828.946	620.202
333.343	16.025	828.596	620.070
334.358	16.184	828.056	620.198
335.373	16.029	828.082	619.592
336.387	16.125	827.576	619.511
337.402	16.179	827.138	619.326
338.416	16.202	826.743	619.061
339.431	16.122	826.641	618.637
340.446	16.211	825.793	618.274
341.460	16.358	825.624	618.630
342.475	16.410	824.940	618.253
343.489	16.206	824.630	617.219
344.504	16.491	823.909	617.666
345.519	16.296	823.998	616.968
346.533	16.391	823.195	616.658
347.548	16.413	822.494	616.159
348.562	16.230	822.553	615.482
349.577	16.393	821.759	615.424
350.592	16.368	821.001	614.714
351.606	16.468	819.843	614.153
352.621	16.510	819.423	613.940
353.635	16.589	818.776	613.686
354.650	16.445	818.423	612.846
355.665	16.416	817.979	612.353
356.679	16.392	817.267	611.680
357.694	16.520	816.720	611.677
358.708	16.458	816.221	611.025
359.723	16.542	815.460	610.707
360.738	16.595	814.810	610.356
361.752	16.413	814.477	609.396
362.767	16.655	813.779	609.692
363.781	16.661	813.475	609.433
364.796	16.797	812.702	609.287
365.810	16.688	812.409	608.624
366.825	16.684	812.043	608.280
367.840	16.802	811.369	608.146
368.854	16.860	810.863	607.921
369.869	16.835	810.883	607.791
370.883	16.806	810.131	607.071
371.898	16.806	810.216	607.082
372.913	16.800	809.756	606.659
373.927	16.946	808.701	606.337
374.942	16.791	808.726	605.751
375.956	16.897	808.516	605.918
376.971	16.988	807.672	605.556
377.986	16.981	807.322	605.214
379.000	17.057	806.439	604.771
380.015	17.104	806.008	604.562
381.029	17.092	805.698	604.233
382.044	17.042	805.267	603.678
383.059	16.999	804.866	603.170
384.073	16.907	804.601	602.594
385.088	17.086	803.506	602.355
386.102	17.061	802.847	601.719
387.117	17.068	802.298	601.280
388.132	17.007	802.269	600.987
389.146	17.024	801.388	600.333
390.161	17.144	800.956	600.381
391.175	17.081	800.463	599.738
392.190	17.191	799.672	599.480
393.205	17.273	799.242	599.394
394.219	17.080	799.151	598.592
395.234	17.176	798.590	598.456
396.248	17.045	798.333	597.747
397.263	17.035	797.859	597.306
398.278	17.080	797.860	597.413
399.292	16.981	797.334	596.617
400.307	17.039	796.457	596.111
401.321	17.163	796.111	596.235
402.336	17.154	795.656	595.809
403.350	17.264	795.076	595.709
404.365	17.319	794.747	595.603
405.380	17.261	793.969	594.765
406.394	17.463	793.957	595.408
407.409	17.299	793.592	594.508
408.423	17.357	793.528	594.612
409.438	17.484	792.526	594.249
410.453	17.538	791.992	593.989
411.467	17.516	792.042	593.893
412.482	17.516	791.476	593.418
413.496	17.598	790.849	593.183
414.511	17.537	790.832	592.901
415.526	17.563	790.329	592.564
416.540	17.523	789.808	591.983
417.555	17.550	788.982	591.406
418.569	17.641	789.258	591.876
419.584	17.602	788.736	591.297
420.599	17.675	787.900	590.871
421.613	113.036	1295.257	1480.189
422.628	97.091	1369.157	1480.275
