DTS Sentinel unit serial number:	SN413079Multiplexer serial number:	ORYXHardware model number:	OX4-SRSoftware version number:	ORYX F/W v4.00 Oryx Data Collector v3.7.2.0data status	okinstallation	princeton_trtdifferential loss correction	single-endedforward channel	channel 1reverse channel	N/Adate	2019/09/10time	19:04:11forward acquisition time	60.00reverse acquisition time	0.00gamma	496.2192k internal	0.2315k external	0.2315temperature offset calibration	0.9933default loss term (dB/km)	0.3790temperature slope calibration	1.0000multiplexer offset coefficient	1.0000multiplexer slope coefficient	1.0000fibre end	0.00T internal ref (°C)	34.42T ext. ref 1 (°C)	-0.31T ext. ref 2 (°C)	26.66length (m)	temperature (°C)	Stokes	anti-Stokes-747.200	184.082	0.144	0.216
-746.185	-130.125	0.043	-0.006
-745.171	-21.360	0.027	-0.017
-744.156	88.870	-0.167	0.189
-743.142	-96.403	0.170	0.045
-742.127	392.249	-0.072	-0.151
-741.112	791.961	-0.044	-0.122
-740.098	-200.000	0.044	-0.232
-739.083	-200.000	0.019	-0.098
-738.069	-146.899	-0.595	-0.052
-737.054	-83.460	-0.303	-0.098
-736.039	-39.555	-0.078	-0.042
-735.025	236.503	0.167	0.281
-734.010	79.151	0.192	0.208
-732.996	-200.000	-0.032	0.321
-731.981	96.635	-0.301	0.350
-730.966	-54.976	-0.175	-0.080
-729.952	-76.690	-0.269	0.096
-728.937	-107.362	-0.505	-0.112
-727.923	100.227	0.101	-0.119
-726.908	-200.000	-0.016	-0.492
-725.894	608.770	0.095	0.241
-724.879	800.000	0.050	-0.148
-723.864	520.973	-0.056	-0.133
-722.850	-136.281	0.165	-0.020
-721.835	800.000	0.009	-0.038
-720.821	-50.849	-0.064	-0.030
-719.806	-61.282	0.133	0.057
-718.791	93.436	-0.076	0.087
-717.777	25.918	0.148	-0.125
-716.762	-200.000	0.048	-0.350
-715.748	-143.182	-0.293	-0.029
-714.733	-200.000	-0.039	-0.402
-713.718	518.903	-0.095	-0.225
-712.704	-47.210	0.163	-0.080
-711.689	-200.000	0.031	-0.316
-710.675	-200.000	-0.005	0.107
-709.660	-16.276	-0.371	-0.238
-708.645	133.968	-0.109	-0.143
-707.631	604.832	0.070	-0.176
-706.616	-127.270	-0.132	0.019
-705.602	-200.000	0.007	-0.534
-704.587	17.526	-0.327	-0.263
-703.572	498.947	-0.059	0.137
-702.558	-156.707	0.226	0.014
-701.543	-54.701	0.229	-0.105
-700.529	43.351	-0.191	0.177
-699.514	-200.000	0.009	-0.160
-698.499	-182.342	0.234	-0.004
-697.485	37.715	-0.117	-0.105
-696.470	-74.456	-0.148	-0.054
-695.456	-200.000	0.009	-0.157
-694.441	187.123	0.123	-0.185
-693.426	-46.246	-0.650	-0.324
-692.412	147.127	0.183	-0.249
-691.397	107.365	0.069	-0.083
-690.383	-23.564	-0.099	0.060
-689.368	49.933	0.097	-0.092
-688.354	-200.000	-0.032	0.147
-687.339	47.395	-0.077	-0.073
-686.324	31.458	0.081	0.071
-685.310	-48.270	-0.119	-0.058
-684.295	445.590	-0.145	-0.323
-683.281	-200.000	-0.006	0.129
-682.266	-63.164	0.197	0.082
-681.251	87.049	-0.074	0.082
-680.237	-172.581	0.185	-0.006
-679.222	-33.696	-0.342	-0.190
-678.208	-82.535	0.374	0.122
-677.193	203.560	-0.174	0.273
-676.178	29.234	-0.288	0.248
-675.164	275.045	-0.091	-0.163
-674.149	-127.031	0.129	-0.019
-673.135	-45.473	0.505	0.253
-672.120	192.031	-0.197	-0.301
-671.105	-50.294	-0.296	-0.141
-670.091	-123.040	-0.288	-0.047
-669.076	-200.000	0.023	0.126
-668.062	-36.318	-0.172	0.094
-667.047	-52.662	0.221	0.103
-666.032	181.067	0.175	-0.259
-665.018	800.000	0.040	-0.142
-664.003	-120.751	-0.220	0.038
-662.989	-200.000	0.030	-0.248
-661.974	28.610	0.191	-0.163
-660.959	-123.323	-0.148	-0.024
-659.945	-92.222	0.398	0.114
-658.930	27.579	-0.183	-0.156
-657.916	-99.766	-0.197	-0.050
-656.901	-146.454	0.051	-0.005
-655.886	-89.965	0.130	-0.038
-654.872	-200.000	-0.006	0.031
-653.857	-200.000	0.004	-0.201
-652.843	800.000	-0.160	-0.472
-651.828	-110.088	-0.434	0.092
-650.814	-105.819	0.350	-0.080
-649.799	800.000	0.035	-0.100
-648.784	-82.210	0.179	0.059
-647.770	-200.000	0.003	0.028
-646.755	-2.756	-0.083	-0.059
-645.741	-172.480	-0.224	0.007
-644.726	-42.596	0.155	-0.080
-643.711	290.906	0.114	-0.209
-642.697	-83.306	0.165	-0.053
-641.682	800.000	-0.036	-0.102
-640.668	99.765	-0.052	-0.060
-639.653	-200.000	-0.031	-0.256
-638.638	-109.667	0.330	0.070
-637.624	-200.000	0.020	0.107
-636.609	106.840	-0.038	0.046
-635.595	-200.000	-0.030	-0.522
-634.580	-111.821	0.156	0.032
-633.565	9.385	-0.191	0.146
-632.551	-121.081	0.168	-0.028
-631.536	-45.610	0.086	-0.043
-630.522	800.000	0.020	0.067
-629.507	82.759	-0.187	-0.205
-628.492	-169.962	0.113	0.004
-627.478	9.691	0.212	-0.162
-626.463	1.123	0.083	0.060
-625.449	298.227	-0.149	-0.277
-624.434	-92.837	-0.069	-0.019
-623.419	-130.159	0.326	0.045
-622.405	331.666	-0.045	-0.089
-621.390	194.497	-0.176	0.269
-620.376	-200.000	-0.061	0.311
-619.361	-29.774	-0.227	0.130
-618.346	800.000	-0.046	0.194
-617.332	-27.526	-0.186	-0.109
-616.317	-94.051	0.223	-0.062
-615.303	-107.929	-0.149	-0.033
-614.288	-13.324	0.143	-0.094
-613.273	-200.000	-0.003	0.071
-612.259	35.336	-0.182	-0.161
-611.244	-125.653	0.137	0.021
-610.230	-68.649	0.204	0.080
-609.215	800.000	0.064	-0.198
-608.201	53.738	-0.038	-0.036
-607.186	4.339	0.061	-0.045
-606.171	191.144	0.231	-0.351
-605.157	-73.602	0.126	-0.046
-604.142	-200.000	0.033	-0.235
-603.128	-140.551	-0.136	-0.014
-602.113	-200.000	0.023	-0.183
-601.098	100.029	0.105	-0.122
-600.084	-126.706	0.169	0.025
-599.069	-200.000	-0.013	-0.258
-598.055	173.625	-0.195	-0.284
-597.040	-112.701	-0.314	0.063
-596.025	224.188	-0.041	-0.067
-595.011	-90.264	-0.266	-0.078
-593.996	800.000	-0.003	0.009
-592.982	-45.685	0.244	-0.121
-591.967	229.075	-0.058	0.095
-590.952	-27.220	0.159	0.094
-589.938	214.834	-0.125	-0.199
-588.923	101.114	0.124	-0.145
-587.909	-149.443	-0.372	-0.030
-586.894	-80.013	-0.253	-0.086
-585.879	-10.078	-0.128	0.086
-584.865	-128.265	-0.312	-0.045
-583.850	406.517	-0.054	-0.116
-582.836	-85.119	0.011	0.003
-581.821	-124.561	0.140	-0.022
-580.806	-78.540	0.241	-0.083
-579.792	-51.425	0.110	-0.052
-578.777	100.836	0.220	0.258
-577.763	1.208	0.175	-0.127
-576.748	276.965	-0.125	-0.224
-575.733	-0.004	-0.277	-0.198
-574.719	-200.000	-0.044	-0.198
-573.704	37.720	-0.021	-0.019
-572.690	69.543	0.191	0.198
-571.675	800.000	0.023	-0.095
-570.661	-200.000	-0.027	-0.133
-569.646	-49.274	-0.125	0.060
-568.631	119.398	0.203	-0.252
-567.617	-88.459	-0.613	-0.184
-566.602	-128.537	0.316	-0.045
-565.588	-80.765	0.155	0.052
-564.573	800.000	-0.036	-0.154
-563.558	-25.088	0.140	0.084
-562.544	-25.998	-0.147	0.087
-561.529	-82.520	-0.139	-0.045
-560.515	404.869	-0.107	-0.226
-559.500	-200.000	0.023	-0.170
-558.485	800.000	0.039	-0.122
-557.471	-55.288	-0.197	-0.089
-556.456	-18.564	-0.394	-0.247
-555.442	46.012	0.377	-0.351
-554.427	297.459	-0.056	0.103
-553.412	500.059	0.022	-0.050
-552.398	-27.500	0.296	-0.173
-551.383	-89.843	-0.449	0.132
-550.369	800.000	0.045	0.140
-549.354	17.981	-0.119	-0.095
-548.339	-62.696	0.153	0.064
-547.325	273.257	0.049	-0.087
-546.310	-161.188	-0.245	0.013
-545.296	55.392	-0.203	0.198
-544.281	800.000	-0.091	0.288
-543.266	-108.297	-0.404	0.088
-542.252	109.203	0.071	-0.086
-541.237	-200.000	-0.035	-0.206
-540.223	42.208	0.071	0.065
-539.208	-200.000	0.004	-0.046
-538.193	-4.878	0.085	0.059
-537.179	-128.997	-0.202	-0.028
-536.164	-72.771	-0.376	-0.139
-535.150	48.781	-0.263	-0.248
-534.135	124.933	-0.141	-0.179
-533.121	172.706	-0.061	0.088
-532.106	-200.000	0.001	-0.075
-531.091	47.408	0.077	-0.072
-530.077	-39.766	-0.169	0.089
-529.062	-12.899	0.311	0.203
-528.048	594.194	-0.138	0.342
-527.033	800.000	-0.162	0.559
-526.018	323.799	-0.021	0.040
-525.004	29.327	-0.169	0.144
-523.989	591.914	-0.031	0.077
-522.975	-77.693	0.148	-0.052
-521.960	35.637	0.090	-0.080
-520.945	-4.390	-0.094	-0.065
-519.931	228.095	-0.148	-0.242
-518.916	-128.728	-0.160	0.023
-517.902	554.774	-0.038	-0.092
-516.887	-200.000	-0.010	-0.100
-515.872	-83.564	0.213	-0.069
-514.858	-200.000	-0.009	0.150
-513.843	-83.606	-0.285	0.092
-512.829	68.091	-0.095	-0.098
-511.814	633.313	0.036	-0.092
-510.799	202.453	0.161	-0.249
-509.785	182.762	-0.087	-0.130
-508.770	167.646	-0.098	-0.140
-507.756	-96.492	-0.282	0.075
-506.741	-74.333	0.358	0.130
-505.726	370.174	-0.106	0.216
-504.712	-80.660	0.087	0.029
-503.697	-142.569	0.236	-0.023
-502.683	311.603	-0.165	0.311
-501.668	-148.532	-0.267	-0.022
-500.653	-200.000	0.003	0.026
-499.639	306.033	-0.250	0.467
-498.624	800.000	0.047	0.188
-497.610	-200.000	0.001	-0.114
-496.595	-10.428	-0.319	0.212
-495.581	273.693	0.053	0.093
-494.566	-200.000	-0.051	-0.504
-493.551	-42.709	-0.154	0.078
-492.537	115.272	0.118	-0.144
-491.522	-200.000	0.075	-0.458
-490.508	439.056	-0.151	0.330
-489.493	157.028	-0.032	0.045
-488.478	-116.729	-0.261	-0.048
-487.464	279.397	-0.042	0.074
-486.449	-200.000	0.049	-0.221
-485.435	800.000	-0.059	0.209
-484.420	103.173	-0.127	0.150
-483.405	-43.074	-0.255	-0.130
-482.391	140.608	0.272	0.361
-481.376	-57.861	-0.333	-0.146
-480.362	-189.578	0.159	-0.002
-479.347	-77.661	-0.293	-0.102
-478.332	482.322	0.039	0.089
-477.318	62.557	0.086	0.086
-476.303	-66.443	-0.055	-0.022
-475.289	-101.520	-0.203	-0.050
-474.274	-200.000	0.006	0.075
-473.259	-38.962	0.132	0.070
-472.245	-200.000	0.028	0.173
-471.230	245.560	0.051	0.086
-470.216	196.770	-0.064	0.098
-469.201	-33.010	-0.213	0.118
-468.186	-200.000	-0.015	0.189
-467.172	-200.000	-0.003	0.223
-466.157	216.954	0.147	-0.235
-465.143	-96.183	-0.231	-0.061
-464.128	-7.629	0.272	0.184
-463.113	-15.214	0.293	0.188
-462.099	302.916	0.063	-0.117
-461.084	-1.890	0.075	0.053
-460.070	-200.000	-0.008	0.224
-459.055	416.425	-0.054	-0.116
-458.040	-86.378	0.092	0.028
-457.026	-95.977	-0.275	-0.073
-456.011	-121.306	-0.136	-0.023
-454.997	502.151	0.096	0.222
-453.982	13.255	-0.069	-0.054
-452.968	-56.824	0.319	-0.141
-451.953	800.000	-0.052	0.168
-450.938	330.196	0.083	0.160
-449.924	-86.956	-0.112	-0.034
-448.909	-94.239	-0.108	0.030
-447.895	-119.545	-0.093	0.016
-446.880	740.835	0.098	-0.264
-445.865	-146.219	0.360	0.032
-444.851	3.008	-0.229	0.167
-443.836	-64.587	-0.227	0.092
-442.822	800.000	0.065	-0.234
-441.807	42.310	0.243	0.221
-440.792	271.713	-0.103	0.181
-439.778	-17.214	0.118	-0.075
-438.763	-102.431	0.418	0.100
-437.749	-173.701	-0.345	-0.010
-436.734	800.000	0.023	-0.091
-435.719	296.041	0.063	-0.116
-434.705	-110.757	-0.164	-0.034
-433.690	178.152	0.121	-0.176
-432.676	-17.196	-0.234	-0.148
-431.661	-82.509	0.425	0.138
-430.646	74.749	-0.261	0.275
-429.632	-166.963	0.317	-0.013
-428.617	-200.000	0.037	0.367
-427.603	54.971	-0.156	0.151
-426.588	-65.296	-0.342	0.138
-425.573	800.000	-0.064	0.227
-424.559	-102.594	-0.229	0.055
-423.544	-19.503	-0.193	-0.119
-422.530	800.000	-0.037	-0.151
-421.515	-8.021	-0.302	-0.204
-420.500	286.487	0.123	0.221
-419.486	-68.825	-0.141	-0.055
-418.471	-85.711	0.211	-0.066
-417.457	-123.676	0.304	-0.048
-416.442	-120.304	0.151	-0.026
-415.428	141.654	-0.120	0.160
-414.413	51.241	-0.260	0.247
-413.398	-58.416	-0.077	0.033
-412.384	30.056	0.139	0.119
-411.369	-103.932	0.232	0.054
-410.355	47.456	-0.124	0.116
-409.340	-200.000	0.052	0.245
-408.325	-200.000	-0.002	0.138
-407.311	-200.000	0.006	0.091
-406.296	72.325	0.202	0.210
-405.282	-200.000	-0.039	-0.260
-404.267	-200.000	-0.022	-0.511
-403.252	-128.505	-0.197	0.028
-402.238	-21.392	-0.313	0.191
-401.223	-50.932	-0.097	0.045
-400.209	-149.372	0.147	-0.012
-399.194	97.825	-0.080	-0.092
-398.179	-118.254	0.039	0.007
-397.165	-200.000	0.001	-0.106
-396.150	800.000	0.043	0.135
-395.136	107.333	0.153	0.182
-394.121	-200.000	0.033	-0.227
-393.106	163.294	0.162	0.228
-392.092	-5.593	0.213	-0.146
-391.077	-105.298	-0.320	0.073
-390.063	49.843	-0.060	-0.056
-389.048	-145.089	0.388	0.035
-388.033	60.372	-0.090	0.089
-387.019	32.632	-0.162	-0.140
-386.004	-200.000	-0.041	0.255
-384.990	-113.148	0.210	-0.041
-383.975	112.395	-0.187	-0.227
-382.960	-38.755	-0.122	0.064
-381.946	-5.968	0.174	0.119
-380.931	800.000	0.058	-0.238
-379.917	-200.000	0.032	-0.174
-378.902	67.214	0.340	-0.346
-377.888	-11.428	0.134	-0.088
-376.873	-200.000	-0.011	-0.076
-375.858	91.292	0.040	-0.045
-374.844	-200.000	0.006	-0.171
-373.829	-200.000	0.075	-0.457
-372.815	233.056	0.074	-0.122
-371.800	-200.000	0.032	-0.206
-370.785	800.000	-0.073	-0.252
-369.771	554.515	0.051	-0.123
-368.756	-127.328	-0.281	-0.041
-367.742	-39.404	0.090	0.047
-366.727	-200.000	-0.044	0.311
-365.712	-24.051	0.259	0.155
-364.698	-23.181	-0.316	-0.190
-363.683	225.308	0.151	-0.244
-362.669	-1.026	0.337	-0.238
-361.654	390.573	-0.133	-0.275
-360.639	-81.759	-0.346	-0.113
-359.625	265.116	0.095	-0.165
-358.610	223.424	0.079	0.127
-357.596	-200.000	-0.040	-0.193
-356.581	-58.857	-0.077	-0.033
-355.566	-0.025	0.168	0.119
-354.552	-200.000	-0.072	0.000
-353.537	-122.238	-0.302	-0.049
-352.523	-200.000	0.050	-0.224
-351.508	67.171	-0.105	0.107
-350.493	192.715	0.233	-0.352
-349.479	18.653	-0.209	-0.167
-348.464	-200.000	0.015	-0.200
-347.450	-143.630	-0.238	0.023
-346.435	98.878	0.053	-0.061
-345.420	-125.759	-0.188	-0.028
-344.406	-119.816	0.015	-0.003
-343.391	397.075	0.069	0.143
-342.377	-29.074	0.097	-0.055
-341.362	315.607	-0.088	-0.166
-340.348	-198.115	-0.217	0.001
-339.333	-200.000	0.009	0.085
-338.318	-20.715	-0.311	0.191
-337.304	-200.000	-0.009	-0.079
-336.289	-128.948	-0.166	0.023
-335.275	-200.000	0.005	-0.153
-334.260	86.242	0.027	-0.030
-333.245	800.000	-0.036	-0.137
-332.231	165.325	0.114	-0.160
-331.216	-7.342	0.255	-0.172
-330.202	-56.990	0.284	0.125
-329.187	-200.000	-0.066	0.480
-328.172	76.598	-0.117	0.123
-327.158	-45.587	-0.099	-0.049
-326.143	476.124	0.043	0.097
-325.129	519.351	0.103	-0.240
-324.114	800.000	-0.063	-0.235
-323.099	232.643	0.074	0.121
-322.085	-84.067	0.205	-0.065
-321.070	-180.110	-0.214	0.005
-320.056	-45.655	0.221	-0.109
-319.041	244.701	-0.118	-0.197
-318.026	-61.453	0.366	-0.153
-317.012	-132.413	-0.266	-0.034
-315.997	294.773	-0.094	0.172
-314.983	170.316	0.183	0.260
-313.968	385.298	0.026	0.054
-312.953	800.000	0.084	0.273
-311.939	-143.893	0.189	-0.018
-310.924	663.094	-0.109	-0.280
-309.910	800.000	0.032	-0.116
-308.895	-85.773	-0.069	-0.021
-307.880	800.000	0.055	-0.230
-306.866	-200.000	-0.001	-0.206
-305.851	-200.000	0.004	-0.239
-304.837	162.363	-0.069	-0.096
-303.822	-120.105	0.180	-0.031
-302.807	800.000	-0.110	0.349
-301.793	-44.197	0.066	0.033
-300.778	-200.000	0.008	0.345
-299.764	131.317	-0.128	0.164
-298.749	800.000	0.102	0.304
-297.735	103.680	-0.222	0.259
-296.720	-57.852	0.306	-0.133
-295.705	-62.223	0.263	-0.109
-294.691	15.588	-0.218	-0.171
-293.676	174.539	-0.144	-0.207
-292.662	-107.399	0.063	0.014
-291.647	-37.729	0.137	0.073
-290.632	-64.071	-0.237	-0.096
-289.618	4.269	0.223	-0.163
-288.603	161.913	0.079	-0.109
-287.589	-200.000	-0.010	0.197
-286.574	-150.953	-0.101	0.008
-285.559	15.886	0.164	0.128
-284.545	-19.018	-0.123	-0.076
-283.530	207.182	-0.191	0.297
-282.516	-120.052	-0.177	0.030
-281.501	-200.000	0.033	0.164
-280.486	-37.511	0.330	-0.175
-279.472	-4.363	0.141	0.097
-278.457	-49.893	0.300	-0.142
-277.443	-85.604	-0.295	-0.091
-276.428	10.157	0.030	0.022
-275.413	494.935	-0.128	0.293
-274.399	800.000	0.065	0.219
-273.384	-200.000	0.014	-0.184
-272.370	800.000	-0.031	-0.126
-271.355	-200.000	-0.058	0.615
-270.340	137.382	0.174	0.227
-269.326	-135.890	0.239	0.028
-268.311	-200.000	-0.040	0.190
-267.297	-10.685	-0.125	-0.082
-266.282	94.307	-0.058	-0.066
-265.267	346.254	0.150	0.293
-264.253	-160.216	-0.082	-0.004
-263.238	18.766	0.250	0.199
-262.224	-147.634	-0.137	0.011
-261.209	74.192	0.228	-0.238
-260.195	-72.202	-0.278	0.102
-259.180	149.038	-0.080	-0.108
-258.165	169.656	0.130	0.184
-257.151	436.206	-0.078	0.169
-256.136	-15.548	0.090	-0.057
-255.122	-115.515	0.641	-0.120
-254.107	221.319	0.016	0.026
-253.092	-35.922	0.184	0.099
-252.078	4.307	0.295	0.215
-251.063	-119.536	-0.447	0.077
-250.049	-109.681	0.242	0.051
-249.034	495.299	0.020	0.046
-248.019	74.215	-0.174	0.182
-247.005	-67.619	0.087	0.034
-245.990	-200.000	-0.036	0.204
-244.976	-200.000	0.073	-0.328
-243.961	296.236	0.058	0.106
-242.946	138.729	-0.299	-0.391
-241.932	-93.819	-0.080	-0.022
-240.917	-200.000	0.015	-0.242
-239.903	-129.323	0.189	-0.026
-238.888	-23.491	0.096	-0.057
-237.873	-145.554	0.133	-0.012
-236.859	30.495	-0.094	0.079
-235.844	-200.000	-0.009	0.179
-234.830	482.454	0.096	-0.217
-233.815	43.583	0.195	-0.178
-232.800	800.000	-0.079	0.271
-231.786	94.284	-0.115	0.130
-230.771	85.343	-0.210	0.229
-229.757	-33.926	0.231	0.126
-228.742	45.441	0.048	-0.044
-227.727	-200.000	0.009	0.078
-226.713	-200.000	-0.029	0.201
-225.698	-121.506	0.060	0.010
-224.684	-120.137	0.032	-0.005
-223.669	73.190	0.194	0.202
-222.655	564.796	0.085	-0.205
-221.640	-87.357	0.486	-0.146
-220.625	307.131	-0.216	0.400
-219.611	64.993	0.086	-0.086
-218.596	-135.237	-0.226	0.027
-217.582	-131.703	0.241	0.031
-216.567	800.000	-0.100	0.325
-215.552	-200.000	0.020	0.286
-214.538	-136.212	0.311	-0.036
-213.523	110.879	0.129	-0.154
-212.509	62.333	-0.326	0.323
-211.494	-200.000	-0.012	-0.118
-210.479	42.034	0.081	-0.073
-209.465	-92.910	0.159	-0.044
-208.450	-23.371	-0.303	-0.181
-207.436	229.854	0.041	0.066
-206.421	-95.492	0.306	0.081
-205.406	800.000	-0.053	0.156
-204.392	69.742	-0.234	-0.239
-203.377	-107.770	0.096	0.021
-202.363	-174.225	-0.095	-0.003
-201.348	455.075	0.138	-0.304
-200.333	-200.000	0.023	0.113
-199.319	116.909	0.146	0.178
-198.304	-34.593	-0.450	0.244
-197.290	-114.356	0.261	0.050
-196.275	-200.000	-0.005	0.176
-195.260	800.000	-0.025	-0.075
-194.246	-200.000	0.074	-0.345
-193.231	-177.649	0.103	-0.002
-192.217	-117.383	0.211	-0.038
-191.202	-200.000	0.036	0.162
-190.187	-184.657	-0.274	-0.004
-189.173	-72.086	0.333	0.122
-188.158	-200.000	-0.002	0.029
-187.144	-200.000	-0.076	0.371
-186.129	-200.000	-0.000	0.291
-185.114	-156.703	0.314	-0.019
-184.100	-200.000	-0.025	-0.246
-183.085	-200.000	-0.026	-0.292
-182.071	-200.000	-0.019	0.166
-181.056	800.000	-0.038	0.125
-180.042	-1.756	-0.093	0.065
-179.027	261.918	0.210	0.361
-178.012	-29.317	0.201	0.114
-176.998	-200.000	-0.098	-0.454
-175.983	-94.032	0.121	0.033
-174.969	-104.672	-0.097	0.022
-173.954	217.580	-0.142	0.224
-172.939	94.292	0.208	0.234
-171.925	80.549	0.349	0.373
-170.910	-14.738	0.115	0.073
-169.896	-200.000	-0.011	-0.189
-168.881	-57.057	-0.032	-0.014
-167.866	229.701	-0.080	-0.130
-166.852	-81.920	-0.257	-0.083
-165.837	265.065	-0.059	-0.102
-164.823	381.667	-0.135	0.274
-163.808	-59.373	0.319	0.136
-162.793	44.631	0.139	0.127
-161.779	-44.294	-0.365	0.181
-160.764	-200.000	0.040	0.233
-159.750	-200.000	-0.005	-0.074
-158.735	-80.663	0.144	0.047
-157.720	99.746	0.198	0.227
-156.706	-40.060	0.108	0.056
-155.691	-144.793	-0.189	0.017
-154.677	-100.049	0.185	0.046
-153.662	-200.000	-0.018	-0.332
-152.647	-200.000	0.004	0.183
-151.633	-64.238	0.068	0.027
-150.618	127.169	0.057	-0.072
-149.604	800.000	-0.029	0.090
-148.589	140.875	0.158	0.207
-147.574	292.768	0.057	0.104
-146.560	800.000	0.029	0.113
-145.545	-56.655	-0.193	-0.085
-144.531	-120.532	0.229	-0.038
-143.516	15.739	-0.302	-0.235
-142.502	425.136	0.107	0.227
-141.487	-200.000	-0.029	0.168
-140.472	-160.613	0.164	0.009
-139.458	-139.571	0.242	0.026
-138.443	800.000	-0.020	0.080
-137.429	800.000	-0.049	-0.177
-136.414	-56.994	0.127	-0.056
-135.399	378.228	0.102	0.207
-134.385	-105.154	0.409	-0.092
-133.370	-172.095	-0.174	-0.006
-132.356	-200.000	-0.068	0.306
-131.341	800.000	-0.075	0.323
-130.326	301.686	-0.199	-0.364
-129.312	-22.849	0.216	0.129
-128.297	22.839	0.208	0.169
-127.283	67.383	0.080	0.081
-126.268	-200.000	-0.004	-0.386
-125.253	-34.841	0.338	-0.183
-124.239	-12.439	-0.142	0.091
-123.224	-22.953	0.109	-0.065
-122.210	69.146	-0.120	-0.122
-121.195	-100.766	0.042	0.010
-120.180	800.000	-0.056	0.233
-119.166	709.231	-0.068	-0.178
-118.151	395.075	0.044	-0.092
-117.137	-20.393	-0.190	-0.116
-116.122	-200.000	0.057	0.255
-115.107	-4.035	0.361	0.247
-114.093	-200.000	-0.031	0.202
-113.078	54.680	0.210	0.201
-112.064	-29.377	-0.344	0.194
-111.049	-170.512	-0.235	0.008
-110.034	-92.099	-0.164	-0.046
-109.020	-200.000	0.020	0.232
-108.005	-37.000	0.188	-0.100
-106.991	206.877	-0.075	-0.116
-105.976	138.766	-0.139	-0.180
-104.962	249.140	0.131	0.219
-103.947	-200.000	-0.092	-0.569
-102.932	402.142	-0.089	-0.186
-101.918	240.219	-0.022	0.036
-100.903	222.455	0.120	-0.191
-99.889	25.930	-0.365	-0.301
-98.874	-42.499	0.054	0.027
-97.859	50.906	0.130	0.122
-96.845	-31.825	-0.216	0.119
-95.830	158.749	0.157	0.216
-94.816	132.577	0.126	0.160
-93.801	-61.895	0.016	-0.007
-92.786	-42.969	-0.295	-0.148
-91.772	-200.000	-0.004	-0.357
-90.757	85.902	-0.275	-0.299
-89.743	20.983	0.132	0.106
-88.728	152.497	-0.141	0.190
-87.713	-200.000	0.019	0.195
-86.699	-200.000	0.006	-0.254
-85.684	-66.464	0.063	0.025
-84.670	-200.000	0.054	-0.260
-83.655	-184.578	-0.329	0.005
-82.640	26.445	0.101	0.084
-81.626	-200.000	-0.091	-0.478
-80.611	-200.000	-0.020	0.163
-79.597	11.072	0.191	-0.144
-78.582	-86.896	0.143	-0.043
-77.567	157.116	-0.051	0.070
-76.553	-79.585	0.370	0.123
-75.538	205.517	-0.272	0.417
-74.524	17.194	0.183	0.143
-73.509	-173.049	-0.089	0.003
-72.494	800.000	-0.042	-0.142
-71.480	8.973	0.190	0.142
-70.465	-14.950	0.373	-0.236
-69.451	800.000	0.056	-0.184
-68.436	-152.714	0.164	-0.011
-67.422	565.916	0.084	-0.201
-66.407	318.797	-0.041	0.076
-65.392	198.276	0.164	0.248
-64.378	312.468	-0.121	0.224
-63.363	-76.437	-0.311	-0.108
-62.349	-34.612	-0.116	-0.062
-61.334	63.228	-0.957	-0.946
-60.319	98.886	0.307	0.350
-59.305	800.000	0.214	-0.848
-58.290	235.694	0.757	1.234
-57.276	296.602	0.963	1.742
-56.261	-200.000	101.869	606.761
-55.246	613.599	1428.777	3529.131
-54.232	181.619	2644.455	3838.591
-53.217	121.487	2184.713	2685.384
-52.203	46.290	1630.704	1490.806
-51.188	37.983	1364.360	1196.585
-50.173	34.725	1321.247	1139.340
-49.159	56.882	1373.470	1319.667
-48.144	60.465	1391.083	1358.292
-47.130	38.112	1343.664	1179.028
-46.115	34.625	1325.266	1142.024
-45.100	34.392	1320.797	1136.740
-44.086	34.252	1318.313	1133.724
-43.071	34.312	1315.747	1131.829
-42.057	34.138	1313.843	1129.113
-41.042	34.185	1312.669	1128.335
-40.027	34.401	1310.289	1127.522
-39.013	34.270	1308.619	1125.266
-37.998	34.300	1306.524	1123.602
-36.984	34.335	1305.187	1122.610
-35.969	34.416	1303.240	1121.368
-34.954	34.462	1300.773	1119.470
-33.940	34.504	1299.637	1118.694
-32.925	34.433	1298.655	1117.391
-31.911	34.502	1297.169	1116.472
-30.896	34.521	1295.813	1115.370
-29.881	34.569	1294.717	1114.662
-28.867	34.490	1293.287	1112.929
-27.852	34.516	1291.774	1111.731
-26.838	34.564	1289.860	1110.319
-25.823	34.452	1289.053	1108.931
-24.809	34.475	1287.500	1107.687
-23.794	34.558	1286.111	1106.926
-22.779	34.462	1285.462	1105.765
-21.765	34.500	1283.724	1104.448
-20.750	34.482	1282.471	1103.224
-19.736	34.471	1281.182	1102.007
-18.721	34.387	1279.927	1100.399
-17.706	34.291	1278.850	1098.875
-16.692	34.391	1277.454	1098.211
-15.677	34.373	1276.448	1097.198
-14.663	34.354	1275.648	1096.357
-13.648	34.456	1273.998	1095.478
-12.633	34.454	1273.063	1094.621
-11.619	34.493	1272.784	1094.562
-10.604	34.367	1271.281	1092.501
-9.590	34.267	1270.822	1091.495
-8.575	34.443	1269.268	1091.123
-7.560	34.331	1268.591	1089.857
-6.546	34.380	1267.491	1089.149
-5.531	34.310	1266.908	1088.201
-4.517	34.321	1266.295	1087.697
-3.502	34.389	1264.960	1086.897
-2.487	34.340	1264.280	1085.988
-1.473	34.166	1260.700	1081.881
-0.458	32.364	1244.536	1057.847
0.556	25.955	1224.832	1013.796
1.571	21.728	1229.476	993.638
2.586	20.706	1244.636	999.931
3.600	20.339	1234.242	989.400
4.615	14.787	1161.827	901.396
5.629	4.850	1084.169	790.823
6.644	0.007	1062.529	750.827
7.659	-0.416	1059.925	746.813
8.673	-0.453	1058.321	745.437
9.688	-0.356	1056.660	744.679
10.702	-0.179	1055.847	744.918
11.717	5.656	1063.991	779.705
12.731	14.758	1076.985	834.836
13.746	18.061	1080.905	854.338
14.761	17.821	1079.859	852.238
15.775	17.665	1079.322	850.962
16.790	17.480	1078.054	848.961
17.804	17.236	1077.453	847.198
18.819	17.394	1076.887	847.462
19.834	17.432	1076.372	847.173
20.848	17.418	1075.766	846.550
21.863	17.324	1075.424	845.739
22.877	17.388	1074.572	845.315
23.892	17.339	1073.770	844.363
24.907	17.408	1073.281	844.249
25.921	17.416	1072.299	843.443
26.936	17.399	1070.698	842.024
27.950	17.348	1069.337	840.624
28.965	17.166	1067.310	838.062
29.980	17.191	1065.486	836.677
30.994	17.458	1064.250	836.944
32.009	17.405	1062.983	835.613
33.023	17.194	1061.644	833.455
34.038	17.284	1060.956	833.280
35.053	17.387	1060.380	833.258
36.067	17.520	1059.218	832.924
37.082	17.502	1058.628	832.296
38.096	17.745	1057.114	832.220
39.111	17.773	1056.676	831.939
40.126	17.631	1055.528	830.266
41.140	17.406	1053.401	827.428
42.155	17.168	1052.132	825.201
43.169	17.164	1050.717	823.999
44.184	17.183	1049.897	823.376
45.199	17.087	1048.909	822.063
46.213	17.163	1047.327	821.120
47.228	17.195	1046.299	820.394
48.242	17.116	1045.522	819.332
49.257	17.281	1044.729	819.432
50.271	17.404	1043.417	818.924
51.286	17.426	1042.337	818.107
52.301	17.454	1041.405	817.437
53.315	17.390	1040.435	816.298
54.330	17.208	1039.554	814.664
55.344	17.528	1038.281	815.124
56.359	17.464	1037.460	814.102
57.374	17.310	1036.750	812.736
58.388	17.197	1036.134	811.643
59.403	17.255	1034.981	810.944
60.417	17.218	1033.545	809.571
61.432	17.371	1033.026	809.821
62.447	17.252	1032.767	808.978
63.461	17.370	1032.021	808.886
64.476	17.268	1030.929	807.472
65.490	17.298	1029.692	806.576
66.505	17.212	1029.530	805.971
67.520	17.463	1028.321	806.138
68.534	17.111	1027.799	803.993
69.549	16.898	1026.268	801.716
70.563	16.967	1025.732	801.555
71.578	17.026	1024.734	800.982
72.593	16.829	1023.642	799.130
73.607	17.132	1022.714	799.760
74.622	17.212	1022.596	799.976
75.636	17.295	1021.999	799.825
76.651	17.138	1020.895	798.153
77.666	16.956	1020.062	796.578
78.680	17.078	1019.514	796.653
79.695	17.264	1018.782	796.879
80.709	17.165	1018.310	795.978
81.724	17.092	1017.266	794.749
82.739	17.213	1016.544	794.679
83.753	17.357	1016.058	794.905
84.768	17.588	1014.812	794.935
85.782	17.524	1014.294	794.162
86.797	17.507	1012.873	792.900
87.812	17.564	1011.332	791.890
88.826	17.612	1010.787	791.615
89.841	17.634	1010.016	791.044
90.855	17.455	1009.381	789.644
91.870	17.571	1007.646	788.755
92.884	17.427	1006.744	787.312
93.899	17.378	1006.420	786.762
94.914	17.576	1005.165	786.627
95.928	17.353	1004.143	784.731
96.943	17.194	1002.781	782.861
97.957	17.164	1001.438	781.606
98.972	17.026	1000.183	779.922
99.987	17.140	999.667	779.975
101.001	17.266	998.758	779.775
102.016	17.398	997.845	779.599
103.030	17.254	996.523	777.837
104.045	17.107	995.666	776.431
105.060	16.976	994.894	775.158
106.074	17.200	993.723	775.203
107.089	17.578	993.258	776.493
108.103	17.406	993.007	775.445
109.118	17.412	990.967	773.808
110.133	17.436	989.947	773.056
111.147	17.256	989.255	771.628
112.162	17.164	987.808	770.015
113.176	17.275	987.431	770.157
114.191	17.223	986.108	768.818
115.206	16.940	985.123	766.705
116.220	16.952	984.363	766.100
117.235	17.247	983.087	766.370
118.249	17.198	982.327	765.489
119.264	17.108	981.477	764.354
120.279	17.155	980.904	764.050
121.293	17.163	980.249	763.511
122.308	17.226	979.278	762.968
123.322	17.215	977.791	761.695
124.337	17.024	976.295	759.606
125.352	16.698	974.493	756.680
126.366	16.601	973.396	755.329
127.381	17.155	973.343	757.693
128.395	17.664	972.261	759.050
129.410	17.461	971.946	757.831
130.424	17.658	970.149	757.241
131.439	17.454	969.543	755.793
132.454	17.468	968.277	754.802
133.468	17.465	967.798	754.348
134.483	17.612	966.548	753.960
135.497	17.662	965.991	753.679
136.512	17.840	964.964	753.597
137.527	17.813	963.802	752.505
138.541	17.650	963.403	751.405
139.556	17.855	962.186	751.292
140.570	17.757	961.166	749.999
141.585	17.742	960.562	749.397
142.600	17.691	959.316	748.136
143.614	17.835	958.944	748.411
144.629	17.859	958.066	747.762
145.643	17.837	956.719	746.547
146.658	17.685	955.667	744.999
147.673	17.703	954.655	744.223
148.687	17.625	953.742	743.106
149.702	17.639	952.651	742.248
150.716	17.596	951.773	741.312
151.731	17.656	951.295	741.134
152.746	17.765	950.986	741.305
153.760	17.934	950.054	741.244
154.775	17.870	949.772	740.680
155.789	17.707	948.763	739.121
156.804	17.981	947.349	739.141
157.819	17.853	946.575	737.920
158.833	17.923	945.900	737.631
159.848	17.986	944.477	736.728
160.862	17.748	943.564	734.923
161.877	17.743	943.186	734.541
162.892	17.937	942.061	734.437
163.906	17.785	940.920	732.827
164.921	17.859	939.936	732.316
165.935	17.914	938.649	731.482
166.950	17.906	937.813	730.731
167.964	17.857	937.396	730.134
168.979	17.822	936.088	728.901
169.994	17.730	934.969	727.573
171.008	17.918	934.607	728.028
172.023	17.817	933.280	726.500
173.037	17.500	932.276	724.306
174.052	17.527	931.439	723.707
175.067	17.725	931.081	724.205
176.081	17.735	930.702	723.888
177.096	17.800	929.804	723.400
178.110	17.504	928.704	721.227
179.125	17.429	927.770	720.120
180.140	17.489	927.430	720.047
181.154	17.590	927.135	720.179
182.169	17.811	926.698	720.712
183.183	17.830	926.255	720.385
184.198	17.942	924.964	719.790
185.213	17.879	924.448	719.058
186.227	18.011	923.556	718.858
187.242	17.962	922.821	718.014
188.256	17.834	922.540	717.194
189.271	18.124	921.197	717.305
190.286	17.794	920.346	715.193
191.300	17.293	919.728	712.551
192.315	16.730	918.294	709.020
193.329	16.668	918.021	708.488
194.344	17.415	918.101	711.613
195.359	17.897	917.542	713.130
196.373	17.928	916.735	712.571
197.388	17.753	916.179	711.343
198.402	17.658	915.091	710.038
199.417	17.585	914.355	709.104
200.432	17.336	913.502	707.344
201.446	17.185	913.075	706.321
202.461	17.327	912.152	706.136
203.475	16.534	910.776	701.719
204.490	16.110	909.163	698.659
205.504	16.942	909.716	702.466
206.519	17.404	909.721	704.323
207.534	17.579	909.049	704.465
208.548	17.975	908.656	705.734
209.563	17.612	907.842	703.540
210.577	17.756	906.695	703.183
211.592	18.037	906.330	703.997
212.607	17.988	905.369	702.985
213.621	18.010	904.944	702.683
214.636	17.978	904.312	701.997
215.650	17.898	903.553	701.019
216.665	18.099	902.914	701.287
217.680	17.907	902.224	699.901
218.694	17.506	900.807	697.098
219.709	17.540	900.277	696.766
220.723	17.753	899.676	697.109
221.738	17.758	899.205	696.702
222.753	17.853	898.130	696.196
223.767	17.944	897.669	696.147
224.782	18.006	897.371	696.107
225.796	18.070	896.709	695.794
226.811	17.411	895.309	691.966
227.826	16.992	894.191	689.338
228.840	17.102	893.644	689.305
229.855	17.285	892.703	689.256
230.869	16.756	891.745	686.314
231.884	17.112	892.063	687.942
232.899	18.028	891.276	690.981
233.913	17.936	890.641	690.056
234.928	18.063	889.982	689.997
235.942	17.972	889.666	689.321
236.957	17.690	888.580	687.282
237.972	17.658	888.310	686.884
238.986	17.798	887.432	686.707
240.001	17.832	886.720	686.235
241.015	17.824	886.406	685.898
242.030	17.913	885.158	685.228
243.045	17.964	885.380	685.542
244.059	18.094	884.751	685.518
245.074	17.793	883.393	683.199
246.088	17.472	882.429	681.108
247.103	17.812	881.764	681.895
248.117	18.338	881.371	683.633
249.132	18.187	881.122	682.776
250.147	18.450	879.887	682.805
251.161	18.553	879.365	682.752
252.176	18.409	879.098	681.909
253.190	18.485	878.459	681.657
254.205	18.677	877.485	681.603
255.220	18.580	877.150	680.897
256.234	18.568	876.211	680.061
257.249	18.460	875.384	678.930
258.263	18.525	874.892	678.745
259.278	18.653	873.906	678.427
260.293	18.668	873.351	677.994
261.307	18.515	872.938	677.010
262.322	18.210	872.007	675.025
263.336	17.535	869.640	670.476
264.351	16.550	867.999	665.278
265.366	16.733	867.437	665.511
266.380	17.664	868.072	669.595
267.395	18.149	868.221	671.559
268.409	18.191	867.249	670.910
269.424	18.403	866.312	670.957
270.439	18.426	865.830	670.613
271.453	18.446	865.559	670.423
272.468	18.555	865.170	670.489
273.482	18.749	864.597	670.744
274.497	18.395	863.072	668.119
275.512	17.898	862.593	665.752
276.526	18.427	861.849	667.181
277.541	18.382	861.942	667.019
278.555	18.246	860.381	665.222
279.570	17.875	859.533	663.068
280.585	18.359	858.760	664.292
281.599	18.367	858.092	663.745
282.614	17.948	856.889	661.135
283.628	17.896	856.907	660.890
284.643	18.045	856.411	661.022
285.657	17.943	854.989	659.473
286.672	17.625	854.177	657.563
287.687	18.121	853.980	659.267
288.701	17.977	853.557	658.326
289.716	17.808	852.798	657.033
290.730	17.742	851.992	656.098
291.745	17.556	851.062	654.609
292.760	17.721	851.119	655.228
293.774	18.614	851.175	658.646
294.789	19.026	850.397	659.566
295.803	19.098	850.125	659.571
296.818	19.141	849.429	659.137
297.833	18.842	847.976	656.806
298.847	18.638	847.290	655.441
299.862	18.922	847.295	656.469
300.876	18.963	846.920	656.276
301.891	18.851	846.202	655.235
302.906	18.273	845.138	652.152
303.920	18.438	844.735	652.413
304.935	18.824	844.125	653.351
305.949	18.913	843.590	653.219
306.964	18.674	843.156	651.918
307.979	18.778	842.699	651.899
308.993	19.032	842.602	652.733
310.008	19.164	841.521	652.336
311.022	18.876	840.858	650.675
312.037	18.811	840.096	649.781
313.052	18.609	839.324	648.364
314.066	18.126	837.674	645.211
315.081	17.760	837.366	643.533
316.095	18.405	837.445	645.970
317.110	18.891	837.227	647.579
318.125	18.192	835.791	643.779
319.139	17.367	834.594	639.700
320.154	17.411	834.317	639.597
321.168	18.162	834.098	642.194
322.183	18.706	834.451	644.450
323.197	18.801	833.961	644.372
324.212	18.953	833.388	644.439
325.227	19.022	832.693	644.105
326.241	18.861	832.017	642.922
327.256	18.863	831.372	642.373
328.270	18.797	830.806	641.634
329.285	18.529	830.661	640.466
330.300	18.517	829.792	639.694
331.314	18.690	829.062	639.718
332.329	18.868	829.231	640.456
333.343	18.978	828.510	640.251
334.358	18.831	828.086	639.322
335.373	19.095	827.275	639.618
336.387	19.289	827.376	640.362
337.402	19.279	827.236	640.159
338.416	19.097	826.852	639.129
339.431	19.259	826.328	639.270
340.446	19.335	826.434	639.578
341.460	19.171	825.735	638.370
342.475	18.859	824.925	636.534
343.489	19.070	824.754	637.128
344.504	19.428	824.403	638.121
345.519	19.410	823.957	637.654
346.533	19.580	823.645	637.985
347.548	19.636	823.081	637.698
348.562	19.677	822.400	637.265
349.577	19.435	822.273	636.220
350.592	19.587	820.980	635.723
351.606	19.624	820.417	635.365
352.621	19.422	819.891	634.158
353.635	19.445	818.815	633.353
354.650	18.953	817.361	630.371
355.665	18.050	815.995	625.957
356.679	18.554	815.455	627.329
357.694	18.737	815.807	628.215
358.708	18.749	814.706	627.354
359.723	19.294	814.303	628.978
360.738	19.331	814.303	629.060
361.752	19.615	813.764	629.622
362.767	19.724	813.247	629.563
363.781	19.856	813.301	630.030
364.796	19.954	812.628	629.808
365.810	19.868	812.050	628.992
366.825	19.795	811.568	628.299
367.840	19.457	811.111	626.661
368.854	19.376	809.735	625.249
369.869	19.302	809.780	624.959
370.883	19.430	809.351	625.038
371.898	19.229	808.597	623.674
372.913	19.229	808.590	623.614
373.927	19.556	808.131	624.386
374.942	19.558	807.591	623.921
375.956	19.575	807.546	623.893
376.971	19.612	807.222	623.719
377.986	19.834	806.515	623.918
379.000	19.797	805.991	623.325
380.015	19.728	805.142	622.367
381.029	19.829	804.577	622.238
382.044	19.783	804.154	621.689
383.059	19.779	803.666	621.243
384.073	19.928	803.160	621.332
385.088	19.969	802.454	620.879
386.102	19.868	801.740	619.907
387.117	19.844	801.248	619.388
388.132	19.535	800.353	617.536
389.146	19.171	799.415	615.456
390.161	19.336	799.508	616.064
391.175	19.582	799.002	616.496
392.190	19.355	798.450	615.205
393.205	18.305	796.840	610.173
394.219	17.361	795.080	605.412
395.234	17.273	794.750	604.793
396.248	18.709	795.784	610.637
397.263	19.845	796.560	615.223
398.278	19.871	795.816	614.684
399.292	19.810	795.208	613.946
400.307	19.683	794.991	613.272
401.321	19.690	794.751	613.057
402.336	19.754	794.874	613.325
403.350	20.197	794.188	614.310
404.365	20.315	793.590	614.212
405.380	20.425	793.242	614.277
406.394	20.452	792.662	613.868
407.409	20.429	792.347	613.489
408.423	20.395	791.984	613.036
409.438	20.360	791.501	612.484
410.453	20.500	791.400	612.844
411.467	20.495	790.707	612.236
412.482	20.374	790.696	611.748
413.496	20.391	790.182	611.356
414.511	20.650	789.385	611.594
415.526	20.647	789.057	611.275
416.540	20.485	788.136	609.941
417.555	20.195	787.277	608.205
418.569	20.196	786.828	607.808
419.584	20.249	786.679	607.825
420.599	20.007	785.870	606.298
421.613	155.470	1359.970	1791.252
422.628	134.507	1443.621	1791.377
