DTS Sentinel unit serial number:	SN413079Multiplexer serial number:	ORYXHardware model number:	OX4-SRSoftware version number:	ORYX F/W v4.00 Oryx Data Collector v3.7.2.0data status	okinstallation	princeton_trtdifferential loss correction	single-endedforward channel	channel 1reverse channel	N/Adate	2019/09/13time	20:14:35forward acquisition time	60.00reverse acquisition time	0.00gamma	496.2192k internal	0.2329k external	0.2329temperature offset calibration	1.0087default loss term (dB/km)	0.3790temperature slope calibration	1.0000multiplexer offset coefficient	1.0000multiplexer slope coefficient	1.0000fibre end	0.00T internal ref (°C)	29.44T ext. ref 1 (°C)	3.25T ext. ref 2 (°C)	23.74length (m)	temperature (°C)	Stokes	anti-Stokes-747.200	-116.993	0.368	-0.068
-746.185	800.000	-0.222	0.624
-745.171	39.850	0.131	-0.119
-744.156	-102.280	-0.220	0.053
-743.142	-62.323	0.381	0.160
-742.127	321.022	-0.042	0.081
-741.112	20.421	-0.104	0.085
-740.098	-200.000	0.014	0.330
-739.083	167.465	-0.038	-0.054
-738.069	800.000	-0.127	-0.373
-737.054	30.046	0.052	-0.045
-736.039	-67.379	0.061	0.024
-735.025	11.044	0.220	-0.169
-734.010	-81.955	-0.205	0.067
-732.996	800.000	-0.061	-0.175
-731.981	-200.000	-0.003	0.261
-730.966	-158.778	-0.239	-0.014
-729.952	-200.000	-0.041	-0.200
-728.937	-200.000	0.016	0.174
-727.923	6.013	-0.081	0.060
-726.908	800.000	-0.048	0.153
-725.894	-25.656	-0.180	-0.107
-724.879	68.169	-0.126	0.130
-723.864	-71.287	0.232	0.088
-722.850	800.000	0.051	-0.206
-721.835	-45.864	-0.164	-0.081
-720.821	-50.566	-0.082	-0.039
-719.806	-27.198	-0.300	0.176
-718.791	-46.008	-0.115	-0.057
-717.777	469.650	-0.138	0.312
-716.762	35.513	-0.101	-0.090
-715.748	585.607	0.077	0.189
-714.733	-72.647	-0.206	-0.076
-713.718	-139.576	-0.161	0.017
-712.704	-200.000	0.011	-0.130
-711.689	-113.743	-0.218	-0.043
-710.675	-49.727	0.218	-0.104
-709.660	83.322	-0.149	-0.163
-708.645	-60.292	-0.233	-0.100
-707.631	-63.141	0.270	-0.112
-706.616	-200.000	0.087	0.508
-705.602	466.484	-0.237	0.533
-704.587	117.646	0.278	-0.344
-703.572	800.000	0.072	0.277
-702.558	-117.925	-0.234	-0.042
-701.543	-200.000	0.032	0.252
-700.529	329.621	-0.136	-0.262
-699.514	-118.293	-0.265	0.047
-698.499	222.712	-0.193	-0.312
-697.485	522.901	-0.163	0.385
-696.470	-110.865	-0.335	-0.069
-695.456	-151.581	-0.175	0.013
-694.441	27.871	0.096	-0.081
-693.426	253.279	0.019	0.033
-692.412	-65.551	-0.258	0.104
-691.397	-109.778	-0.276	0.058
-690.383	144.934	0.161	-0.216
-689.368	800.000	-0.086	0.299
-688.354	-72.612	-0.118	0.044
-687.339	-122.413	0.183	-0.030
-686.324	-41.061	0.133	0.069
-685.310	-85.436	-0.334	-0.105
-684.295	-157.545	-0.044	-0.003
-683.281	-17.745	-0.383	0.242
-682.266	368.114	-0.091	-0.185
-681.251	-73.736	-0.320	-0.117
-680.237	-200.000	0.037	0.184
-679.222	-81.352	-0.120	0.040
-678.208	-32.375	-0.173	0.097
-677.193	-68.885	-0.077	-0.030
-676.178	800.000	-0.060	0.243
-675.164	-67.615	-0.515	0.203
-674.149	-54.935	-0.206	-0.093
-673.135	630.430	-0.102	-0.260
-672.120	390.946	0.066	-0.138
-671.105	800.000	-0.062	-0.214
-670.091	666.303	-0.108	0.279
-669.076	-132.627	-0.429	-0.055
-668.062	648.655	0.076	0.196
-667.047	189.236	-0.134	0.202
-666.032	-186.770	-0.246	0.003
-665.018	-183.374	-0.299	-0.005
-664.003	800.000	0.057	-0.193
-662.989	-200.000	0.013	0.258
-661.974	163.031	-0.076	-0.107
-660.959	-200.000	-0.012	0.217
-659.945	-200.000	-0.032	0.338
-658.930	-200.000	0.025	0.278
-657.916	636.179	0.083	-0.211
-656.901	800.000	0.090	-0.266
-655.886	164.821	-0.053	0.075
-654.872	-200.000	0.017	0.083
-653.857	500.826	0.113	-0.261
-652.843	124.498	-0.093	-0.117
-651.828	-66.124	-0.173	0.069
-650.814	8.966	-0.185	-0.140
-649.799	-54.107	-0.307	0.140
-648.784	-74.776	-0.315	-0.114
-647.770	112.015	-0.124	0.150
-646.755	63.198	-0.060	0.060
-645.741	800.000	0.014	0.039
-644.726	-200.000	-0.047	-0.350
-643.711	-17.613	-0.187	0.118
-642.697	-89.128	-0.171	0.051
-641.682	-10.372	0.185	0.123
-640.668	47.091	-0.230	-0.215
-639.653	199.655	0.054	-0.082
-638.638	21.470	0.109	0.089
-637.624	-200.000	0.007	-0.086
-636.609	-96.553	-0.375	0.099
-635.595	64.831	-0.100	-0.101
-634.580	-46.626	0.330	-0.162
-633.565	98.663	-0.108	-0.125
-632.551	137.725	0.137	-0.180
-631.536	-132.640	0.161	-0.021
-630.522	-157.932	0.131	-0.008
-629.507	800.000	-0.097	-0.301
-628.492	-200.000	0.000	-0.176
-627.478	-40.531	-0.306	-0.159
-626.463	-12.614	0.197	0.129
-625.449	-200.000	-0.003	-0.028
-624.434	24.055	0.193	-0.160
-623.419	-89.803	0.207	-0.061
-622.405	86.737	0.120	-0.133
-621.390	-6.988	-0.311	0.211
-620.376	85.494	0.236	0.260
-619.361	800.000	-0.121	-0.374
-618.346	-65.272	0.285	0.115
-617.332	-69.957	0.303	-0.116
-616.317	39.998	0.062	0.056
-615.303	-31.556	0.165	0.093
-614.288	-52.869	-0.154	-0.071
-613.273	-71.967	0.077	0.029
-612.259	-60.737	-0.336	-0.143
-611.244	-3.300	-0.284	-0.199
-610.230	257.338	0.055	-0.095
-609.215	221.094	0.112	0.181
-608.201	-94.254	-0.079	0.022
-607.186	262.244	-0.181	0.315
-606.171	-50.537	0.110	0.052
-605.157	88.670	0.079	0.089
-604.142	150.186	-0.091	-0.123
-603.128	-37.701	-0.371	-0.198
-602.113	-200.000	0.010	-0.074
-601.098	-146.134	-0.090	0.008
-600.084	-200.000	0.005	-0.224
-599.069	800.000	-0.105	0.296
-598.055	-163.338	-0.207	0.010
-597.040	800.000	0.083	0.275
-596.025	-17.309	-0.091	0.057
-595.011	-189.673	-0.430	0.005
-593.996	3.175	-0.114	-0.083
-592.982	125.825	0.134	-0.170
-591.967	207.158	0.131	-0.205
-590.952	385.632	0.167	0.344
-589.938	-15.335	-0.149	-0.096
-588.923	-130.718	-0.118	-0.016
-587.909	-200.000	0.032	-0.141
-586.894	-200.000	-0.035	-0.295
-585.879	25.674	0.250	-0.208
-584.865	13.629	-0.101	-0.079
-583.850	351.235	-0.034	0.068
-582.836	-2.215	0.132	0.093
-581.821	800.000	0.002	0.010
-580.806	-57.940	0.069	0.030
-579.792	-47.489	0.298	0.145
-578.777	-158.735	0.147	-0.008
-577.763	-61.636	-0.195	-0.082
-576.748	-159.781	-0.180	-0.010
-575.733	-73.525	0.115	0.042
-574.719	67.336	-0.192	0.196
-573.704	-200.000	-0.007	-0.143
-572.690	-200.000	0.007	-0.086
-571.675	-198.359	-0.071	0.000
-570.661	-200.000	-0.040	-0.230
-569.646	51.009	0.046	-0.044
-568.631	-100.435	0.144	-0.036
-567.617	208.130	-0.229	-0.357
-566.602	35.649	0.132	-0.116
-565.588	15.781	0.293	-0.231
-564.573	787.922	-0.135	-0.371
-563.558	77.345	0.152	0.162
-562.544	-95.487	-0.048	0.013
-561.529	102.607	0.192	0.224
-560.515	53.687	0.292	-0.280
-559.500	526.233	-0.048	0.114
-558.485	195.153	0.074	0.112
-557.471	2.968	0.295	-0.214
-556.456	-91.357	-0.073	0.021
-555.442	-153.118	0.519	-0.036
-554.427	-35.742	0.270	-0.146
-553.412	800.000	0.029	-0.087
-552.398	-179.893	0.148	0.003
-551.383	-200.000	0.063	0.406
-550.369	-87.763	0.107	-0.032
-549.354	78.293	-0.164	0.175
-548.339	-200.000	0.044	0.225
-547.325	-111.436	0.277	0.056
-546.310	0.463	-0.183	0.131
-545.296	-73.754	-0.089	-0.032
-544.281	-200.000	-0.015	0.110
-543.266	-92.593	0.068	-0.019
-542.252	1.042	-0.204	0.146
-541.237	800.000	-0.052	0.200
-540.223	39.552	0.391	0.350
-539.208	53.663	0.122	0.117
-538.193	-36.347	0.153	0.082
-537.179	433.923	0.099	0.214
-536.164	-200.000	0.032	-0.249
-535.150	144.008	-0.088	0.117
-534.135	-11.317	0.295	-0.194
-533.121	704.377	-0.049	-0.129
-532.106	131.261	-0.123	-0.158
-531.091	503.544	0.111	-0.256
-530.077	-52.279	0.364	0.169
-529.062	-122.524	0.334	0.054
-528.048	-118.973	0.333	0.058
-527.033	197.741	0.027	0.042
-526.018	-86.749	0.116	-0.035
-525.004	134.899	0.158	-0.205
-523.989	16.257	-0.183	0.144
-522.975	225.754	-0.109	0.176
-521.960	-200.000	0.065	-0.340
-520.945	-31.856	-0.075	0.042
-519.931	-16.518	-0.047	0.029
-518.916	30.401	0.075	-0.064
-517.902	-165.108	0.162	0.007
-516.887	163.272	-0.051	-0.071
-515.872	31.287	-0.174	0.150
-514.858	94.077	0.171	0.194
-513.843	-200.000	-0.026	-0.206
-512.829	127.340	-0.020	0.025
-511.814	-167.120	-0.218	-0.009
-510.799	739.409	-0.073	0.194
-509.785	-200.000	-0.021	-0.217
-508.770	150.477	0.007	-0.010
-507.756	-125.044	0.073	-0.011
-506.741	11.572	-0.284	0.217
-505.726	-200.000	0.005	0.043
-504.712	-193.362	-0.260	-0.002
-503.697	218.917	-0.135	0.215
-502.683	17.992	0.183	-0.145
-501.668	800.000	0.031	-0.127
-500.653	-34.108	0.254	0.139
-499.639	90.526	0.136	-0.152
-498.624	51.283	0.026	-0.024
-497.610	-200.000	-0.004	-0.031
-496.595	272.267	-0.058	0.103
-495.581	643.501	-0.029	-0.073
-494.566	800.000	-0.024	0.093
-493.551	800.000	-0.082	-0.340
-492.537	-200.000	-0.011	0.280
-491.522	-171.915	-0.317	0.010
-490.508	-90.875	0.401	-0.115
-489.493	-171.066	0.174	-0.006
-488.478	-107.617	-0.059	-0.013
-487.464	46.275	-0.028	0.026
-486.449	-158.135	0.233	0.014
-485.435	20.723	0.224	-0.181
-484.420	-22.793	-0.079	0.048
-483.405	-200.000	-0.001	-0.017
-482.391	-70.728	-0.111	0.042
-481.376	226.809	-0.246	0.398
-480.362	-67.808	0.209	-0.082
-479.347	148.630	0.096	-0.130
-478.332	-70.483	0.135	-0.051
-477.318	800.000	-0.051	-0.168
-476.303	-65.808	-0.101	-0.040
-475.289	206.219	0.067	-0.104
-474.274	154.105	0.040	-0.055
-473.259	195.300	0.022	0.034
-472.245	-200.000	-0.037	0.164
-471.230	-12.050	-0.248	0.162
-470.216	-130.430	0.203	0.027
-469.201	-42.280	-0.116	-0.059
-468.186	-16.564	-0.203	-0.128
-467.172	800.000	-0.066	-0.192
-466.157	-100.170	0.109	0.027
-465.143	89.689	-0.143	0.159
-464.128	-129.033	-0.141	0.020
-463.113	11.760	-0.221	-0.169
-462.099	800.000	-0.118	-0.355
-461.084	-62.067	-0.499	-0.207
-460.070	127.145	-0.053	0.067
-459.055	183.913	0.236	-0.348
-458.040	251.745	0.063	-0.107
-457.026	-108.453	-0.242	-0.052
-456.011	800.000	0.080	0.266
-454.997	104.188	0.178	0.209
-453.982	-80.002	0.243	-0.081
-452.968	-200.000	0.011	-0.232
-451.953	800.000	-0.076	-0.224
-450.938	79.417	-0.151	-0.162
-449.924	800.000	-0.064	0.237
-448.909	59.281	-0.115	0.113
-447.895	362.793	-0.131	-0.263
-446.880	526.912	-0.077	-0.181
-445.865	660.528	0.101	0.259
-444.851	-200.000	0.003	0.066
-443.836	800.000	-0.095	-0.268
-442.822	-200.000	0.040	0.262
-441.807	-200.000	0.037	0.164
-440.792	396.967	-0.118	0.246
-439.778	-160.433	0.211	0.011
-438.763	-168.531	0.589	-0.022
-437.749	78.298	0.192	-0.204
-436.734	800.000	-0.066	0.248
-435.719	-200.000	0.008	0.220
-434.705	-98.783	0.572	0.145
-433.690	50.032	-0.170	0.159
-432.676	29.216	-0.309	0.261
-431.661	-142.794	-0.039	-0.004
-430.646	586.993	-0.076	0.185
-429.632	-3.963	0.168	-0.116
-428.617	157.886	-0.284	0.392
-427.603	181.317	-0.114	-0.166
-426.588	-157.087	-0.058	-0.004
-425.573	-48.604	0.326	0.156
-424.559	800.000	0.105	0.290
-423.544	-115.620	0.136	0.025
-422.530	800.000	0.053	-0.183
-421.515	-50.303	0.161	0.076
-420.500	-63.237	-0.132	0.054
-419.486	-116.131	-0.382	-0.071
-418.471	134.060	-0.194	0.249
-417.457	-200.000	0.020	0.237
-416.442	-73.301	0.203	0.074
-415.428	33.803	0.127	-0.110
-414.413	-173.216	-0.365	-0.011
-413.398	-127.594	-0.251	-0.036
-412.384	510.758	-0.159	-0.367
-411.369	164.807	-0.168	0.236
-410.355	481.774	-0.066	0.149
-409.340	-82.893	0.171	0.055
-408.325	-200.000	-0.023	-0.119
-407.311	800.000	-0.045	0.162
-406.296	-93.922	-0.159	0.044
-405.282	800.000	-0.039	0.115
-404.267	-36.833	0.176	-0.094
-403.252	-56.600	0.299	-0.132
-402.238	416.551	-0.182	-0.386
-401.223	220.555	-0.222	0.354
-400.209	-68.787	-0.060	0.023
-399.194	204.942	-0.072	-0.111
-398.179	-141.332	0.062	0.006
-397.165	-95.523	0.159	-0.042
-396.150	72.031	-0.131	0.135
-395.136	557.686	0.093	0.222
-394.121	-155.694	0.230	-0.015
-393.106	-200.000	-0.013	0.314
-392.092	800.000	-0.117	-0.437
-391.077	800.000	0.058	0.201
-390.063	290.730	-0.161	-0.291
-389.048	-152.363	0.312	-0.022
-388.033	86.771	0.262	-0.288
-387.019	90.387	0.173	-0.192
-386.004	-88.728	-0.279	-0.082
-384.990	-61.400	-0.204	0.085
-383.975	-171.892	0.263	0.009
-382.960	87.553	-0.231	-0.254
-381.946	-87.023	-0.201	0.061
-380.931	-12.109	0.296	-0.192
-379.917	-161.634	0.271	-0.014
-378.902	-200.000	-0.028	-0.245
-377.888	438.213	0.086	0.187
-376.873	-46.926	-0.240	0.116
-375.858	-117.973	0.122	0.022
-374.844	800.000	-0.027	-0.099
-373.829	171.609	0.089	-0.127
-372.815	-200.000	-0.043	0.270
-371.800	-1.743	-0.134	-0.094
-370.785	-81.551	-0.150	0.049
-369.771	8.566	0.244	0.182
-368.756	0.530	-0.133	0.095
-367.742	-118.245	-0.210	0.037
-366.727	-170.041	-0.146	0.005
-365.712	-200.000	-0.013	0.305
-364.698	58.828	-0.035	0.034
-363.683	12.395	-0.119	-0.091
-362.669	-112.049	0.335	0.067
-361.654	-142.046	-0.095	0.009
-360.639	-141.710	0.227	0.023
-359.625	-200.000	-0.005	0.146
-358.610	-119.902	0.064	-0.011
-357.596	65.521	-0.112	-0.113
-356.581	90.503	-0.252	-0.280
-355.566	-149.066	0.523	-0.042
-354.552	-200.000	-0.022	0.127
-353.537	-2.736	0.103	0.071
-352.523	-54.721	-0.175	0.078
-351.508	-200.000	0.019	0.110
-350.493	-84.670	0.068	-0.021
-349.479	17.552	0.128	-0.101
-348.464	-200.000	0.026	0.308
-347.450	-200.000	0.047	0.376
-346.435	-200.000	0.026	-0.189
-345.420	174.735	-0.150	-0.216
-344.406	800.000	0.008	-0.023
-343.391	18.476	0.014	-0.011
-342.377	-200.000	0.003	0.032
-341.362	19.143	-0.178	-0.141
-340.348	388.811	0.094	-0.194
-339.333	85.166	0.193	0.210
-338.318	-121.780	-0.220	-0.036
-337.304	-200.000	0.004	0.172
-336.289	-81.127	-0.408	0.134
-335.275	580.416	-0.069	0.168
-334.260	73.001	0.029	-0.030
-333.245	-41.264	0.175	-0.090
-332.231	750.173	0.060	-0.159
-331.216	-200.000	0.046	-0.232
-330.202	-62.984	-0.128	-0.052
-329.187	543.058	0.083	-0.197
-328.172	-76.492	-0.196	0.068
-327.158	143.398	-0.062	-0.082
-326.143	-200.000	0.038	-0.448
-325.129	-200.000	-0.034	-0.189
-324.114	-3.897	0.228	0.157
-323.099	800.000	-0.080	-0.221
-322.085	-145.685	-0.027	-0.002
-321.070	-177.516	-0.327	0.008
-320.056	-48.205	-0.152	0.073
-319.041	-21.409	-0.313	-0.189
-318.026	-200.000	-0.006	-0.166
-317.012	-29.611	0.061	0.035
-315.997	174.367	-0.270	-0.387
-314.983	800.000	0.031	-0.087
-313.968	224.811	-0.184	-0.295
-312.953	-64.299	-0.347	-0.140
-311.939	10.057	-0.162	0.122
-310.924	-191.350	0.393	-0.004
-309.910	-41.931	0.153	-0.078
-308.895	25.068	-0.252	0.207
-307.880	24.175	0.135	-0.110
-306.866	100.065	-0.146	-0.167
-305.851	50.330	0.272	-0.254
-304.837	-67.278	-0.185	-0.072
-303.822	-200.000	-0.069	0.389
-302.807	-41.042	0.171	0.087
-301.793	-10.775	-0.124	0.081
-300.778	-62.966	0.396	0.162
-299.764	13.696	-0.236	0.182
-298.749	800.000	-0.087	0.366
-297.735	-57.488	0.068	-0.029
-296.720	800.000	-0.055	-0.209
-295.705	338.044	-0.200	-0.386
-294.691	-200.000	0.013	-0.086
-293.676	-82.131	-0.130	-0.042
-292.662	-200.000	-0.056	0.261
-291.647	-45.393	0.143	0.070
-290.632	-146.470	0.133	0.011
-289.618	-46.721	0.133	-0.064
-288.603	-133.329	0.374	-0.047
-287.589	-77.924	-0.073	0.025
-286.574	-126.459	-0.388	0.057
-285.559	-200.000	0.012	0.129
-284.545	-85.060	-0.338	-0.105
-283.530	-200.000	-0.003	0.228
-282.516	567.908	-0.046	0.111
-281.501	800.000	0.077	0.303
-280.486	-42.367	0.145	0.073
-279.472	-200.000	-0.011	0.078
-278.457	-200.000	-0.007	-0.316
-277.443	310.312	-0.057	0.106
-276.428	-85.027	0.210	0.065
-275.413	800.000	0.067	-0.228
-274.399	25.156	-0.318	0.261
-273.384	-195.230	-0.165	-0.001
-272.370	-2.806	0.243	-0.168
-271.355	-200.000	0.013	-0.192
-270.340	-200.000	0.001	0.267
-269.326	800.000	0.061	-0.170
-268.311	-37.658	0.200	-0.105
-267.297	447.621	-0.084	-0.182
-266.282	594.706	0.070	-0.172
-265.267	-187.423	-0.327	-0.004
-264.253	171.875	0.138	0.196
-263.238	-53.859	-0.095	0.043
-262.224	-200.000	0.014	-0.416
-261.209	-197.173	0.241	-0.002
-260.195	178.832	0.120	0.173
-259.180	73.442	0.159	-0.164
-258.165	-162.708	0.404	-0.020
-257.151	800.000	-0.037	-0.145
-256.136	-200.000	0.033	0.223
-255.122	-92.457	0.202	0.056
-254.107	43.777	-0.136	-0.123
-253.092	45.500	-0.203	-0.185
-252.078	-31.902	0.219	-0.121
-251.063	800.000	-0.044	-0.126
-250.049	140.903	0.134	-0.175
-249.034	-26.428	-0.198	-0.114
-248.019	714.017	-0.018	0.048
-247.005	-61.720	-0.134	-0.055
-245.990	-98.967	0.131	-0.033
-244.976	313.637	-0.196	0.365
-243.961	-70.986	0.412	0.153
-242.946	277.774	-0.069	0.121
-241.932	-97.940	-0.125	-0.032
-240.917	-200.000	0.027	0.153
-239.903	287.784	-0.285	0.509
-238.888	334.446	-0.145	0.278
-237.873	-181.064	0.198	0.004
-236.859	800.000	0.140	0.385
-235.844	-96.410	-0.231	0.060
-234.830	-64.016	0.118	0.048
-233.815	-200.000	0.002	0.023
-232.800	-141.835	-0.216	0.021
-231.786	-200.000	0.015	0.092
-230.771	-147.173	-0.306	0.026
-229.757	272.413	0.036	0.063
-228.742	-200.000	-0.012	-0.091
-227.727	-29.230	0.124	0.070
-226.713	-81.554	-0.141	0.046
-225.698	-110.724	0.299	-0.061
-224.684	-85.050	0.214	-0.066
-223.669	-74.797	-0.176	0.062
-222.655	1.109	0.292	0.207
-221.640	800.000	-0.056	-0.178
-220.625	191.712	-0.303	-0.450
-219.611	-200.000	0.002	0.185
-218.596	-200.000	0.010	0.245
-217.582	124.553	0.132	-0.164
-216.567	199.159	0.250	0.377
-215.552	-189.095	-0.092	0.001
-214.538	6.769	0.036	-0.026
-213.523	800.000	0.116	-0.321
-212.509	-200.000	0.031	-0.148
-211.494	304.946	-0.024	0.045
-210.479	800.000	0.111	0.371
-209.465	-25.840	0.188	0.109
-208.450	-27.673	-0.195	0.111
-207.436	-50.162	-0.305	-0.142
-206.421	60.630	-0.151	-0.148
-205.406	-165.488	0.277	0.012
-204.392	-90.481	0.021	-0.006
-203.377	800.000	-0.104	0.303
-202.363	-115.254	-0.226	0.042
-201.348	-200.000	0.007	0.063
-200.333	-78.404	-0.018	0.006
-199.319	27.760	0.229	-0.190
-198.304	-200.000	0.039	-0.251
-197.290	-21.458	-0.121	-0.073
-196.275	-25.291	0.156	0.091
-195.260	-41.539	-0.206	0.105
-194.246	368.128	-0.027	0.053
-193.231	-120.101	-0.112	-0.019
-192.217	-200.000	-0.023	0.226
-191.202	285.678	-0.139	0.247
-190.187	-55.056	0.207	-0.092
-189.173	-6.816	0.044	0.029
-188.158	44.219	0.061	-0.055
-187.144	-50.694	-0.215	-0.100
-186.129	-127.075	-0.142	-0.021
-185.114	-200.000	-0.027	0.156
-184.100	800.000	0.022	-0.093
-183.085	-0.058	0.187	-0.131
-182.071	264.735	-0.161	-0.277
-181.056	54.360	-0.274	-0.260
-180.042	-125.651	0.258	-0.038
-179.027	17.753	-0.017	0.014
-178.012	-200.000	-0.007	0.067
-176.998	321.308	-0.093	0.174
-175.983	-5.260	-0.177	0.120
-174.969	-133.443	0.334	0.041
-173.954	-200.000	0.002	0.086
-172.939	-1.925	-0.059	-0.041
-171.925	-167.629	-0.115	-0.004
-170.910	305.682	-0.035	-0.065
-169.896	21.767	-0.020	0.016
-168.881	-145.253	-0.264	-0.024
-167.866	-11.588	-0.067	-0.043
-166.852	-49.696	0.161	0.075
-165.837	-18.637	0.202	-0.124
-164.823	129.083	-0.083	-0.105
-163.808	-200.000	-0.015	0.133
-162.793	-76.470	0.357	0.123
-161.779	-70.822	-0.183	-0.068
-160.764	-122.302	0.324	0.052
-159.750	448.400	-0.045	0.097
-158.735	-77.728	-0.172	0.058
-157.720	82.226	-0.164	-0.175
-156.706	800.000	0.038	0.107
-155.691	7.716	-0.243	-0.179
-154.677	186.999	0.160	0.235
-153.662	800.000	0.045	0.154
-152.647	598.943	0.188	0.459
-151.633	800.000	-0.067	0.203
-150.618	-56.651	0.338	-0.147
-149.604	800.000	-0.063	-0.235
-148.589	-118.276	0.295	0.052
-147.574	-200.000	0.026	-0.250
-146.560	136.050	-0.063	-0.080
-145.545	-65.100	-0.177	0.070
-144.531	83.743	0.209	-0.225
-143.516	53.346	-0.189	0.178
-142.502	9.605	-0.174	0.130
-141.487	1.494	0.126	0.089
-140.472	-15.500	0.187	0.118
-139.458	-7.745	-0.231	-0.153
-138.443	800.000	0.079	-0.246
-137.429	495.215	0.030	-0.068
-136.414	-83.750	-0.097	0.030
-135.399	-119.283	0.134	-0.023
-134.385	-200.000	0.014	0.194
-133.370	-91.622	-0.187	-0.052
-132.356	-200.000	0.080	-0.397
-131.341	111.167	0.087	-0.103
-130.326	-11.683	0.284	0.183
-129.312	-17.343	-0.086	-0.053
-128.297	-200.000	0.096	0.425
-127.283	-200.000	-0.356	-0.001
-126.268	-127.170	-0.165	0.024
-125.253	693.495	-0.037	-0.095
-124.239	-78.966	0.237	-0.079
-123.224	67.423	-0.123	-0.124
-122.210	118.617	-0.168	0.204
-121.195	-42.350	0.277	0.139
-120.180	70.626	0.193	0.196
-119.166	-124.824	-0.345	-0.052
-118.151	800.000	0.065	-0.251
-117.137	800.000	-0.037	0.158
-116.122	-41.612	-0.206	-0.104
-115.107	-185.287	0.350	0.005
-114.093	-47.105	-0.068	0.032
-113.078	-200.000	-0.003	0.114
-112.064	-86.039	0.142	0.043
-111.049	-81.952	-0.437	-0.140
-110.034	245.380	0.222	0.367
-109.020	-66.348	-0.341	-0.133
-108.005	129.010	-0.209	-0.262
-106.991	-200.000	-0.042	0.225
-105.976	-143.097	0.145	-0.014
-104.962	-200.000	0.054	-0.512
-103.947	-124.094	0.126	-0.019
-102.932	184.220	-0.269	-0.392
-101.918	800.000	0.011	0.037
-100.903	24.404	-0.029	-0.024
-99.889	561.387	-0.047	0.110
-98.874	106.196	0.200	0.233
-97.859	-48.191	0.273	0.129
-96.845	800.000	-0.041	0.117
-95.830	192.140	0.055	-0.081
-94.816	165.081	-0.130	0.181
-93.801	21.218	-0.215	0.171
-92.786	-152.726	-0.387	-0.027
-91.772	59.544	0.158	0.153
-90.757	800.000	0.073	-0.236
-89.743	89.027	-0.211	-0.231
-88.728	48.510	0.257	-0.236
-87.713	800.000	-0.071	-0.203
-86.699	150.883	0.204	0.272
-85.684	-65.109	0.259	0.102
-84.670	136.926	-0.111	0.142
-83.655	22.662	0.014	0.012
-82.640	-40.250	-0.222	0.113
-81.626	313.039	-0.219	-0.405
-80.611	-183.834	0.257	0.004
-79.597	203.643	-0.131	-0.200
-78.582	-55.421	-0.355	-0.156
-77.567	-25.722	-0.078	0.045
-76.553	800.000	-0.102	-0.295
-75.538	-168.059	0.142	-0.005
-74.524	182.394	0.121	0.175
-73.509	256.886	0.083	0.140
-72.494	-46.608	0.162	-0.078
-71.480	-200.000	-0.018	0.211
-70.465	-200.000	-0.088	0.400
-69.451	42.832	0.193	0.173
-68.436	800.000	-0.018	0.051
-67.422	14.125	-0.269	0.206
-66.407	81.720	-0.136	0.144
-65.392	444.913	-0.152	0.326
-64.378	-82.465	-0.182	-0.058
-63.363	-143.674	0.216	0.020
-62.349	280.197	-0.087	0.152
-61.334	0.330	-0.989	-0.692
-60.319	525.412	0.353	0.815
-59.305	-200.000	-0.187	-1.206
-58.290	800.000	0.255	0.937
-57.276	391.120	0.693	1.410
-56.261	-200.000	110.615	624.941
-55.246	518.997	1508.169	3462.555
-54.232	177.947	2687.433	3842.230
-53.217	111.527	2151.092	2543.308
-52.203	40.916	1599.279	1414.790
-51.188	33.014	1341.781	1139.522
-50.173	29.774	1301.493	1086.268
-49.159	54.254	1357.694	1280.778
-48.144	54.601	1372.217	1296.500
-47.130	33.066	1326.028	1126.278
-46.115	29.637	1308.384	1091.040
-45.100	29.369	1303.351	1085.221
-44.086	29.328	1300.643	1082.682
-43.071	29.278	1298.421	1080.499
-42.057	29.237	1296.222	1078.384
-41.042	29.317	1294.510	1077.388
-40.027	29.327	1293.078	1076.210
-39.013	29.285	1291.448	1074.564
-37.998	29.395	1289.073	1073.185
-36.984	29.305	1287.680	1071.461
-35.969	29.408	1286.242	1070.820
-34.954	29.459	1284.309	1069.462
-33.940	29.411	1283.279	1068.286
-32.925	29.530	1281.550	1067.494
-31.911	29.496	1280.340	1066.245
-30.896	29.677	1278.435	1065.662
-29.881	29.537	1277.236	1063.813
-28.867	29.576	1275.935	1062.911
-27.852	29.506	1275.001	1061.686
-26.838	29.618	1273.132	1060.734
-25.823	29.501	1271.861	1058.958
-24.809	29.521	1270.920	1058.250
-23.794	29.494	1269.452	1056.832
-22.779	29.605	1268.148	1056.339
-21.765	29.440	1266.795	1054.227
-20.750	29.443	1265.665	1053.259
-19.736	29.507	1264.205	1052.369
-18.721	29.381	1263.001	1050.606
-17.706	29.513	1261.517	1050.084
-16.692	29.447	1260.952	1049.195
-15.677	29.398	1259.830	1047.941
-14.663	29.228	1258.890	1046.152
-13.648	29.387	1257.118	1045.541
-12.633	29.440	1256.450	1045.241
-11.619	29.425	1255.912	1044.671
-10.604	29.309	1254.928	1043.151
-9.590	29.379	1253.933	1042.683
-8.575	29.390	1252.910	1041.850
-7.560	29.311	1252.256	1040.818
-6.546	29.369	1251.465	1040.448
-5.531	29.404	1250.190	1039.543
-4.517	29.355	1249.431	1038.597
-3.502	29.429	1248.728	1038.384
-2.487	29.410	1247.658	1037.347
-1.473	29.322	1243.868	1033.662
-0.458	27.645	1227.939	1011.094
0.556	24.268	1210.086	970.887
1.571	20.186	1214.987	952.364
2.586	19.146	1229.404	957.795
3.600	18.716	1217.662	946.195
4.615	14.194	1146.602	867.375
5.629	6.713	1074.617	776.179
6.644	3.492	1056.503	747.435
7.659	3.173	1053.790	743.909
8.673	3.156	1052.624	742.941
9.688	3.190	1051.788	742.448
10.702	3.393	1049.539	741.773
11.717	7.509	1055.327	765.682
12.731	15.215	1066.215	810.937
13.746	19.671	1071.045	836.153
14.761	20.108	1071.255	838.355
15.775	19.103	1069.653	832.169
16.790	18.107	1067.882	825.909
17.804	17.449	1066.071	821.263
18.819	17.148	1065.058	818.957
19.834	17.030	1064.328	817.755
20.848	16.873	1063.455	816.255
21.863	16.709	1062.650	814.776
22.877	16.577	1062.155	813.689
23.892	16.576	1060.886	812.642
24.907	16.588	1060.578	812.393
25.921	16.676	1059.373	811.819
26.936	16.603	1058.431	810.675
27.950	16.592	1056.711	809.232
28.965	16.791	1055.181	808.943
29.980	16.881	1053.667	808.139
30.994	16.938	1053.086	807.891
32.009	17.015	1052.329	807.607
33.023	16.977	1051.056	806.379
34.038	16.798	1050.027	804.664
35.053	16.713	1049.051	803.445
36.067	16.705	1047.931	802.476
37.082	16.801	1047.531	802.553
38.096	16.889	1046.575	802.168
39.111	16.798	1046.255	801.422
40.126	16.636	1045.059	799.669
41.140	16.519	1043.196	797.622
42.155	16.514	1041.814	796.470
43.169	16.395	1041.037	795.244
44.184	16.371	1040.317	794.511
45.199	16.338	1038.870	793.180
46.213	16.499	1038.213	793.366
47.228	16.616	1037.528	793.320
48.242	16.529	1036.885	792.352
49.257	16.704	1035.208	791.820
50.271	16.676	1034.997	791.455
51.286	16.747	1033.711	790.733
52.301	16.706	1032.891	789.845
53.315	16.617	1031.715	788.463
54.330	16.383	1031.058	786.798
55.344	16.428	1029.981	786.119
56.359	16.444	1029.042	785.404
57.374	16.399	1028.288	784.551
58.388	16.374	1027.534	783.792
59.403	16.308	1026.544	782.660
60.417	16.291	1025.738	781.898
61.432	16.376	1024.388	781.194
62.447	16.264	1024.161	780.435
63.461	16.227	1023.348	779.575
64.476	16.202	1022.468	778.717
65.490	16.230	1021.551	778.081
66.505	16.163	1021.192	777.428
67.520	16.283	1020.108	777.089
68.534	16.178	1019.759	776.271
69.549	16.282	1018.950	776.066
70.563	16.112	1018.117	774.580
71.578	16.091	1017.212	773.726
72.593	16.008	1016.422	772.675
73.607	15.969	1015.820	771.972
74.622	16.107	1015.142	772.022
75.636	16.087	1014.762	771.572
76.651	16.060	1014.131	770.899
77.666	16.062	1013.416	770.297
78.680	16.215	1012.219	770.017
79.695	16.200	1011.974	769.695
80.709	16.354	1011.365	769.866
81.724	16.412	1010.729	769.578
82.739	16.452	1009.679	768.892
83.753	16.633	1009.876	769.795
84.768	17.006	1008.333	770.248
85.782	16.863	1008.114	769.362
86.797	16.848	1006.734	768.170
87.812	16.719	1006.124	767.054
88.826	16.762	1004.847	766.209
89.841	16.884	1004.056	766.089
90.855	16.845	1003.385	765.330
91.870	17.014	1002.511	765.359
92.884	16.900	1001.397	763.929
93.899	16.974	1000.477	763.495
94.914	17.065	999.951	763.433
95.928	17.016	999.091	762.489
96.943	16.798	998.469	760.967
97.957	16.942	997.101	760.502
98.972	16.840	996.461	759.491
99.987	16.870	995.741	759.008
101.001	16.827	994.755	757.998
102.016	16.828	994.167	757.486
103.030	16.848	993.377	756.906
104.045	16.814	992.577	756.079
105.060	16.787	991.449	755.034
106.074	16.546	990.495	753.168
107.089	16.427	989.256	751.627
108.103	16.298	988.831	750.667
109.118	16.254	987.604	749.475
110.133	16.270	986.382	748.548
111.147	16.356	985.648	748.310
112.162	16.380	984.726	747.650
113.176	16.396	984.488	747.472
114.191	16.586	983.237	747.297
115.206	16.483	982.891	746.513
116.220	16.441	981.861	745.476
117.235	16.333	980.496	743.900
118.249	16.367	980.194	743.755
119.264	16.186	979.605	742.446
120.279	16.235	978.646	741.868
121.293	16.198	977.481	740.759
122.308	16.276	976.538	740.321
123.322	16.215	975.643	739.306
124.337	16.153	974.157	737.847
125.352	16.154	973.323	737.151
126.366	16.192	972.305	736.481
127.381	16.128	971.658	735.648
128.395	16.223	970.785	735.338
129.410	16.265	969.844	734.742
130.424	16.199	969.348	734.014
131.439	16.403	968.618	734.283
132.454	16.563	967.388	733.977
133.468	16.447	966.856	733.007
134.483	16.464	965.957	732.334
135.497	16.427	965.648	731.876
136.512	16.498	964.521	731.262
137.527	16.447	963.760	730.400
138.541	16.463	962.778	729.660
139.556	16.564	962.551	729.862
140.570	16.630	962.043	729.696
141.585	16.888	961.109	730.034
142.600	16.955	959.903	729.342
143.614	16.981	959.078	728.763
144.629	16.960	958.573	728.224
145.643	16.923	957.800	727.414
146.658	16.848	956.562	726.087
147.673	16.592	955.794	724.346
148.687	16.566	954.434	723.137
149.702	16.488	953.859	722.305
150.716	16.410	953.220	721.424
151.731	16.528	952.282	721.155
152.746	16.642	951.736	721.162
153.760	16.682	951.013	720.721
154.775	16.717	950.702	720.571
155.789	16.689	949.961	719.824
156.804	16.696	949.093	719.133
157.819	16.924	948.152	719.325
158.833	16.902	948.070	719.107
159.848	17.177	946.653	719.130
160.862	16.957	946.080	717.700
161.877	16.650	945.098	715.595
162.892	16.400	944.338	713.902
163.906	16.517	943.264	713.519
164.921	16.487	942.300	712.603
165.935	16.636	941.155	712.298
166.950	16.649	940.519	711.809
167.964	16.656	939.560	711.048
168.979	16.643	938.831	710.381
169.994	16.781	937.803	710.117
171.008	16.871	937.516	710.217
172.023	16.861	937.290	709.940
173.037	16.987	936.118	709.517
174.052	16.957	934.916	708.416
175.067	16.697	934.553	706.992
176.081	16.597	933.927	706.041
177.096	16.582	933.322	705.459
178.110	16.793	932.663	705.775
179.125	16.800	932.209	705.400
180.140	16.678	931.812	704.529
181.154	16.822	931.420	704.770
182.169	16.918	931.217	704.952
183.183	17.043	929.983	704.474
184.198	16.979	929.626	703.877
185.213	17.014	929.164	703.610
186.227	17.195	928.015	703.427
187.242	17.177	927.623	702.993
188.256	17.276	927.184	703.006
189.271	17.190	926.031	701.715
190.286	16.987	925.069	700.088
191.300	16.607	924.184	697.788
192.315	16.426	923.681	696.601
193.329	16.665	922.926	696.956
194.344	16.622	922.473	696.373
195.359	17.005	921.869	697.429
196.373	17.118	921.201	697.329
197.388	17.142	921.220	697.377
198.402	17.322	920.681	697.648
199.417	17.314	920.104	697.114
200.432	17.392	919.997	697.294
201.446	17.423	919.615	697.068
202.461	17.498	918.796	696.693
203.475	17.325	917.933	695.269
204.490	17.241	917.072	694.215
205.504	17.186	916.278	693.325
206.519	17.087	915.780	692.486
207.534	17.117	914.857	691.846
208.548	17.120	914.318	691.389
209.563	17.154	913.481	690.834
210.577	17.309	913.002	691.042
211.592	17.342	912.490	690.725
212.607	17.611	911.461	690.978
213.621	17.399	910.897	689.630
214.636	17.368	910.229	688.936
215.650	17.391	909.629	688.517
216.665	17.488	909.077	688.428
217.680	17.546	908.641	688.272
218.694	17.558	907.644	687.506
219.709	17.583	907.193	687.204
220.723	17.663	906.251	686.750
221.738	17.508	905.607	685.577
222.753	17.491	905.074	685.044
223.767	17.540	904.958	685.093
224.782	17.650	904.490	685.122
225.796	17.647	903.489	684.293
226.811	17.577	903.120	683.670
227.826	17.626	901.993	682.951
228.840	17.557	901.047	681.899
229.855	17.566	900.718	681.628
230.869	17.476	900.212	680.822
231.884	17.447	899.197	679.879
232.899	17.394	898.262	678.901
233.913	17.410	897.304	678.179
234.928	17.368	896.864	677.619
235.942	17.368	896.533	677.310
236.957	17.226	895.984	676.272
237.972	17.211	895.632	675.886
238.986	17.385	894.201	675.438
240.001	17.162	894.357	674.609
241.015	17.418	893.384	674.833
242.030	17.483	893.145	674.848
243.045	17.570	892.250	674.458
244.059	17.545	891.967	674.084
245.074	17.722	891.450	674.334
246.088	17.600	890.501	673.073
247.103	17.898	889.813	673.672
248.117	17.889	889.628	673.435
249.132	18.198	889.208	674.275
250.147	18.326	888.499	674.185
251.161	18.235	888.119	673.478
252.176	18.312	887.239	673.054
253.190	18.353	886.811	672.831
254.205	18.288	886.563	672.326
255.220	18.406	885.270	671.751
256.234	18.409	884.770	671.322
257.249	18.423	883.582	670.418
258.263	18.317	882.972	669.482
259.278	18.146	882.760	668.590
260.293	18.407	882.100	669.053
261.307	18.450	881.584	668.769
262.322	18.450	881.303	668.498
263.336	18.507	880.487	668.041
264.351	18.605	879.389	667.531
265.366	18.453	879.225	666.755
266.380	18.381	878.398	665.791
267.395	18.290	877.876	664.980
268.409	18.324	876.395	663.932
269.424	18.446	875.833	663.920
270.439	18.226	875.276	662.587
271.453	18.180	874.496	661.760
272.468	18.257	873.690	661.391
273.482	18.181	873.354	660.785
274.497	18.330	872.852	660.922
275.512	18.280	872.467	660.377
276.526	18.261	871.874	659.799
277.541	18.365	871.635	659.960
278.555	18.600	870.678	660.078
279.570	18.663	870.302	659.979
280.585	18.526	869.709	658.943
281.599	18.552	868.455	658.037
282.614	18.366	867.958	656.886
283.628	18.334	867.404	656.288
284.643	18.528	866.775	656.497
285.657	18.477	866.090	655.724
286.672	18.475	865.600	655.286
287.687	18.431	865.223	654.777
288.701	18.572	864.280	654.544
289.716	18.452	864.036	653.844
290.730	18.528	863.495	653.663
291.745	18.502	862.825	653.001
292.760	18.503	862.586	652.767
293.774	18.781	861.945	653.281
294.789	18.679	861.231	652.292
295.803	18.515	860.457	651.026
296.818	18.570	859.274	650.282
297.833	18.715	858.900	650.491
298.847	18.544	858.297	649.329
299.862	18.630	857.844	649.256
300.876	18.652	857.836	649.276
301.891	18.808	857.013	649.186
302.906	18.891	856.506	649.058
303.920	19.197	855.727	649.562
304.935	19.054	855.243	648.599
305.949	18.901	854.794	647.626
306.964	18.835	854.064	646.766
307.979	18.831	853.535	646.293
308.993	18.921	853.120	646.260
310.008	19.029	852.390	646.056
311.022	18.924	851.490	644.924
312.037	18.795	851.056	644.052
313.052	18.630	850.699	643.107
314.066	18.740	849.629	642.652
315.081	18.774	849.187	642.388
316.095	18.599	849.154	641.653
317.110	18.665	847.938	640.924
318.125	18.607	847.564	640.368
319.139	18.871	846.900	640.795
320.154	18.758	846.661	640.136
321.168	18.720	846.364	639.713
322.183	18.790	845.472	639.243
323.197	18.794	845.251	639.032
324.212	18.798	844.824	638.670
325.227	18.882	844.067	638.353
326.241	18.688	843.486	637.135
327.256	18.711	842.864	636.695
328.270	18.794	842.400	636.596
329.285	18.849	841.713	636.223
330.300	18.835	840.762	635.396
331.314	18.900	840.587	635.448
332.329	18.919	840.405	635.325
333.343	19.016	839.991	635.315
334.358	18.965	839.488	634.691
335.373	19.060	839.226	634.786
336.387	19.168	838.662	634.703
337.402	19.253	838.365	634.733
338.416	19.293	838.385	634.839
339.431	19.559	837.865	635.368
340.446	19.420	837.870	634.806
341.460	19.283	837.806	634.196
342.475	19.359	837.196	633.958
343.489	19.463	836.466	633.730
344.504	19.574	835.836	633.604
345.519	19.663	835.676	633.755
346.533	19.490	835.024	632.569
347.548	19.317	834.577	631.542
348.562	19.242	833.859	630.669
349.577	19.270	833.067	630.115
350.592	19.092	832.434	628.929
351.606	19.076	831.875	628.392
352.621	19.269	830.746	628.188
353.635	19.123	830.231	627.211
354.650	19.389	829.823	627.815
355.665	19.369	829.259	627.262
356.679	19.348	828.601	626.632
357.694	19.345	827.907	626.042
358.708	19.457	827.248	625.894
359.723	19.509	826.776	625.668
360.738	19.463	826.171	624.989
361.752	19.473	825.582	624.524
362.767	19.561	825.319	624.588
363.781	19.731	824.971	624.884
364.796	19.751	824.466	624.517
365.810	19.908	824.283	624.891
366.825	19.911	823.893	624.551
367.840	19.804	823.358	623.705
368.854	19.858	822.530	623.219
369.869	19.752	822.118	622.467
370.883	19.902	821.398	622.408
371.898	19.813	821.546	622.145
372.913	19.906	821.424	622.331
373.927	19.878	820.531	621.500
374.942	19.944	820.132	621.380
375.956	20.096	819.368	621.289
376.971	20.026	819.298	620.932
377.986	20.068	818.824	620.668
379.000	20.182	818.268	620.600
380.015	20.119	817.841	619.994
381.029	20.000	817.347	619.141
382.044	20.086	816.983	619.117
383.059	20.183	816.139	618.767
384.073	19.930	815.860	617.600
385.088	19.948	814.499	616.579
386.102	19.853	814.175	615.943
387.117	19.761	813.748	615.236
388.132	19.834	813.052	614.915
389.146	19.991	812.307	614.856
390.161	19.994	812.108	614.661
391.175	20.030	811.816	614.515
392.190	20.038	811.034	613.897
393.205	19.874	810.332	612.729
394.219	19.900	810.438	612.846
395.234	19.693	810.109	611.812
396.248	19.733	809.124	611.156
397.263	19.770	808.613	610.846
398.278	19.885	808.200	610.886
399.292	19.709	808.047	610.094
400.307	19.789	807.639	610.016
401.321	19.878	807.027	609.811
402.336	19.956	806.515	609.646
403.350	19.926	806.075	609.155
404.365	20.018	805.935	609.317
405.380	20.338	805.398	609.983
406.394	20.302	804.755	609.317
407.409	20.359	804.436	609.219
408.423	20.422	804.293	609.280
409.438	20.392	804.103	608.976
410.453	20.452	803.570	608.728
411.467	20.345	803.195	608.015
412.482	20.496	802.880	608.253
413.496	20.595	802.271	608.083
414.511	20.617	802.372	608.181
415.526	20.485	801.514	607.018
416.540	20.528	800.968	606.699
417.555	20.588	800.472	606.480
418.569	20.569	799.960	605.971
419.584	20.600	799.628	605.775
420.599	20.515	799.556	605.372
421.613	161.124	1372.592	1795.891
422.628	139.840	1456.057	1795.989
