DTS Sentinel unit serial number:	SN413079Multiplexer serial number:	ORYXHardware model number:	OX4-SRSoftware version number:	ORYX F/W v4.00 Oryx Data Collector v3.7.2.0data status	okinstallation	princeton_trtdifferential loss correction	single-endedforward channel	channel 1reverse channel	N/Adate	2019/09/12time	23:30:35forward acquisition time	60.00reverse acquisition time	0.00gamma	496.2192k internal	0.2328k external	0.2328temperature offset calibration	1.0147default loss term (dB/km)	0.3790temperature slope calibration	1.0000multiplexer offset coefficient	1.0000multiplexer slope coefficient	1.0000fibre end	0.00T internal ref (°C)	29.00T ext. ref 1 (°C)	3.77T ext. ref 2 (°C)	23.61length (m)	temperature (°C)	Stokes	anti-Stokes-747.200	42.771	0.088	-0.081
-746.185	114.663	0.168	0.206
-745.171	-117.221	0.292	0.054
-744.156	29.460	-0.127	0.108
-743.142	-87.239	-0.105	-0.032
-742.127	330.079	-0.091	0.176
-741.112	398.736	0.118	-0.249
-740.098	-176.659	-0.210	-0.005
-739.083	-106.663	0.433	-0.097
-738.069	-117.008	0.140	0.026
-737.054	-184.356	-0.132	0.002
-736.039	-126.961	-0.480	-0.071
-735.025	800.000	0.059	0.167
-734.010	130.161	-0.301	-0.389
-732.996	-84.698	-0.411	-0.130
-731.981	-46.772	-0.049	-0.024
-730.966	-200.000	0.006	0.147
-729.952	-70.046	0.063	0.024
-728.937	199.012	-0.078	0.121
-727.923	286.782	-0.136	-0.247
-726.908	-200.000	0.030	-0.195
-725.894	31.898	0.154	0.134
-724.879	-92.846	-0.368	-0.104
-723.864	-200.000	-0.048	-0.234
-722.850	-130.742	0.334	-0.045
-721.835	122.060	0.145	-0.183
-720.821	171.839	-0.048	0.070
-719.806	54.254	0.166	0.160
-718.791	-110.109	0.248	0.052
-717.777	307.244	0.196	-0.367
-716.762	-65.607	-0.103	0.042
-715.748	-119.022	0.166	0.029
-714.733	247.092	-0.270	-0.458
-713.718	165.823	0.148	-0.210
-712.704	138.942	-0.127	0.168
-711.689	-4.678	-0.297	-0.207
-710.675	191.960	-0.089	-0.135
-709.660	748.257	0.173	-0.469
-708.645	80.193	-0.272	-0.295
-707.631	-117.201	-0.357	0.065
-706.616	-200.000	-0.041	-0.504
-705.602	-200.000	0.303	0.000
-704.587	-85.743	-0.368	-0.115
-703.572	-152.443	0.184	0.013
-702.558	-200.000	-0.034	-0.155
-701.543	-30.628	0.239	0.136
-700.529	-169.899	0.117	-0.004
-699.514	-87.932	0.294	0.089
-698.499	-131.728	-0.263	0.035
-697.485	-140.859	0.296	0.031
-696.470	-111.162	-0.164	-0.034
-695.456	-116.661	0.165	0.030
-694.441	56.544	0.253	0.247
-693.426	180.913	-0.112	-0.165
-692.412	800.000	0.029	-0.090
-691.397	626.826	-0.072	-0.182
-690.383	228.429	0.177	-0.290
-689.368	-68.992	0.077	0.030
-688.354	-45.402	0.031	0.016
-687.339	-149.681	-0.241	0.019
-686.324	-131.261	-0.250	0.033
-685.310	-200.000	-0.031	-0.151
-684.295	-152.093	-0.273	-0.020
-683.281	530.223	0.089	-0.211
-682.266	-47.234	0.318	-0.156
-681.251	-15.921	0.180	0.115
-680.237	158.106	-0.108	0.151
-679.222	800.000	-0.040	0.158
-678.208	-52.134	0.209	0.097
-677.193	-114.492	0.053	-0.010
-676.178	-122.048	-0.140	0.023
-675.164	-200.000	0.016	0.075
-674.149	166.003	-0.023	-0.032
-673.135	-158.830	0.175	0.010
-672.120	-129.803	-0.071	0.010
-671.105	800.000	-0.099	-0.414
-670.091	-120.430	-0.227	-0.039
-669.076	-200.000	-0.098	-0.661
-668.062	800.000	0.039	-0.134
-667.047	-66.772	0.296	-0.118
-666.032	-33.852	0.456	-0.252
-665.018	112.598	0.203	-0.247
-664.003	-142.297	0.068	0.007
-662.989	81.195	0.256	-0.278
-661.974	-200.000	-0.017	0.271
-660.959	176.759	0.101	0.147
-659.945	-109.515	0.261	-0.055
-658.930	800.000	-0.112	-0.421
-657.916	58.025	-0.345	-0.340
-656.901	-200.000	-0.024	0.315
-655.886	-73.584	0.217	-0.079
-654.872	800.000	-0.035	-0.116
-653.857	147.152	-0.171	-0.230
-652.843	-9.364	0.521	0.349
-651.828	-5.492	0.190	-0.131
-650.814	306.940	-0.072	-0.135
-649.799	501.060	0.065	0.150
-648.784	800.000	0.020	-0.084
-647.770	207.527	-0.219	0.343
-646.755	-146.196	-0.075	0.007
-645.741	194.582	-0.051	-0.078
-644.726	41.490	-0.140	0.127
-643.711	-58.042	0.273	0.120
-642.697	-91.787	-0.028	-0.008
-641.682	-24.470	0.403	-0.241
-640.668	324.204	0.078	0.149
-639.653	-200.000	0.051	-0.233
-638.638	152.933	-0.223	0.306
-637.624	28.139	0.107	0.090
-636.609	-115.487	-0.369	-0.070
-635.595	133.174	-0.173	-0.224
-634.580	2.928	-0.296	-0.216
-633.565	800.000	0.024	0.084
-632.551	676.680	0.030	0.078
-631.536	-200.000	-0.025	-0.148
-630.522	-175.743	0.157	0.004
-629.507	551.810	0.055	-0.132
-628.492	63.966	-0.100	-0.101
-627.478	-200.000	-0.004	0.077
-626.463	102.694	-0.119	0.139
-625.449	-96.884	-0.347	0.091
-624.434	-199.784	-0.103	-0.001
-623.419	-148.088	-0.367	0.031
-622.405	35.614	-0.308	0.271
-621.390	-14.879	-0.143	0.092
-620.376	473.015	-0.074	0.167
-619.361	27.208	0.145	0.122
-618.346	-200.000	0.013	0.114
-617.332	-200.000	-0.006	-0.033
-616.317	-200.000	0.050	0.308
-615.303	49.495	-0.199	0.187
-614.288	-200.000	0.007	-0.177
-613.273	-72.033	-0.249	-0.093
-612.259	-85.077	-0.187	0.059
-611.244	-43.345	0.151	-0.076
-610.230	-129.307	-0.281	-0.039
-609.215	244.822	0.237	-0.399
-608.201	800.000	-0.044	0.173
-607.186	92.905	0.032	0.037
-606.171	47.549	0.219	0.205
-605.157	-131.168	-0.384	0.051
-604.142	81.927	0.089	-0.097
-603.128	800.000	-0.094	0.270
-602.113	267.743	-0.199	0.350
-601.098	800.000	0.126	0.367
-600.084	800.000	0.014	0.047
-599.069	-200.000	0.027	0.322
-598.055	800.000	-0.121	0.380
-597.040	-175.137	0.351	0.010
-596.025	-200.000	0.000	-0.183
-595.011	-105.887	-0.157	-0.035
-593.996	-37.452	-0.114	0.061
-592.982	-189.763	-0.252	-0.003
-591.967	-200.000	0.011	0.135
-590.952	-47.522	-0.038	0.018
-589.938	67.671	0.181	-0.185
-588.923	-42.529	-0.416	-0.212
-587.909	-46.306	0.252	-0.124
-586.894	-82.824	0.293	0.095
-585.879	-67.861	-0.069	0.027
-584.865	-134.650	-0.238	0.029
-583.850	733.803	0.084	0.225
-582.836	-77.466	0.267	0.093
-581.821	-200.000	-0.035	0.354
-580.806	659.741	-0.110	0.285
-579.792	48.067	0.265	0.248
-578.777	696.523	-0.130	0.342
-577.763	800.000	0.042	-0.152
-576.748	-111.400	0.215	0.044
-575.733	-155.171	0.162	0.011
-574.719	96.713	0.091	0.104
-573.704	371.386	-0.048	-0.097
-572.690	-127.944	-0.162	-0.023
-571.675	-131.653	-0.468	0.062
-570.661	800.000	0.095	-0.286
-569.646	-200.000	0.004	0.324
-568.631	-78.043	-0.275	0.095
-567.617	288.944	0.158	0.287
-566.602	301.614	-0.113	0.208
-565.588	407.355	0.148	-0.313
-564.573	475.340	-0.165	-0.373
-563.558	122.121	0.125	-0.156
-562.544	-19.137	-0.056	-0.035
-561.529	-122.849	-0.401	0.065
-560.515	-89.855	0.204	-0.060
-559.500	467.197	0.164	-0.368
-558.485	-176.386	0.346	0.009
-557.471	227.153	-0.148	-0.241
-556.456	800.000	0.170	-0.482
-555.442	-154.336	-0.131	0.009
-554.427	800.000	0.047	0.155
-553.412	-200.000	-0.001	0.338
-552.398	-200.000	0.029	-0.426
-551.383	-200.000	-0.035	-0.249
-550.369	179.252	0.118	-0.173
-549.354	36.424	0.176	-0.155
-548.339	-49.567	0.201	0.096
-547.325	45.249	0.095	0.087
-546.310	-110.343	-0.224	-0.047
-545.296	140.658	0.090	0.119
-544.281	-31.275	0.199	0.112
-543.266	230.981	-0.120	-0.197
-542.252	-200.000	-0.333	-0.001
-541.237	266.791	0.057	0.100
-540.223	-125.282	0.153	0.023
-539.208	58.355	0.073	0.072
-538.193	-97.946	-0.285	0.074
-537.179	615.592	-0.134	-0.337
-536.164	30.849	0.322	-0.276
-535.150	329.955	-0.074	0.142
-534.135	217.813	-0.093	0.148
-533.121	107.328	0.073	0.086
-532.106	-58.893	-0.175	-0.076
-531.091	-58.253	0.017	-0.008
-530.077	227.254	0.163	-0.264
-529.062	-200.000	-0.010	-0.300
-528.048	135.360	0.089	-0.116
-527.033	51.834	-0.031	-0.029
-526.018	-76.647	-0.076	-0.026
-525.004	522.730	-0.083	-0.195
-523.989	51.011	0.183	0.173
-522.975	-171.758	0.147	0.005
-521.960	-60.090	-0.143	-0.061
-520.945	-16.946	0.196	-0.124
-519.931	-25.753	-0.208	0.123
-518.916	800.000	-0.021	0.073
-517.902	3.840	-0.157	-0.115
-516.887	139.041	-0.094	0.123
-515.872	26.363	-0.211	0.176
-514.858	73.134	-0.283	0.295
-513.843	-105.546	-0.251	-0.057
-512.829	113.990	-0.095	-0.116
-511.814	25.204	-0.118	0.098
-510.799	-55.053	-0.019	0.009
-509.785	797.671	-0.108	0.296
-508.770	-6.169	0.346	-0.236
-507.756	15.588	0.169	0.133
-506.741	407.023	-0.135	0.284
-505.726	609.868	0.046	0.115
-504.712	-200.000	-0.028	0.199
-503.697	125.863	-0.080	0.101
-502.683	-200.000	0.014	-0.135
-501.668	-200.000	0.084	0.375
-500.653	356.754	-0.110	0.219
-499.639	189.837	0.261	-0.390
-498.624	-50.286	-0.128	-0.060
-497.610	-156.160	0.445	-0.028
-496.595	-100.119	-0.587	-0.146
-495.581	800.000	-0.052	-0.146
-494.566	-200.000	0.006	-0.288
-493.551	-200.000	0.012	-0.105
-492.537	-129.710	-0.266	0.037
-491.522	-83.832	0.185	-0.059
-490.508	-75.403	0.298	0.106
-489.493	-81.869	-0.044	-0.014
-488.478	-142.905	-0.142	-0.014
-487.464	-150.090	-0.466	-0.036
-486.449	-148.241	-0.340	-0.028
-485.435	318.694	0.079	-0.148
-484.420	800.000	-0.031	-0.126
-483.405	-152.540	-0.101	0.007
-482.391	31.379	-0.145	0.124
-481.376	38.226	0.118	-0.105
-480.362	800.000	0.084	0.281
-479.347	65.798	0.094	0.095
-478.332	800.000	0.018	-0.068
-477.318	13.293	0.247	-0.190
-476.303	-200.000	-0.016	-0.176
-475.289	-200.000	0.009	0.052
-474.274	-121.137	0.130	0.022
-473.259	378.502	-0.027	0.056
-472.245	36.941	-0.166	-0.146
-471.230	-75.286	0.098	-0.035
-470.216	40.037	0.150	0.135
-469.201	28.061	-0.187	-0.158
-468.186	-200.000	0.004	0.161
-467.172	200.446	-0.043	-0.066
-466.157	-110.977	-0.414	-0.085
-465.143	-33.266	-0.358	-0.197
-464.128	332.971	0.058	0.111
-463.113	-125.403	0.079	0.012
-462.099	800.000	0.036	0.154
-461.084	40.596	0.230	-0.207
-460.070	-129.931	-0.111	-0.015
-459.055	-127.240	0.340	0.050
-458.040	-41.489	0.046	0.023
-457.026	-200.000	0.091	-0.498
-456.011	-200.000	-0.016	0.077
-454.997	-145.084	-0.148	0.013
-453.982	-124.686	0.162	-0.025
-452.968	193.982	-0.164	-0.248
-451.953	232.853	-0.194	0.318
-450.938	86.177	0.143	-0.157
-449.924	396.738	-0.114	-0.237
-448.909	34.319	-0.201	-0.175
-447.895	43.461	0.087	-0.079
-446.880	-37.257	0.106	0.056
-445.865	1.223	-0.206	0.147
-444.851	-200.000	0.012	0.470
-443.836	-200.000	0.019	0.087
-442.822	800.000	0.105	0.297
-441.807	19.914	0.031	0.025
-440.792	-200.000	-0.049	-0.275
-439.778	-150.779	0.203	0.015
-438.763	-1.764	-0.237	0.166
-437.749	53.790	-0.150	0.144
-436.734	-194.970	-0.537	0.004
-435.719	37.845	-0.097	-0.086
-434.705	-39.817	0.175	0.091
-433.690	-49.998	0.384	-0.181
-432.676	-120.771	0.367	0.062
-431.661	-72.975	0.097	-0.036
-430.646	156.598	-0.043	-0.059
-429.632	-29.675	0.297	0.169
-428.617	-152.275	0.276	0.020
-427.603	-94.351	-0.249	0.068
-426.588	-200.000	-0.024	0.216
-425.573	-200.000	-0.029	-0.327
-424.559	263.828	-0.116	-0.201
-423.544	114.899	0.196	0.238
-422.530	800.000	0.111	-0.350
-421.515	403.482	0.114	0.239
-420.500	-128.248	-0.182	0.026
-419.486	126.611	0.054	-0.068
-418.471	97.074	-0.041	0.046
-417.457	-83.785	-0.084	0.027
-416.442	-137.360	0.263	0.030
-415.428	800.000	0.049	0.144
-414.413	11.935	-0.349	-0.267
-413.398	105.951	0.185	-0.217
-412.384	316.614	-0.152	-0.285
-411.369	-200.000	-0.085	-0.395
-410.355	800.000	-0.013	0.055
-409.340	209.533	-0.085	0.133
-408.325	84.766	0.231	-0.251
-407.311	-200.000	-0.042	-0.425
-406.296	-24.155	0.143	-0.085
-405.282	78.417	0.209	-0.222
-404.267	350.419	0.175	-0.344
-403.252	138.385	0.176	0.229
-402.238	-200.000	0.046	0.343
-401.223	-54.569	-0.164	-0.074
-400.209	-63.908	-0.184	-0.075
-399.194	22.402	0.195	0.158
-398.179	360.907	-0.062	0.123
-397.165	13.733	0.155	0.120
-396.150	-139.617	0.162	-0.017
-395.136	800.000	-0.043	-0.161
-394.121	-72.946	-0.256	-0.094
-393.106	-200.000	-0.034	-0.404
-392.092	-1.326	0.152	-0.107
-391.077	-178.631	-0.270	-0.006
-390.063	21.884	0.316	0.256
-389.048	-78.977	0.295	0.100
-388.033	-200.000	-0.006	-0.032
-387.019	-56.702	0.055	0.024
-386.004	800.000	-0.073	0.240
-384.990	3.714	0.205	-0.149
-383.975	-55.252	0.159	0.071
-382.960	314.064	-0.024	-0.045
-381.946	-120.695	-0.070	0.012
-380.931	-149.084	0.323	0.026
-379.917	-200.000	-0.001	-0.341
-378.902	-162.322	-0.007	0.000
-377.888	-95.096	0.116	-0.031
-376.873	771.935	-0.085	0.230
-375.858	28.841	-0.214	0.180
-374.844	126.045	-0.047	0.059
-373.829	-112.724	-0.214	0.042
-372.815	48.191	-0.151	0.140
-371.800	-137.735	-0.119	0.013
-370.785	53.311	0.256	-0.244
-369.771	518.963	0.130	0.302
-368.756	-200.000	-0.003	0.141
-367.742	800.000	0.065	0.262
-366.727	85.112	0.239	0.261
-365.712	-121.858	0.305	-0.050
-364.698	-162.330	0.257	-0.013
-363.683	665.694	0.092	-0.237
-362.669	471.677	-0.112	-0.249
-361.654	173.563	0.029	-0.042
-360.639	800.000	0.146	-0.492
-359.625	-59.251	-0.202	0.086
-358.610	-117.086	0.272	0.049
-357.596	35.787	-0.066	-0.058
-356.581	-135.952	-0.176	-0.021
-355.566	-67.375	0.354	-0.138
-354.552	-9.102	0.230	-0.153
-353.537	-139.751	0.215	-0.023
-352.523	-196.272	-0.227	0.002
-351.508	115.173	-0.019	0.023
-350.493	-57.652	-0.232	0.101
-349.479	684.207	-0.063	-0.163
-348.464	386.943	0.081	-0.166
-347.450	199.657	0.111	0.169
-346.435	279.268	0.147	-0.259
-345.420	-151.860	0.422	-0.031
-344.406	131.649	0.035	0.044
-343.391	-86.131	0.216	0.066
-342.377	-70.184	0.092	-0.035
-341.362	37.912	0.113	0.100
-340.348	-21.492	-0.283	0.171
-339.333	800.000	0.095	-0.319
-338.318	-200.000	0.062	0.314
-337.304	185.349	-0.118	0.173
-336.289	-78.305	0.355	-0.121
-335.275	112.508	-0.221	0.265
-334.260	800.000	-0.074	-0.278
-333.245	800.000	0.028	0.076
-332.231	-70.800	0.230	-0.086
-331.216	-200.000	0.003	0.175
-330.202	221.250	-0.196	0.312
-329.187	800.000	0.049	0.177
-328.172	800.000	0.089	-0.281
-327.158	125.338	0.154	-0.192
-326.143	-54.167	0.279	-0.126
-325.129	800.000	0.080	-0.229
-324.114	-174.993	-0.185	0.005
-323.099	-60.908	0.505	0.211
-322.085	53.363	-0.034	0.032
-321.070	188.575	0.179	0.265
-320.056	-89.844	0.102	-0.029
-319.041	-200.000	-0.004	0.206
-318.026	664.117	0.091	0.233
-317.012	40.173	-0.109	-0.097
-315.997	-178.790	-0.404	0.009
-314.983	27.386	0.163	0.135
-313.968	534.299	-0.084	0.196
-312.953	111.978	0.104	-0.124
-311.939	-176.990	-0.188	-0.005
-310.924	-200.000	0.008	-0.124
-309.910	-86.264	0.228	-0.070
-308.895	728.935	-0.021	-0.054
-307.880	-41.720	-0.212	-0.108
-306.866	-200.000	0.022	-0.283
-305.851	-51.328	0.274	-0.127
-304.837	7.353	-0.135	0.100
-303.822	31.813	-0.092	0.078
-302.807	-17.475	-0.195	-0.122
-301.793	-77.090	0.159	-0.055
-300.778	800.000	-0.051	0.140
-299.764	800.000	-0.049	-0.142
-298.749	-108.059	0.147	-0.032
-297.735	90.805	-0.193	0.214
-296.720	-200.000	0.030	0.209
-295.705	-200.000	0.009	-0.322
-294.691	800.000	-0.075	0.239
-293.676	108.957	0.111	0.131
-292.662	-200.000	-0.010	-0.103
-291.647	9.344	0.111	0.083
-290.632	-200.000	0.016	0.298
-289.618	-87.325	-0.406	0.122
-288.603	282.850	-0.030	0.054
-287.589	12.682	-0.106	0.081
-286.574	800.000	0.108	0.352
-285.559	388.675	0.098	-0.201
-284.545	-200.000	-0.000	0.180
-283.530	-95.660	-0.196	0.052
-282.516	-200.000	-0.014	-0.321
-281.501	676.871	-0.117	0.301
-280.486	28.196	-0.275	-0.230
-279.472	129.882	0.160	-0.203
-278.457	639.559	-0.143	0.360
-277.443	-35.978	0.210	0.112
-276.428	34.997	0.090	-0.078
-275.413	-200.000	-0.006	0.149
-274.399	-200.000	0.150	0.000
-273.384	258.391	-0.104	0.177
-272.370	62.809	0.117	0.115
-271.355	670.882	0.040	-0.102
-270.340	-103.328	-0.343	0.080
-269.326	226.268	0.055	-0.088
-268.311	800.000	0.070	-0.246
-267.297	-1.751	0.065	0.045
-266.282	194.623	-0.142	0.214
-265.267	-34.992	-0.144	-0.078
-264.253	156.368	-0.140	0.191
-263.238	32.567	0.371	0.317
-262.224	126.331	0.353	0.442
-261.209	33.637	0.197	-0.169
-260.195	123.671	0.191	0.236
-259.180	34.160	-0.238	-0.205
-258.165	342.646	-0.089	-0.172
-257.151	27.550	0.106	0.088
-256.136	-124.221	0.117	-0.018
-255.122	-29.419	0.053	-0.030
-254.107	-49.339	-0.168	0.079
-253.092	27.385	-0.182	-0.151
-252.078	146.377	-0.080	-0.107
-251.063	-68.634	0.051	0.020
-250.049	117.958	0.125	-0.152
-249.034	26.778	-0.275	-0.228
-248.019	-47.455	-0.291	0.140
-247.005	-182.376	-0.134	0.002
-245.990	159.866	0.006	0.009
-244.976	-7.843	-0.260	0.174
-243.961	-70.662	-0.206	-0.077
-242.946	90.716	0.275	-0.305
-241.932	54.136	-0.170	-0.161
-240.917	-71.884	-0.252	-0.093
-239.903	-200.000	-0.033	0.351
-238.888	-26.314	0.027	0.016
-237.873	-94.808	0.132	0.035
-236.859	800.000	-0.078	0.330
-235.844	184.256	0.120	0.175
-234.830	486.205	0.068	-0.153
-233.815	-200.000	-0.006	-0.053
-232.800	222.537	0.072	-0.115
-231.786	800.000	0.089	-0.334
-230.771	-88.368	0.204	0.060
-229.757	75.816	-0.076	0.080
-228.742	1.566	-0.093	0.066
-227.727	-93.388	-0.325	0.089
-226.713	800.000	0.043	-0.177
-225.698	800.000	0.146	0.424
-224.684	800.000	0.076	-0.257
-223.669	30.856	-0.129	0.109
-222.655	104.424	-0.055	0.063
-221.640	800.000	0.059	-0.176
-220.625	-200.000	-0.190	-0.001
-219.611	166.791	0.106	0.148
-218.596	-200.000	0.008	-0.040
-217.582	206.235	0.144	-0.222
-216.567	-200.000	0.078	0.354
-215.552	28.302	0.154	0.128
-214.538	-12.823	0.196	-0.126
-213.523	52.972	0.110	-0.104
-212.509	453.257	0.083	-0.180
-211.494	-67.576	-0.264	0.102
-210.479	379.407	0.114	-0.230
-209.465	108.478	-0.120	-0.141
-208.450	-200.000	-0.053	-0.333
-207.436	62.382	-0.165	0.162
-206.421	86.062	0.206	-0.224
-205.406	-165.980	-0.438	-0.018
-204.392	55.715	-0.082	-0.078
-203.377	-24.834	0.217	-0.127
-202.363	-102.529	0.161	0.038
-201.348	67.810	0.013	0.014
-200.333	-143.433	0.242	0.023
-199.319	-147.468	0.332	0.028
-198.304	103.292	0.152	0.176
-197.290	594.109	-0.125	-0.306
-196.275	-72.308	0.346	-0.127
-195.260	-200.000	-0.031	0.297
-194.246	546.191	-0.104	0.245
-193.231	305.493	0.057	-0.105
-192.217	-117.043	0.212	0.038
-191.202	-60.511	0.122	0.051
-190.187	21.433	-0.124	-0.100
-189.173	475.994	0.122	0.272
-188.158	800.000	0.041	0.127
-187.144	576.525	-0.062	-0.149
-186.129	-17.724	-0.077	-0.048
-185.114	-180.891	-0.070	-0.001
-184.100	149.476	-0.196	-0.262
-183.085	217.731	-0.114	0.179
-182.071	-200.000	-0.013	0.160
-181.056	-106.204	0.278	0.062
-180.042	800.000	0.026	-0.086
-179.027	-107.506	-0.415	-0.090
-178.012	-105.624	0.222	-0.050
-176.998	79.003	0.106	-0.112
-175.983	-200.000	0.048	0.253
-174.969	-63.691	0.160	0.065
-173.954	13.204	0.043	0.033
-172.939	800.000	-0.145	-0.523
-171.925	-91.164	-0.258	0.073
-170.910	-47.355	-0.287	-0.137
-169.896	80.299	-0.339	0.359
-168.881	32.790	-0.190	-0.162
-167.866	100.796	0.231	-0.264
-166.852	-38.594	-0.155	-0.081
-165.837	800.000	0.066	0.250
-164.823	800.000	0.085	-0.251
-163.808	-157.676	0.087	-0.005
-162.793	-67.368	-0.110	0.043
-161.779	215.660	-0.138	-0.216
-160.764	220.292	0.036	-0.057
-159.750	-71.311	-0.176	-0.065
-158.735	413.166	0.041	0.086
-157.720	-136.942	-0.101	-0.011
-156.706	301.727	-0.155	-0.282
-155.691	261.908	-0.019	-0.033
-154.677	-46.208	-0.052	0.025
-153.662	-2.338	0.182	-0.126
-152.647	727.640	-0.050	-0.132
-151.633	-122.571	0.488	-0.078
-150.618	-86.318	-0.415	0.126
-149.604	146.647	0.296	-0.392
-148.589	-114.448	-0.126	0.024
-147.574	146.801	0.118	0.156
-146.560	-163.921	0.183	0.008
-145.545	48.677	-0.066	-0.061
-144.531	-90.701	-0.090	-0.025
-143.516	313.884	0.095	0.176
-142.502	79.878	0.169	-0.179
-141.487	442.831	-0.058	0.125
-140.472	800.000	0.143	-0.444
-139.458	800.000	0.032	-0.089
-138.443	-200.000	0.005	0.051
-137.429	-200.000	-0.079	0.448
-136.414	-200.000	0.019	0.205
-135.399	336.250	0.272	-0.519
-134.385	-200.000	0.043	0.223
-133.370	88.724	0.190	-0.208
-132.356	-43.880	0.126	0.062
-131.341	-174.107	0.302	-0.009
-130.326	12.435	0.111	-0.084
-129.312	-87.894	-0.417	0.123
-128.297	264.676	-0.125	0.215
-127.283	-51.722	-0.021	-0.010
-126.268	97.395	0.294	-0.333
-125.253	-114.855	-0.013	0.002
-124.239	800.000	0.092	0.370
-123.224	-109.128	-0.196	0.041
-122.210	-131.338	0.633	0.082
-121.195	178.530	-0.142	-0.204
-120.180	-101.967	0.180	0.043
-119.166	139.583	0.087	0.113
-118.151	-200.000	0.011	-0.290
-117.137	-122.635	-0.192	-0.031
-116.122	800.000	-0.052	0.195
-115.107	326.537	0.125	0.236
-114.093	-200.000	-0.019	-0.209
-113.078	-130.809	0.179	0.024
-112.064	319.439	0.043	-0.080
-111.049	-200.000	-0.011	0.225
-110.034	1.670	0.142	0.100
-109.020	622.619	0.111	-0.275
-108.005	800.000	0.089	-0.322
-106.991	-200.000	0.006	-0.060
-105.976	307.655	-0.091	0.166
-104.962	-71.736	-0.150	0.055
-103.947	362.052	-0.082	-0.162
-102.932	800.000	0.064	-0.175
-101.918	-200.000	0.009	0.173
-100.903	-62.472	0.139	-0.057
-99.889	-51.751	-0.273	-0.125
-98.874	-200.000	-0.006	-0.430
-97.859	-72.790	0.169	0.061
-96.845	94.386	-0.229	-0.256
-95.830	-163.953	0.170	-0.008
-94.816	-38.274	-0.150	0.078
-93.801	-200.000	-0.061	-0.339
-92.786	-200.000	0.029	-0.253
-91.772	147.853	-0.229	0.303
-90.757	800.000	-0.086	0.347
-89.743	-200.000	-0.018	0.138
-88.728	-200.000	0.017	0.312
-87.713	-46.123	0.100	-0.048
-86.699	65.743	0.140	0.139
-85.684	-174.160	-0.246	-0.007
-84.670	-68.655	-0.121	-0.046
-83.655	596.094	-0.097	0.236
-82.640	64.904	-0.090	0.090
-81.626	800.000	0.038	-0.146
-80.611	800.000	0.038	0.114
-79.597	420.142	-0.057	-0.119
-78.582	800.000	0.081	-0.290
-77.567	661.553	0.016	-0.041
-76.553	800.000	0.058	0.201
-75.538	96.069	0.131	0.147
-74.524	800.000	-0.066	0.188
-73.509	-200.000	-0.004	-0.228
-72.494	470.803	-0.179	0.395
-71.480	-93.847	0.117	0.032
-70.465	88.423	0.329	0.358
-69.451	-163.781	0.154	0.007
-68.436	-134.836	-0.150	0.018
-67.422	-200.000	0.032	0.311
-66.407	10.390	-0.368	0.275
-65.392	78.239	0.147	0.154
-64.378	-69.731	-0.238	-0.089
-63.363	800.000	0.054	0.225
-62.349	-200.000	-0.062	0.369
-61.334	53.614	-1.117	-1.051
-60.319	94.882	0.510	0.570
-59.305	304.062	-0.418	-0.760
-58.290	203.931	0.850	1.291
-57.276	800.000	0.397	1.382
-56.261	-200.000	110.825	612.895
-55.246	509.532	1514.250	3451.792
-54.232	177.387	2690.604	3843.190
-53.217	110.511	2151.950	2536.760
-52.203	40.362	1599.141	1411.343
-51.188	32.626	1340.629	1136.705
-50.173	29.458	1300.701	1084.227
-49.159	53.717	1357.433	1277.907
-48.144	53.515	1372.258	1290.598
-47.130	32.527	1326.169	1123.676
-46.115	29.119	1308.605	1088.638
-45.100	29.018	1303.643	1083.874
-44.086	28.901	1300.993	1080.937
-43.071	28.947	1298.325	1078.947
-42.057	28.861	1296.301	1076.721
-41.042	28.930	1294.473	1075.566
-40.027	28.953	1293.228	1074.621
-39.013	28.836	1291.507	1072.465
-37.998	28.898	1289.741	1071.316
-36.984	28.908	1287.844	1069.758
-35.969	28.933	1286.342	1068.613
-34.954	29.094	1284.168	1067.701
-33.940	28.922	1283.466	1066.078
-32.925	29.064	1281.947	1065.593
-31.911	29.075	1280.909	1064.752
-30.896	29.150	1279.212	1063.731
-29.881	29.038	1277.363	1061.509
-28.867	29.127	1276.009	1060.852
-27.852	29.221	1274.540	1060.128
-26.838	29.043	1273.676	1058.346
-25.823	29.142	1271.724	1057.248
-24.809	29.032	1270.763	1055.776
-23.794	29.071	1269.292	1054.738
-22.779	29.176	1267.810	1054.068
-21.765	29.164	1266.695	1053.028
-20.750	29.069	1265.458	1051.413
-19.736	28.935	1264.514	1049.826
-18.721	28.956	1263.324	1048.913
-17.706	29.006	1262.059	1048.105
-16.692	29.036	1260.788	1047.182
-15.677	28.895	1259.530	1045.291
-14.663	28.872	1258.867	1044.573
-13.648	29.015	1257.264	1044.012
-12.633	29.002	1256.394	1043.171
-11.619	28.892	1256.115	1042.275
-10.604	28.939	1255.501	1041.994
-9.590	28.928	1254.395	1040.972
-8.575	28.976	1252.881	1039.942
-7.560	28.917	1252.403	1039.173
-6.546	28.920	1251.714	1038.574
-5.531	28.986	1250.181	1037.633
-4.517	28.894	1249.719	1036.692
-3.502	28.919	1248.990	1036.185
-2.487	28.926	1248.062	1035.418
-1.473	28.904	1243.509	1031.475
-0.458	27.373	1228.589	1010.561
0.556	25.341	1210.836	971.990
1.571	21.405	1215.636	954.318
2.586	20.452	1229.906	960.169
3.600	20.232	1218.231	949.769
4.615	15.658	1147.514	870.912
5.629	7.708	1074.833	776.957
6.644	4.139	1056.042	746.142
7.659	3.790	1053.457	742.576
8.673	3.554	1052.102	740.421
9.688	3.599	1050.604	739.518
10.702	4.029	1049.230	740.545
11.717	9.145	1055.762	769.659
12.731	17.653	1067.824	819.457
13.746	22.512	1073.853	847.448
14.761	23.192	1074.511	851.162
15.775	22.529	1072.842	846.579
16.790	21.801	1071.199	841.717
17.804	21.314	1069.680	838.115
18.819	21.125	1069.244	836.793
19.834	21.154	1068.263	836.088
20.848	21.213	1068.047	836.126
21.863	21.031	1067.646	834.869
22.877	20.855	1066.656	833.177
23.892	20.742	1066.438	832.396
24.907	20.557	1065.228	830.492
25.921	20.683	1064.084	830.131
26.936	20.561	1062.350	828.120
27.950	20.583	1061.098	827.176
28.965	20.793	1059.713	827.021
29.980	20.972	1058.191	826.611
30.994	20.898	1058.260	826.237
32.009	20.965	1057.241	825.686
33.023	20.832	1056.117	824.110
34.038	20.806	1054.818	822.898
35.053	20.833	1053.335	821.796
36.067	20.684	1053.155	820.881
37.082	20.829	1052.115	820.682
38.096	20.896	1052.079	820.896
39.111	20.967	1050.782	820.146
40.126	20.760	1049.074	817.767
41.140	20.397	1047.864	815.049
42.155	20.211	1046.281	812.871
43.169	20.043	1046.046	811.833
44.184	20.198	1044.326	811.149
45.199	20.146	1043.465	810.164
46.213	20.373	1042.913	810.728
47.228	20.731	1042.448	811.964
48.242	20.737	1041.533	811.206
49.257	20.697	1040.853	810.418
50.271	20.915	1040.043	810.731
51.286	20.939	1039.387	810.260
52.301	21.029	1037.685	809.279
53.315	20.781	1036.933	807.471
54.330	20.576	1036.149	805.838
55.344	20.460	1035.449	804.684
56.359	20.422	1034.470	803.676
57.374	20.355	1033.544	802.576
58.388	20.214	1032.815	801.290
59.403	20.153	1031.736	800.101
60.417	20.230	1030.966	799.788
61.432	20.116	1030.357	798.717
62.447	20.010	1029.569	797.546
63.461	19.941	1028.790	796.555
64.476	19.991	1027.204	795.488
65.490	19.894	1026.797	794.658
66.505	19.990	1026.343	794.676
67.520	19.966	1025.708	794.003
68.534	19.972	1024.823	793.277
69.549	19.801	1024.263	791.988
70.563	19.683	1022.923	790.343
71.578	19.423	1022.386	788.670
72.593	19.465	1021.431	788.057
73.607	19.339	1021.113	787.167
74.622	19.774	1020.041	788.251
75.636	19.726	1020.030	787.958
76.651	19.611	1019.627	787.053
77.666	19.737	1018.448	786.644
78.680	19.686	1017.654	785.729
79.695	19.804	1016.960	785.660
80.709	20.091	1016.699	786.692
81.724	20.095	1016.192	786.249
82.739	20.270	1015.355	786.323
83.753	20.617	1015.041	787.582
84.768	21.152	1014.697	789.666
85.782	21.308	1014.423	790.091
86.797	21.192	1013.504	788.779
87.812	21.031	1011.934	786.763
88.826	21.017	1011.022	785.919
89.841	21.289	1009.981	786.265
90.855	21.141	1009.614	785.243
91.870	21.275	1008.255	784.721
92.884	21.069	1007.920	783.464
93.899	21.156	1006.229	782.470
94.914	21.278	1005.594	782.453
95.928	21.124	1005.153	781.354
96.943	21.039	1003.271	779.443
97.957	20.923	1002.831	778.512
98.972	21.034	1002.379	778.587
99.987	21.087	1001.534	778.099
101.001	20.928	1000.381	776.427
102.016	20.929	999.584	775.744
103.030	21.066	998.701	775.599
104.045	20.851	998.697	774.570
105.060	20.858	997.196	773.369
106.074	20.519	995.875	770.775
107.089	20.212	994.642	768.391
108.103	20.139	993.345	766.997
109.118	19.978	992.288	765.405
110.133	19.724	991.560	763.652
111.147	19.751	990.442	762.840
112.162	19.966	989.916	763.318
113.176	20.134	989.468	763.644
114.191	20.305	988.376	763.487
115.206	20.319	987.741	762.990
116.220	19.998	986.809	760.794
117.235	19.982	985.957	760.000
118.249	19.852	985.161	758.746
119.264	19.717	984.674	757.713
120.279	19.795	983.155	756.822
121.293	19.733	982.735	756.158
122.308	19.671	981.449	754.832
123.322	19.388	980.784	753.016
124.337	19.491	979.588	752.481
125.352	19.616	978.264	751.942
126.366	19.599	977.629	751.313
127.381	19.611	976.675	750.568
128.395	19.623	976.109	750.117
129.410	19.701	975.092	749.609
130.424	19.925	974.433	750.005
131.439	20.126	974.061	750.523
132.454	20.076	973.389	749.721
133.468	19.994	972.439	748.569
134.483	20.153	971.465	748.439
135.497	20.079	970.750	747.503
136.512	20.198	969.663	747.115
137.527	20.225	969.056	746.697
138.541	20.172	968.687	746.116
139.556	20.168	967.679	745.258
140.570	20.479	967.339	746.265
141.585	20.869	966.419	747.164
142.600	20.871	965.850	746.664
143.614	21.056	964.538	746.377
144.629	21.157	963.943	746.284
145.643	20.906	963.031	744.438
146.658	20.732	961.926	742.776
147.673	20.523	960.415	740.652
148.687	20.320	959.486	739.007
149.702	20.214	958.638	737.838
150.716	20.101	957.823	736.664
151.731	20.291	956.914	736.708
152.746	20.470	956.559	737.129
153.760	20.546	955.560	736.614
154.775	20.558	955.467	736.527
155.789	20.517	954.874	735.833
156.804	20.574	953.859	735.227
157.819	20.624	953.296	734.940
158.833	20.997	952.594	735.908
159.848	21.066	952.133	735.778
160.862	20.788	951.208	733.825
161.877	20.497	949.322	731.081
162.892	20.185	947.816	728.545
163.906	20.066	946.945	727.312
164.921	19.936	946.576	726.418
165.935	20.180	945.895	726.858
166.950	20.330	944.710	726.510
167.964	20.444	943.743	726.178
168.979	20.310	942.932	724.930
169.994	20.318	941.561	723.843
171.008	20.562	941.305	724.601
172.023	20.787	940.907	725.166
173.037	20.982	939.979	725.198
174.052	20.741	938.772	723.203
175.067	20.172	938.483	720.555
176.081	20.081	937.539	719.386
177.096	19.918	937.029	718.253
178.110	20.207	936.023	718.619
179.125	20.199	935.746	718.307
180.140	20.312	935.687	718.667
181.154	20.653	935.417	719.809
182.169	20.797	935.322	720.265
183.183	20.841	934.361	719.645
184.198	20.865	933.713	719.181
185.213	20.652	933.350	717.958
186.227	20.755	932.690	717.811
187.242	21.007	931.887	718.167
188.256	20.953	931.623	717.681
189.271	20.966	930.710	716.965
190.286	20.599	929.655	714.582
191.300	20.086	928.003	711.146
192.315	20.066	926.863	710.127
193.329	20.044	926.837	709.953
194.344	20.189	926.445	710.182
195.359	20.430	926.088	710.836
196.373	20.452	925.500	710.409
197.388	20.914	925.696	712.388
198.402	21.029	925.228	712.431
199.417	21.275	924.577	712.871
200.432	21.187	924.835	712.649
201.446	21.413	923.946	712.822
202.461	21.599	923.845	713.441
203.475	21.231	922.753	711.035
204.490	20.944	921.215	708.623
205.504	20.675	920.779	707.128
206.519	20.733	919.652	706.435
207.534	20.850	918.785	706.184
208.548	20.823	918.758	705.989
209.563	20.809	917.776	705.117
210.577	20.896	917.331	705.064
211.592	21.223	916.707	705.843
212.607	21.310	916.180	705.727
213.621	21.197	915.426	704.628
214.636	21.073	914.944	703.695
215.650	21.160	914.063	703.304
216.665	21.279	913.510	703.299
217.680	21.464	913.032	703.610
218.694	21.342	912.407	702.575
219.709	21.235	911.736	701.566
220.723	21.222	911.027	700.906
221.738	21.167	910.073	699.890
222.753	21.154	909.600	699.413
223.767	21.195	909.448	699.400
224.782	21.480	908.905	700.061
225.796	21.671	908.198	700.218
226.811	21.270	907.628	698.113
227.826	21.029	906.675	696.358
228.840	20.940	906.203	695.575
229.855	20.885	905.153	694.490
230.869	20.910	904.215	693.809
231.884	21.059	903.208	693.569
232.899	20.815	902.687	692.138
233.913	20.804	901.852	691.389
234.928	20.614	901.371	690.207
235.942	20.408	901.155	689.163
236.957	20.609	900.501	689.401
237.972	20.636	899.604	688.759
238.986	20.590	899.067	688.105
240.001	20.511	898.707	687.457
241.015	20.728	898.120	687.805
242.030	20.678	897.757	687.268
243.045	20.959	897.319	687.979
244.059	20.902	896.642	687.177
245.074	21.083	895.805	687.184
246.088	21.082	895.536	686.914
247.103	21.371	895.301	687.811
248.117	21.685	895.341	689.015
249.132	21.953	895.312	689.986
250.147	22.292	894.281	690.462
251.161	22.232	894.191	690.097
252.176	22.359	893.404	689.924
253.190	22.455	892.745	689.732
254.205	22.336	892.219	688.797
255.220	22.450	891.315	688.487
256.234	22.225	890.749	687.110
257.249	22.168	890.252	686.439
258.263	22.154	889.273	685.569
259.278	22.117	888.805	685.004
260.293	22.139	888.169	684.538
261.307	22.304	887.692	684.753
262.322	22.387	886.902	684.409
263.336	22.253	886.318	683.375
264.351	22.311	885.762	683.112
265.366	22.399	885.254	683.000
266.380	22.499	884.322	682.608
267.395	22.073	883.730	680.440
268.409	22.089	882.860	679.772
269.424	22.075	882.206	679.155
270.439	21.974	881.629	678.259
271.453	21.939	880.669	677.327
272.468	21.803	880.043	676.259
273.482	21.945	879.564	676.382
274.497	21.840	879.115	675.572
275.512	21.843	878.403	674.976
276.526	22.018	877.923	675.221
277.541	21.964	877.485	674.617
278.555	22.185	877.189	675.178
279.570	22.533	877.071	676.361
280.585	22.368	875.870	674.744
281.599	22.372	874.639	673.751
282.614	22.002	874.083	671.849
283.628	21.975	873.353	671.127
284.643	21.932	872.819	670.492
285.657	21.879	872.266	669.805
286.672	22.108	871.456	669.995
287.687	22.092	870.841	669.402
288.701	22.055	870.460	668.910
289.716	22.049	870.033	668.501
290.730	22.082	869.328	668.026
291.745	22.186	868.745	667.913
292.760	22.229	868.391	667.746
293.774	22.519	868.358	668.761
294.789	22.418	867.250	667.466
295.803	22.117	866.283	665.521
296.818	22.004	865.749	664.626
297.833	21.937	865.099	663.816
298.847	22.132	864.444	663.989
299.862	22.134	864.374	663.885
300.876	22.321	864.018	664.258
301.891	22.641	863.338	664.883
302.906	22.670	862.518	664.303
303.920	22.807	862.714	664.910
304.935	22.858	862.256	664.694
305.949	22.744	861.271	663.446
306.964	22.434	860.600	661.705
307.979	22.461	859.917	661.223
308.993	22.503	859.642	661.108
310.008	22.674	858.839	661.074
311.022	22.557	858.394	660.234
312.037	22.266	857.624	658.496
313.052	21.851	856.713	656.184
314.066	21.727	856.036	655.146
315.081	21.941	855.421	655.416
316.095	21.829	855.217	654.783
317.110	21.907	854.532	654.494
318.125	21.784	853.714	653.350
319.139	21.807	852.813	652.688
320.154	21.823	852.751	652.641
321.168	22.028	852.425	653.096
322.183	22.018	851.805	652.528
323.197	22.008	851.376	652.102
324.212	22.104	850.838	651.990
325.227	22.046	849.871	650.976
326.241	22.026	849.182	650.318
327.256	21.995	848.549	649.660
328.270	21.957	847.917	648.977
329.285	21.719	847.342	647.602
330.300	21.840	846.901	647.654
331.314	21.819	846.653	647.329
332.329	22.271	846.362	648.717
333.343	22.224	846.527	648.612
334.358	22.193	846.071	648.090
335.373	22.487	845.275	648.508
336.387	22.370	845.332	648.061
337.402	22.507	845.364	648.535
338.416	22.853	844.807	649.322
339.431	22.996	844.746	649.744
340.446	23.116	844.115	649.642
341.460	23.136	843.764	649.389
342.475	23.323	843.205	649.585
343.489	23.159	843.439	649.106
344.504	23.303	842.958	649.206
345.519	23.390	842.424	649.056
346.533	23.086	841.737	647.359
347.548	22.923	840.772	645.961
348.562	22.685	839.887	644.357
349.577	22.579	838.891	643.149
350.592	22.575	837.889	642.308
351.606	22.250	837.632	640.870
352.621	22.467	836.604	640.817
353.635	22.630	836.508	641.278
354.650	22.481	835.783	640.126
355.665	22.565	835.463	640.128
356.679	22.725	834.900	640.221
357.694	22.794	834.313	639.966
358.708	22.674	833.387	638.763
359.723	22.726	832.779	638.429
360.738	22.738	832.279	638.034
361.752	22.739	831.877	637.673
362.767	23.224	831.166	638.820
363.781	23.322	831.258	639.190
364.796	23.506	830.681	639.352
365.810	23.708	830.539	639.914
366.825	23.736	830.190	639.688
367.840	23.491	829.457	638.186
368.854	23.129	828.971	636.453
369.869	23.094	828.400	635.833
370.883	23.110	828.321	635.772
371.898	23.448	827.639	636.408
372.913	23.512	827.262	636.290
373.927	23.317	826.462	634.920
374.942	23.349	825.916	634.558
375.956	23.433	825.792	634.708
376.971	23.588	825.630	635.082
377.986	23.744	825.305	635.334
379.000	23.782	824.435	634.745
380.015	23.687	824.156	634.134
381.029	23.615	823.290	633.155
382.044	23.668	822.526	632.700
383.059	23.778	821.794	632.471
384.073	23.518	821.487	631.254
385.088	23.210	820.254	629.158
386.102	22.909	819.897	627.757
387.117	23.151	819.320	628.119
388.132	22.921	818.910	626.933
389.146	23.094	818.094	626.867
390.161	23.447	818.104	628.070
391.175	23.607	817.528	628.138
392.190	23.228	816.836	626.209
393.205	23.064	816.361	625.211
394.219	22.904	815.932	624.264
395.234	22.789	815.585	623.537
396.248	22.697	814.977	622.690
397.263	22.754	814.502	622.473
398.278	22.693	813.835	621.694
399.292	22.705	813.390	621.341
400.307	22.605	812.788	620.474
401.321	22.822	812.261	620.779
402.336	22.970	812.184	621.188
403.350	23.213	811.955	621.809
404.365	23.511	811.691	622.601
405.380	23.674	811.289	622.808
406.394	23.726	811.042	622.746
407.409	23.804	811.070	622.986
408.423	23.816	810.559	622.579
409.438	24.021	810.196	622.964
410.453	23.868	809.713	622.000
411.467	24.101	808.791	622.053
412.482	24.113	808.681	621.957
413.496	24.218	808.634	622.231
414.511	24.116	807.973	621.312
415.526	24.044	807.514	620.653
416.540	24.019	806.625	619.827
417.555	23.878	806.362	619.079
418.569	23.992	805.737	618.942
419.584	23.990	805.258	618.512
420.599	23.965	804.810	618.025
421.613	163.603	1372.123	1797.082
422.628	142.266	1454.766	1797.155
