DTS Sentinel unit serial number:	SN413079Multiplexer serial number:	ORYXHardware model number:	OX4-SRSoftware version number:	ORYX F/W v4.00 Oryx Data Collector v3.7.2.0data status	okinstallation	princeton_trtdifferential loss correction	single-endedforward channel	channel 1reverse channel	N/Adate	2019/09/17time	11:46:35forward acquisition time	60.00reverse acquisition time	0.00gamma	496.2192k internal	0.2322k external	0.2322temperature offset calibration	0.9975default loss term (dB/km)	0.3790temperature slope calibration	1.0000multiplexer offset coefficient	1.0000multiplexer slope coefficient	1.0000fibre end	0.00T internal ref (°C)	30.89T ext. ref 1 (°C)	0.38T ext. ref 2 (°C)	26.68length (m)	temperature (°C)	Stokes	anti-Stokes-747.200	36.095	-0.218	-0.194
-746.185	-90.979	0.222	0.065
-745.171	-200.000	0.053	-0.243
-744.156	258.949	-0.069	-0.121
-743.142	-200.000	0.039	-0.252
-742.127	-68.201	-0.218	0.086
-741.112	-200.000	-0.007	0.140
-740.098	-88.079	-0.386	0.117
-739.083	800.000	-0.042	-0.152
-738.069	172.745	-0.177	0.257
-737.054	-4.109	0.138	-0.097
-736.039	189.341	0.213	0.322
-735.025	-60.802	0.091	0.039
-734.010	-54.475	-0.219	0.100
-732.996	-68.464	0.111	-0.044
-731.981	-130.540	-0.081	0.011
-730.966	800.000	-0.054	-0.167
-729.952	174.858	-0.102	0.149
-728.937	118.502	-0.194	0.242
-727.923	29.658	-0.177	0.152
-726.908	-74.176	-0.265	0.097
-725.894	800.000	-0.068	0.221
-724.879	-200.000	0.003	-0.028
-723.864	217.554	-0.253	0.407
-722.850	-163.186	-0.264	0.013
-721.835	-200.000	-0.044	-0.233
-720.821	0.753	-0.206	0.149
-719.806	-157.897	0.135	0.008
-718.791	-26.359	-0.381	-0.225
-717.777	-36.154	0.154	0.084
-716.762	121.517	0.280	0.352
-715.748	800.000	-0.102	-0.287
-714.733	-0.223	-0.093	-0.067
-713.718	-200.000	0.006	0.071
-712.704	-129.287	0.383	-0.054
-711.689	-45.867	-0.154	-0.077
-710.675	800.000	0.068	-0.279
-709.660	800.000	0.096	-0.305
-708.645	615.569	0.017	0.044
-707.631	-47.898	-0.057	-0.028
-706.616	16.104	-0.162	0.129
-705.602	66.541	-0.198	0.203
-704.587	103.493	0.140	0.166
-703.572	800.000	-0.063	-0.268
-702.558	-23.814	0.122	0.073
-701.543	-137.770	0.111	0.013
-700.529	20.352	0.155	0.126
-699.514	-89.240	0.219	0.065
-698.499	-17.890	0.093	0.059
-697.485	-115.610	0.253	-0.048
-696.470	-133.658	-0.409	0.052
-695.456	3.221	-0.158	-0.116
-694.441	121.107	0.095	-0.120
-693.426	-29.502	-0.217	0.125
-692.412	623.446	-0.130	0.331
-691.397	-75.966	-0.216	-0.077
-690.383	-200.000	0.010	0.093
-689.368	-37.091	0.285	0.154
-688.354	800.000	0.058	-0.232
-687.339	681.226	-0.109	-0.286
-686.324	566.242	0.054	-0.133
-685.310	19.076	0.141	0.114
-684.295	-86.601	-0.291	-0.090
-683.281	131.597	-0.150	0.195
-682.266	395.420	-0.045	0.095
-681.251	-0.161	-0.063	0.045
-680.237	160.544	0.108	0.152
-679.222	-118.121	0.127	0.023
-678.208	800.000	-0.041	-0.121
-677.193	-89.409	0.059	0.017
-676.178	-5.496	-0.201	0.139
-675.164	321.189	0.116	-0.222
-674.149	11.871	-0.297	0.230
-673.135	800.000	0.102	0.289
-672.120	147.395	0.146	0.198
-671.105	-200.000	0.018	0.480
-670.091	33.146	-0.292	-0.255
-669.076	-47.417	-0.568	0.278
-668.062	194.800	0.017	0.027
-667.047	362.619	-0.121	0.244
-666.032	-128.241	0.016	0.002
-665.018	-200.000	0.012	-0.161
-664.003	382.838	-0.027	0.057
-662.989	-10.665	-0.180	0.120
-661.974	-126.840	0.194	0.029
-660.959	-146.155	0.177	-0.016
-659.945	-8.577	-0.189	0.128
-658.930	-97.586	-0.041	-0.011
-657.916	-200.000	-0.031	-0.347
-656.901	14.688	0.366	-0.288
-655.886	11.386	-0.041	0.032
-654.872	148.070	-0.182	0.248
-653.857	43.366	0.180	-0.165
-652.843	800.000	0.036	0.112
-651.828	22.650	-0.092	-0.076
-650.814	-91.074	-0.389	0.113
-649.799	163.189	0.175	0.248
-648.784	-126.938	-0.463	0.069
-647.770	302.200	-0.106	0.197
-646.755	-25.430	0.175	-0.104
-645.741	-200.000	0.032	0.188
-644.726	-104.180	-0.121	-0.028
-643.711	29.735	0.202	-0.173
-642.697	-110.212	-0.507	0.106
-641.682	360.976	0.074	-0.150
-640.668	-80.484	-0.309	0.104
-639.653	-44.545	0.161	0.081
-638.638	-51.101	0.095	0.045
-637.624	-90.804	-0.229	-0.066
-636.609	-62.002	-0.330	-0.139
-635.595	13.923	-0.033	0.026
-634.580	452.310	0.139	0.309
-633.565	47.812	0.189	0.178
-632.551	-200.000	0.023	0.213
-631.536	160.940	0.122	0.172
-630.522	41.762	0.101	-0.092
-629.507	65.370	-0.193	-0.197
-628.492	-137.080	0.272	0.031
-627.478	-200.000	0.007	0.230
-626.463	-93.371	-0.233	-0.065
-625.449	-98.797	-0.247	-0.063
-624.434	-200.000	-0.002	0.083
-623.419	-200.000	-0.009	-0.267
-622.405	-137.520	0.179	-0.020
-621.390	13.013	0.227	0.176
-620.376	-16.932	0.153	-0.097
-619.361	-117.815	0.415	-0.075
-618.346	800.000	0.058	-0.225
-617.332	8.586	0.159	0.120
-616.317	-200.000	0.008	-0.075
-615.303	-200.000	0.062	0.320
-614.288	21.510	-0.075	-0.062
-613.273	-23.803	0.235	0.142
-612.259	-109.189	-0.369	-0.079
-611.244	800.000	-0.092	-0.290
-610.230	-200.000	0.011	-0.185
-609.215	-133.967	-0.122	-0.015
-608.201	-200.000	0.006	-0.137
-607.186	-23.401	-0.143	0.086
-606.171	423.775	0.148	-0.320
-605.157	-200.000	0.000	-0.209
-604.142	18.698	0.087	0.070
-603.128	-107.596	0.166	0.036
-602.113	137.461	0.336	0.441
-601.098	-54.936	-0.242	0.110
-600.084	141.779	-0.268	0.357
-599.069	146.746	0.089	0.120
-598.055	295.978	0.051	0.094
-597.040	103.067	0.039	-0.046
-596.025	-27.047	0.240	0.141
-595.011	-69.524	0.198	0.076
-593.996	800.000	-0.057	-0.169
-592.982	-28.031	-0.125	0.072
-591.967	49.607	-0.412	-0.389
-590.952	156.164	-0.141	-0.195
-589.938	443.695	-0.088	-0.194
-588.923	-200.000	-0.045	0.369
-587.909	-19.687	0.247	0.153
-586.894	3.957	0.177	-0.130
-585.879	-113.018	0.496	-0.098
-584.865	-84.601	-0.243	-0.077
-583.850	-118.965	0.699	-0.123
-582.836	106.469	-0.219	0.261
-581.821	290.462	0.148	0.270
-580.806	-31.384	-0.268	-0.152
-579.792	-71.689	-0.199	-0.074
-578.777	380.616	-0.082	-0.170
-577.763	-31.645	-0.071	0.040
-576.748	-150.967	-0.342	-0.026
-575.733	-200.000	0.013	0.229
-574.719	633.986	-0.055	0.140
-573.704	-12.241	-0.180	0.118
-572.690	-200.000	-0.026	-0.148
-571.675	-140.787	-0.259	-0.027
-570.661	657.850	0.052	0.134
-569.646	-36.039	0.244	0.132
-568.631	-200.000	0.014	0.183
-567.617	-119.480	-0.099	-0.017
-566.602	-200.000	-0.043	-0.239
-565.588	800.000	0.069	-0.193
-564.573	-67.984	0.124	-0.048
-563.558	-51.410	0.142	-0.067
-562.544	516.587	-0.069	-0.161
-561.529	100.007	0.185	-0.215
-560.515	800.000	0.048	0.210
-559.500	-85.161	0.050	-0.016
-558.485	-9.008	-0.252	0.169
-557.471	-68.779	-0.112	0.043
-556.456	3.219	0.278	0.203
-555.442	-200.000	0.085	0.000
-554.427	1.460	-0.276	-0.199
-553.412	-51.896	-0.168	-0.078
-552.398	3.898	-0.476	-0.349
-551.383	-8.098	-0.063	-0.043
-550.369	-140.133	-0.241	-0.025
-549.354	-82.387	0.449	0.146
-548.339	46.938	-0.162	-0.151
-547.325	-141.313	-0.358	-0.036
-546.310	141.241	0.094	-0.124
-545.296	-177.066	-0.061	0.002
-544.281	414.981	-0.027	0.059
-543.266	-132.539	-0.388	-0.050
-542.252	106.809	0.223	0.265
-541.237	-66.978	0.139	-0.055
-540.223	742.312	-0.117	0.315
-539.208	-42.639	-0.157	0.080
-538.193	239.311	0.055	-0.092
-537.179	-76.886	-0.311	0.109
-536.164	-59.263	-0.258	0.111
-535.150	-58.063	-0.398	-0.174
-534.135	573.315	-0.168	-0.411
-533.121	411.149	0.131	-0.278
-532.106	150.963	0.093	0.127
-531.091	800.000	-0.036	-0.149
-530.077	132.394	-0.197	-0.255
-529.062	-72.971	0.337	0.124
-528.048	105.458	-0.091	-0.108
-527.033	-129.825	0.176	0.024
-526.018	227.479	0.222	0.362
-525.004	-35.102	0.224	-0.123
-523.989	86.755	0.125	-0.138
-522.975	-106.797	-0.380	-0.085
-521.960	42.447	0.222	0.203
-520.945	462.427	-0.058	-0.130
-519.931	-162.157	0.333	-0.017
-518.916	-59.508	-0.128	-0.055
-517.902	-100.984	0.323	0.079
-516.887	303.397	-0.050	-0.093
-515.872	-172.025	-0.179	0.006
-514.858	100.366	-0.077	-0.090
-513.843	-80.584	0.199	-0.066
-512.829	-51.304	0.208	-0.098
-511.814	-128.256	0.176	0.025
-510.799	-40.375	-0.177	0.092
-509.785	285.901	-0.050	-0.090
-508.770	-24.019	-0.171	0.102
-507.756	-123.852	-0.201	0.032
-506.741	-122.083	-0.286	0.047
-505.726	-0.117	0.110	0.079
-504.712	38.179	0.113	0.101
-503.697	54.942	0.170	0.165
-502.683	-29.942	-0.180	-0.103
-501.668	-61.542	-0.259	0.109
-500.653	800.000	-0.031	-0.095
-499.639	437.322	0.135	-0.294
-498.624	-57.976	-0.434	0.190
-497.610	19.473	0.274	0.221
-496.595	-200.000	-0.014	0.145
-495.581	201.421	0.256	0.395
-494.566	-1.103	0.222	-0.157
-493.551	190.887	0.095	0.143
-492.537	53.631	0.194	-0.186
-491.522	-195.052	-0.229	-0.002
-490.508	800.000	0.051	0.202
-489.493	-157.674	0.154	-0.009
-488.478	800.000	0.062	0.202
-487.464	596.974	0.178	-0.442
-486.449	-51.685	-0.052	0.024
-485.435	166.514	0.134	0.190
-484.420	-200.000	-0.011	0.131
-483.405	-130.757	0.267	-0.036
-482.391	258.832	-0.033	-0.056
-481.376	-200.000	0.017	-0.326
-480.362	24.538	0.223	-0.185
-479.347	-107.704	0.253	-0.055
-478.332	800.000	0.026	0.106
-477.318	82.845	-0.176	0.192
-476.303	-200.000	-0.010	0.082
-475.289	53.411	-0.187	-0.179
-474.274	764.925	0.081	-0.219
-473.259	-200.000	-0.057	0.295
-472.245	193.419	0.130	-0.197
-471.230	-200.000	-0.033	0.299
-470.216	-76.153	0.154	0.054
-469.201	-12.860	-0.042	0.027
-468.186	-0.513	0.120	0.085
-467.172	-35.500	0.203	0.110
-466.157	491.387	-0.129	0.296
-465.143	-200.000	0.003	0.108
-464.128	800.000	-0.110	-0.331
-463.113	63.496	-0.097	-0.098
-462.099	-139.264	0.153	-0.016
-461.084	-163.582	0.290	0.014
-460.070	444.222	-0.107	-0.234
-459.055	386.226	0.088	-0.181
-458.040	-152.033	0.154	-0.011
-457.026	172.287	0.170	-0.244
-456.011	-87.271	0.405	-0.123
-454.997	800.000	-0.159	-0.498
-453.982	800.000	-0.033	-0.128
-452.968	-200.000	0.017	0.278
-451.953	103.936	0.215	0.252
-450.938	353.651	0.134	0.265
-449.924	-135.450	-0.221	-0.026
-448.909	146.548	-0.141	-0.189
-447.895	-112.813	-0.229	0.045
-446.880	-48.666	-0.298	-0.143
-445.865	5.013	-0.079	0.058
-444.851	-200.000	-0.079	-0.436
-443.836	-62.192	0.250	0.104
-442.822	472.096	-0.115	0.258
-441.807	-104.605	0.529	-0.122
-440.792	-146.250	0.298	0.026
-439.778	193.293	0.212	0.320
-438.763	-200.000	0.005	0.151
-437.749	-200.000	-0.023	-0.224
-436.734	-129.847	0.218	-0.030
-435.719	-200.000	0.072	-0.435
-434.705	-200.000	-0.013	-0.232
-433.690	-200.000	-0.012	-0.174
-432.676	118.338	-0.140	0.172
-431.661	-55.592	0.191	0.086
-430.646	-93.229	-0.317	-0.088
-429.632	-200.000	-0.029	0.401
-428.617	-85.847	0.124	-0.038
-427.603	-122.181	0.374	0.061
-426.588	591.212	0.108	-0.266
-425.573	800.000	-0.093	-0.362
-424.559	800.000	-0.121	0.396
-423.544	-57.022	-0.392	0.172
-422.530	-91.564	-0.041	-0.012
-421.515	378.387	-0.072	0.148
-420.500	-200.000	-0.023	-0.182
-419.486	-200.000	-0.018	0.107
-418.471	-118.667	-0.222	-0.039
-417.457	-200.000	0.032	0.223
-416.442	446.651	0.039	0.087
-415.428	-78.450	0.114	0.039
-414.413	118.735	-0.202	0.249
-413.398	800.000	0.033	-0.132
-412.384	501.536	-0.069	0.159
-411.369	-66.191	0.101	-0.040
-410.355	406.369	-0.134	0.283
-409.340	800.000	0.027	-0.105
-408.325	71.881	-0.061	0.063
-407.311	1.588	-0.297	-0.213
-406.296	-0.867	0.093	0.065
-405.282	-129.094	0.334	-0.047
-404.267	39.411	-0.055	0.049
-403.252	129.453	-0.049	0.063
-402.238	-190.109	-0.284	0.003
-401.223	-28.470	0.144	0.083
-400.209	208.578	0.192	0.299
-399.194	11.410	-0.087	0.066
-398.179	425.902	-0.131	0.281
-397.165	596.354	-0.064	-0.158
-396.150	800.000	0.099	-0.332
-395.136	-24.320	-0.286	-0.170
-394.121	225.014	0.084	-0.136
-393.106	-200.000	-0.020	-0.283
-392.092	-160.160	-0.296	-0.016
-391.077	-86.731	0.303	-0.092
-390.063	-63.517	-0.191	-0.078
-389.048	-41.564	0.100	-0.051
-388.033	428.868	0.137	-0.294
-387.019	112.954	0.209	-0.252
-386.004	149.263	0.225	0.303
-384.990	297.811	-0.091	0.167
-383.975	8.230	0.356	0.267
-382.960	415.911	-0.136	0.289
-381.946	78.516	0.120	-0.127
-380.931	17.015	-0.221	-0.175
-379.917	24.437	0.278	-0.229
-378.902	-28.670	-0.134	-0.077
-377.888	-200.000	-0.007	-0.090
-376.873	202.094	0.174	-0.267
-375.858	82.828	0.073	0.079
-374.844	178.299	-0.071	-0.103
-373.829	-88.822	0.228	0.067
-372.815	800.000	-0.030	0.107
-371.800	-3.705	-0.234	-0.162
-370.785	800.000	0.105	-0.337
-369.771	104.029	-0.114	-0.133
-368.756	-200.000	0.069	-0.367
-367.742	-45.931	0.137	-0.067
-366.727	176.547	0.124	-0.180
-365.712	-123.466	-0.156	0.025
-364.698	800.000	0.018	-0.054
-363.683	299.979	-0.139	-0.254
-362.669	786.704	-0.110	0.301
-361.654	42.898	0.143	0.130
-360.639	-200.000	0.020	-0.130
-359.625	-177.378	0.180	-0.004
-358.610	197.272	-0.095	-0.144
-357.596	-144.158	0.135	-0.013
-356.581	-32.468	0.117	-0.065
-355.566	-200.000	0.009	0.164
-354.552	-115.295	-0.227	0.043
-353.537	-86.856	0.346	-0.105
-352.523	42.353	0.158	-0.143
-351.508	138.476	-0.080	-0.105
-350.493	40.383	-0.150	0.134
-349.479	351.225	0.029	-0.057
-348.464	-114.847	0.151	-0.029
-347.450	-20.910	-0.099	-0.061
-346.435	119.463	0.154	0.190
-345.420	148.339	0.037	0.050
-344.406	14.505	-0.112	0.087
-343.391	520.065	-0.107	0.249
-342.377	-119.006	-0.081	0.014
-341.362	116.529	0.169	0.206
-340.348	-200.000	-0.001	0.404
-339.333	-117.008	-0.182	0.033
-338.318	-59.190	0.205	0.088
-337.304	-70.847	-0.204	0.077
-336.289	-148.123	-0.344	-0.028
-335.275	800.000	-0.082	-0.230
-334.260	-32.511	-0.100	-0.056
-333.245	-139.315	-0.334	-0.036
-332.231	-200.000	0.047	-0.250
-331.216	-56.423	0.261	-0.115
-330.202	281.330	0.064	-0.114
-329.187	-200.000	-0.061	0.302
-328.172	228.718	-0.183	0.297
-327.158	197.795	0.100	-0.152
-326.143	800.000	0.102	-0.312
-325.129	-42.229	0.139	-0.071
-324.114	49.592	0.211	0.198
-323.099	104.117	-0.141	-0.165
-322.085	-35.697	-0.171	-0.092
-321.070	96.382	0.083	-0.095
-320.056	113.889	-0.125	0.151
-319.041	-80.004	-0.444	-0.148
-318.026	5.051	0.185	-0.135
-317.012	160.539	0.069	-0.095
-315.997	-87.097	-0.299	-0.090
-314.983	-84.964	-0.488	0.152
-313.968	-131.183	-0.249	0.033
-312.953	-128.431	0.263	-0.037
-311.939	486.598	-0.043	0.098
-310.924	267.968	-0.048	0.084
-309.910	800.000	-0.061	0.260
-308.895	93.082	-0.206	0.231
-307.880	72.301	-0.169	-0.175
-306.866	189.203	-0.263	-0.392
-305.851	121.061	0.175	-0.216
-304.837	-37.569	-0.066	0.035
-303.822	75.002	-0.110	0.115
-302.807	146.436	0.019	0.025
-301.793	692.517	0.142	-0.371
-300.778	-82.483	0.086	0.028
-299.764	23.199	-0.250	0.204
-298.749	-79.617	-0.349	-0.117
-297.735	71.313	0.201	0.207
-296.720	-200.000	-0.029	0.152
-295.705	284.707	-0.036	-0.064
-294.691	479.108	0.040	0.089
-293.676	-153.113	0.271	0.019
-292.662	-9.899	0.159	-0.105
-291.647	176.492	-0.246	0.355
-290.632	26.441	-0.165	0.137
-289.618	800.000	0.061	-0.201
-288.603	-37.331	0.257	0.136
-287.589	-200.000	-0.033	0.190
-286.574	23.702	0.129	0.105
-285.559	-200.000	-0.017	0.130
-284.545	-200.000	-0.055	-0.326
-283.530	-143.046	0.493	-0.047
-282.516	-152.755	-0.390	0.027
-281.501	-200.000	0.024	-0.318
-280.486	68.977	0.134	0.136
-279.472	10.906	-0.177	0.134
-278.457	93.200	0.082	0.092
-277.443	-41.067	0.124	-0.063
-276.428	18.875	-0.330	-0.262
-275.413	-150.380	-0.248	-0.019
-274.399	422.730	-0.206	0.438
-273.384	161.245	0.178	0.247
-272.370	512.765	-0.139	-0.320
-271.355	-61.168	0.051	0.021
-270.340	136.785	0.162	0.209
-269.326	94.762	-0.217	0.245
-268.311	32.865	0.283	-0.243
-267.297	429.534	0.179	-0.384
-266.282	-129.379	-0.278	0.038
-265.267	-96.262	0.240	-0.063
-264.253	310.850	0.092	0.171
-263.238	-106.260	0.104	-0.023
-262.224	-32.174	0.183	-0.102
-261.209	-152.765	0.062	0.004
-260.195	-126.529	-0.104	0.015
-259.180	290.315	-0.167	0.301
-258.165	800.000	0.030	-0.088
-257.151	41.921	-0.150	0.135
-256.136	245.869	0.032	-0.054
-255.122	-85.498	-0.196	-0.060
-254.107	-200.000	0.008	0.306
-253.092	-81.484	-0.267	0.087
-252.078	11.895	0.143	0.109
-251.063	26.380	-0.251	0.208
-250.049	-200.000	-0.014	-0.083
-249.034	-200.000	-0.058	0.324
-248.019	-34.457	0.075	-0.041
-247.005	800.000	0.038	0.162
-245.990	-143.116	-0.352	-0.034
-244.976	183.585	0.159	0.232
-243.961	-161.334	-0.138	-0.007
-242.946	-200.000	0.004	0.029
-241.932	7.023	0.308	-0.227
-240.917	262.985	-0.051	-0.087
-239.903	800.000	0.065	-0.207
-238.888	35.584	0.209	-0.182
-237.873	130.260	0.164	0.208
-236.859	-12.648	-0.199	0.128
-235.844	-118.132	-0.157	-0.028
-234.830	628.398	-0.098	-0.244
-233.815	-200.000	0.048	-0.236
-232.800	800.000	-0.041	0.167
-231.786	-97.633	0.275	0.071
-230.771	-69.315	0.291	0.111
-229.757	-0.435	-0.264	-0.186
-228.742	-167.752	0.179	0.007
-227.727	64.147	0.084	-0.084
-226.713	-10.397	0.026	0.017
-225.698	155.975	-0.117	-0.159
-224.684	572.446	-0.029	-0.069
-223.669	429.310	-0.072	0.154
-222.655	399.520	0.052	-0.109
-221.640	-200.000	-0.076	-0.473
-220.625	145.190	0.116	0.154
-219.611	-85.805	0.135	0.041
-218.596	-200.000	-0.048	0.414
-217.582	14.447	-0.196	-0.152
-216.567	-200.000	-0.002	0.011
-215.552	-8.292	-0.286	0.190
-214.538	108.331	0.167	0.197
-213.523	63.753	0.273	-0.272
-212.509	-200.000	-0.038	0.242
-211.494	-76.383	0.188	-0.066
-210.479	-55.168	0.461	0.205
-209.465	-84.650	0.112	0.035
-208.450	-200.000	-0.039	-0.323
-207.436	-110.694	0.266	-0.054
-206.421	715.810	-0.025	0.067
-205.406	408.461	0.061	-0.127
-204.392	-100.633	-0.449	-0.110
-203.377	-85.535	-0.111	0.034
-202.363	73.952	0.130	-0.135
-201.348	144.692	0.206	-0.273
-200.333	-200.000	-0.045	0.244
-199.319	-142.729	0.186	-0.018
-198.304	-85.017	0.200	0.062
-197.290	-200.000	-0.012	0.091
-196.275	10.095	0.260	0.195
-195.260	-124.580	0.178	0.027
-194.246	-100.329	-0.244	0.060
-193.231	-200.000	-0.019	0.173
-192.217	-200.000	0.008	0.226
-191.202	348.717	0.175	0.341
-190.187	89.687	-0.108	0.119
-189.173	-159.442	-0.329	0.018
-188.158	-90.702	-0.119	-0.034
-187.144	800.000	-0.096	-0.312
-186.129	406.351	0.148	-0.308
-185.114	-84.948	0.092	0.029
-184.100	123.560	-0.128	0.159
-183.085	-136.728	-0.454	-0.052
-182.071	800.000	-0.027	-0.095
-181.056	-50.742	0.056	0.026
-180.042	413.328	-0.104	0.218
-179.027	34.810	0.181	-0.156
-178.012	-63.715	-0.302	-0.122
-176.998	-114.617	0.210	-0.040
-175.983	-78.909	0.257	-0.086
-174.969	-200.000	0.045	-0.215
-173.954	-145.108	-0.269	-0.024
-172.939	282.983	0.130	-0.231
-171.925	243.888	0.199	-0.330
-170.910	-80.190	-0.014	-0.005
-169.896	-103.537	0.347	0.081
-168.881	-47.328	0.183	0.088
-167.866	800.000	-0.166	0.486
-166.852	35.975	-0.069	0.060
-165.837	800.000	-0.082	0.267
-164.823	1.423	-0.274	0.194
-163.808	-200.000	0.056	-0.263
-162.793	-138.645	-0.067	-0.007
-161.779	196.824	-0.079	-0.120
-160.764	453.328	-0.062	-0.136
-159.750	11.366	-0.432	-0.327
-158.735	130.492	0.286	0.362
-157.720	-107.781	0.119	0.026
-156.706	-57.569	-0.225	0.098
-155.691	27.324	-0.151	-0.125
-154.677	105.810	-0.107	0.125
-153.662	20.327	0.108	0.086
-152.647	-28.045	0.100	-0.057
-151.633	-23.729	0.246	0.146
-150.618	2.657	0.194	0.139
-149.604	28.445	-0.335	0.280
-148.589	800.000	0.095	0.269
-147.574	-108.227	0.053	0.011
-146.560	72.410	-0.177	0.182
-145.545	269.771	-0.138	0.240
-144.531	-79.664	0.203	-0.068
-143.516	-200.000	0.029	-0.224
-142.502	24.683	0.199	-0.162
-141.487	-25.371	0.288	-0.168
-140.472	9.523	-0.275	-0.205
-139.458	-200.000	-0.010	-0.093
-138.443	-200.000	0.064	0.287
-137.429	-134.506	-0.128	0.015
-136.414	562.716	-0.063	-0.151
-135.399	-27.807	0.241	0.138
-134.385	-150.526	-0.409	0.031
-133.370	-200.000	-0.027	0.315
-132.356	-128.116	0.294	0.042
-131.341	-200.000	0.002	-0.124
-130.326	-200.000	-0.043	-0.230
-129.312	-86.974	-0.314	0.094
-128.297	7.342	-0.062	-0.045
-127.283	508.430	0.125	-0.286
-126.268	-144.971	-0.188	0.017
-125.253	-200.000	-0.020	0.090
-124.239	57.277	0.158	-0.152
-123.224	-46.629	0.362	0.175
-122.210	-53.538	0.039	0.017
-121.195	42.494	-0.482	0.432
-120.180	-40.262	-0.082	0.042
-119.166	-170.471	0.040	0.001
-118.151	-60.183	0.197	-0.083
-117.137	238.505	-0.067	-0.109
-116.122	38.339	-0.220	0.193
-115.107	-99.072	-0.303	-0.076
-114.093	212.916	0.109	-0.169
-113.078	-200.000	0.080	0.619
-112.064	-45.447	0.319	-0.156
-111.049	211.642	-0.092	-0.142
-110.034	-200.000	0.002	-0.187
-109.020	-1.107	-0.165	-0.115
-108.005	-108.285	-0.510	0.109
-106.991	-119.362	0.270	0.046
-105.976	508.202	-0.122	0.280
-104.962	-61.382	-0.166	0.069
-103.947	3.168	0.559	-0.400
-102.932	438.919	-0.068	-0.147
-101.918	239.567	-0.145	0.238
-100.903	-81.661	-0.394	-0.127
-99.889	-200.000	-0.033	0.148
-98.874	-33.799	0.176	-0.095
-97.859	-132.786	-0.389	-0.049
-96.845	-200.000	-0.041	0.184
-95.830	-29.201	0.167	0.095
-94.816	-71.364	-0.204	0.075
-93.801	116.765	-0.224	-0.271
-92.786	-147.520	-0.368	0.031
-91.772	-19.080	-0.141	0.086
-90.757	-80.762	0.119	-0.039
-89.743	-40.391	-0.395	-0.202
-88.728	28.886	0.200	-0.167
-87.713	-3.714	-0.141	0.097
-86.699	800.000	0.077	-0.278
-85.684	735.115	0.055	0.144
-84.670	-200.000	0.016	-0.122
-83.655	3.476	0.154	-0.111
-82.640	87.911	0.174	-0.190
-81.626	-93.945	0.143	-0.039
-80.611	-22.308	-0.180	0.107
-79.597	-200.000	0.002	0.067
-78.582	-200.000	0.063	0.336
-77.567	496.978	0.049	0.111
-76.553	146.029	0.108	-0.143
-75.538	800.000	0.187	0.537
-74.524	-200.000	-0.013	0.194
-73.509	-139.994	-0.248	-0.026
-72.494	60.526	0.171	0.167
-71.480	-200.000	-0.022	-0.141
-70.465	-200.000	0.062	-0.329
-69.451	22.191	0.091	-0.073
-68.436	334.868	-0.158	0.301
-67.422	-200.000	-0.011	-0.175
-66.407	-12.368	-0.167	0.108
-65.392	73.649	0.113	0.116
-64.378	-37.246	-0.274	-0.144
-63.363	100.506	0.182	-0.208
-62.349	713.826	0.090	0.235
-61.334	34.932	-1.057	-0.910
-60.319	47.348	0.344	0.316
-59.305	188.030	-0.657	-0.966
-58.290	126.697	0.855	1.065
-57.276	115.869	1.005	1.209
-56.261	-200.000	100.054	591.220
-55.246	500.255	1427.162	3237.201
-54.232	153.212	2609.251	3510.661
-53.217	110.937	2163.694	2561.049
-52.203	43.025	1608.061	1442.083
-51.188	34.438	1341.155	1151.125
-50.173	31.209	1299.181	1096.127
-49.159	54.272	1348.932	1276.555
-48.144	55.569	1365.095	1299.550
-47.130	34.700	1322.669	1136.638
-46.115	31.075	1305.285	1100.317
-45.100	30.903	1300.613	1095.318
-44.086	30.868	1297.922	1092.804
-43.071	30.854	1295.605	1090.728
-42.057	30.702	1293.576	1088.089
-41.042	30.662	1292.291	1086.731
-40.027	30.854	1290.302	1086.138
-39.013	30.761	1288.855	1084.335
-37.998	30.845	1286.955	1083.183
-36.984	30.848	1285.134	1081.625
-35.969	30.912	1283.470	1080.550
-34.954	30.984	1281.678	1079.417
-33.940	30.915	1280.444	1077.937
-32.925	30.944	1279.649	1077.392
-31.911	31.015	1277.623	1076.052
-30.896	31.024	1276.597	1075.198
-29.881	31.082	1275.060	1074.193
-28.867	31.114	1273.513	1073.033
-27.852	31.037	1272.190	1071.434
-26.838	31.088	1270.535	1070.289
-25.823	30.956	1268.982	1068.178
-24.809	30.936	1268.199	1067.366
-23.794	30.893	1267.248	1066.275
-22.779	30.912	1265.678	1065.024
-21.765	31.025	1263.922	1064.147
-20.750	31.019	1262.496	1062.868
-19.736	30.865	1261.923	1061.469
-18.721	30.848	1260.622	1060.237
-17.706	30.867	1259.423	1059.293
-16.692	30.865	1258.588	1058.537
-15.677	30.825	1256.750	1056.719
-14.663	30.868	1255.804	1056.127
-13.648	30.781	1254.882	1054.818
-12.633	30.818	1253.846	1054.115
-11.619	30.778	1252.985	1053.121
-10.604	30.855	1252.126	1052.794
-9.590	30.844	1251.160	1051.878
-8.575	30.677	1250.524	1050.357
-7.560	30.799	1249.356	1050.025
-6.546	30.809	1248.669	1049.463
-5.531	30.696	1248.077	1048.284
-4.517	30.868	1246.721	1048.073
-3.502	30.872	1245.576	1047.093
-2.487	30.884	1244.946	1046.587
-1.473	30.778	1241.296	1042.885
-0.458	29.687	1226.282	1024.188
0.556	24.850	1209.787	987.878
1.571	21.199	1215.347	972.048
2.586	20.096	1230.598	977.935
3.600	19.766	1219.707	967.351
4.615	14.731	1146.669	882.793
5.629	5.325	1069.820	776.979
6.644	0.629	1049.895	739.489
7.659	0.324	1047.560	736.292
8.673	0.283	1046.314	735.147
9.688	0.295	1044.543	733.897
10.702	0.614	1042.939	734.257
11.717	6.059	1050.548	766.159
12.731	14.699	1061.632	816.592
13.746	17.979	1064.497	834.781
14.761	17.224	1063.369	830.133
15.775	16.275	1061.621	824.067
16.790	15.256	1059.335	817.251
17.804	14.597	1057.602	812.634
18.819	14.259	1056.760	810.270
19.834	13.832	1055.828	807.411
20.848	13.656	1054.650	805.584
21.863	13.387	1054.116	803.794
22.877	13.273	1053.793	802.924
23.892	13.228	1052.744	801.834
24.907	13.206	1052.427	801.416
25.921	13.321	1051.255	801.011
26.936	13.275	1050.762	800.341
27.950	13.325	1049.449	799.513
28.965	13.470	1048.095	799.111
29.980	13.547	1047.141	798.682
30.994	13.590	1046.045	797.983
32.009	13.617	1044.980	797.229
33.023	13.528	1044.366	796.262
34.038	13.591	1043.109	795.536
35.053	13.426	1042.784	794.427
36.067	13.502	1041.313	793.601
37.082	13.482	1040.602	792.892
38.096	13.428	1041.043	792.899
39.111	13.525	1039.618	792.207
40.126	13.452	1038.185	790.699
41.140	13.417	1036.983	789.546
42.155	13.178	1036.371	787.869
43.169	13.281	1035.197	787.398
44.184	13.226	1034.229	786.332
45.199	13.152	1033.640	785.461
46.213	13.331	1032.492	785.368
47.228	13.298	1031.300	784.238
48.242	13.454	1030.216	784.080
49.257	13.281	1029.394	782.566
50.271	13.445	1028.342	782.475
51.286	13.392	1027.650	781.631
52.301	13.532	1026.547	781.381
53.315	13.325	1025.774	779.747
54.330	13.383	1024.757	779.177
55.344	13.268	1023.781	777.825
56.359	13.197	1023.201	776.984
57.374	13.328	1022.072	776.673
58.388	13.206	1021.272	775.423
59.403	13.258	1020.538	775.042
60.417	13.271	1019.773	774.454
61.432	13.311	1018.503	773.605
62.447	13.329	1017.890	773.159
63.461	13.200	1016.876	771.714
64.476	13.219	1016.247	771.261
65.490	13.238	1015.504	770.716
66.505	13.229	1014.932	770.172
67.520	13.304	1014.173	769.874
68.534	13.343	1013.547	769.514
69.549	13.328	1012.751	768.770
70.563	13.233	1012.028	767.716
71.578	13.213	1010.985	766.763
72.593	13.203	1010.431	766.230
73.607	13.237	1009.839	765.869
74.622	13.219	1009.273	765.291
75.636	13.236	1008.224	764.505
76.651	13.145	1007.970	763.823
77.666	13.233	1006.872	763.327
78.680	13.201	1006.577	762.892
79.695	13.182	1006.240	762.481
80.709	13.217	1005.272	761.843
81.724	13.341	1004.616	761.846
82.739	13.404	1003.481	761.207
83.753	13.345	1003.101	760.580
84.768	13.496	1002.064	760.423
85.782	13.374	1002.017	759.761
86.797	13.508	1000.419	759.094
87.812	13.357	999.957	757.984
88.826	13.334	999.064	757.134
89.841	13.439	997.811	756.597
90.855	13.424	996.509	755.474
91.870	13.432	996.808	755.670
92.884	13.440	995.682	754.790
93.899	13.479	994.493	754.000
94.914	13.555	994.012	753.911
95.928	13.644	992.938	753.437
96.943	13.590	992.484	752.779
97.957	13.328	991.654	750.892
98.972	13.500	990.408	750.663
99.987	13.593	989.508	750.335
101.001	13.480	988.483	748.982
102.016	13.443	987.970	748.359
103.030	13.617	986.984	748.334
104.045	13.456	986.388	747.086
105.060	13.482	985.422	746.408
106.074	13.370	984.774	745.347
107.089	13.301	983.773	744.212
108.103	13.380	982.296	743.382
109.118	13.319	982.028	742.838
110.133	13.333	981.111	742.143
111.147	13.329	980.083	741.283
112.162	13.378	978.979	740.602
113.176	13.519	978.268	740.629
114.191	13.367	977.982	739.669
115.206	13.327	976.994	738.675
116.220	13.377	976.219	738.249
117.235	13.561	975.225	738.251
118.249	13.502	974.259	737.192
119.264	13.309	974.126	736.168
120.279	13.405	972.873	735.580
121.293	13.366	971.614	734.390
122.308	13.482	970.698	734.147
123.322	13.355	970.066	733.043
124.337	13.337	969.385	732.384
125.352	13.425	968.296	731.887
126.366	13.358	967.209	730.703
127.381	13.488	965.702	730.075
128.395	13.418	965.222	729.338
129.410	13.394	964.476	728.605
130.424	13.443	963.555	728.059
131.439	13.560	962.610	727.792
132.454	13.497	961.896	726.914
133.468	13.540	960.712	726.141
134.483	13.598	960.058	725.837
135.497	13.592	959.334	725.200
136.512	13.519	958.726	724.356
137.527	13.512	957.705	723.490
138.541	13.567	956.899	723.057
139.556	13.483	956.458	722.296
140.570	13.566	955.907	722.177
141.585	13.651	954.750	721.610
142.600	13.642	953.982	720.926
143.614	13.697	953.235	720.537
144.629	13.658	952.461	719.717
145.643	13.806	951.146	719.301
146.658	13.621	950.266	717.770
147.673	13.662	949.432	717.254
148.687	13.648	948.863	716.702
149.702	13.550	947.838	715.442
150.716	13.651	947.121	715.270
151.731	13.572	946.728	714.573
152.746	13.576	946.275	714.182
153.760	13.562	945.779	713.684
154.775	13.527	944.851	712.773
155.789	13.762	943.921	713.015
156.804	13.691	943.205	712.110
157.819	13.689	942.652	711.617
158.833	13.815	941.452	711.192
159.848	13.810	940.728	710.558
160.862	13.670	940.385	709.639
161.877	13.681	939.284	708.790
162.892	13.553	938.602	707.667
163.906	13.622	937.367	706.967
164.921	13.695	936.473	706.541
165.935	13.629	935.623	705.559
166.950	13.782	934.515	705.312
167.964	13.681	933.932	704.377
168.979	13.732	932.833	703.702
169.994	13.722	932.314	703.207
171.008	13.708	931.963	702.823
172.023	13.733	931.044	702.174
173.037	13.839	930.303	702.000
174.052	13.908	929.261	701.443
175.067	13.815	928.865	700.691
176.081	13.710	928.630	700.005
177.096	13.678	928.229	699.507
178.110	13.702	927.355	698.886
179.125	13.830	926.448	698.681
180.140	13.887	926.078	698.581
181.154	13.929	925.637	698.362
182.169	13.876	924.867	697.497
183.183	13.889	924.604	697.289
184.198	13.815	923.679	696.223
185.213	13.971	922.895	696.222
186.227	14.005	922.286	695.842
187.242	13.979	921.887	695.371
188.256	14.100	921.129	695.246
189.271	14.074	920.341	694.483
190.286	13.957	919.849	693.560
191.300	13.940	918.787	692.627
192.315	13.828	918.055	691.548
193.329	13.874	918.067	691.687
194.344	13.958	917.252	691.362
195.359	13.923	916.450	690.548
196.373	13.985	916.100	690.484
197.388	14.087	915.616	690.481
198.402	14.199	915.109	690.500
199.417	14.117	914.482	689.628
200.432	14.242	913.600	689.417
201.446	14.308	913.381	689.466
202.461	14.341	912.618	688.967
203.475	14.251	912.125	688.161
204.490	14.255	911.500	687.645
205.504	14.254	910.567	686.876
206.519	14.349	909.543	686.434
207.534	14.177	909.160	685.373
208.548	14.379	908.405	685.578
209.563	14.325	907.918	684.925
210.577	14.385	907.148	684.530
211.592	14.327	906.492	683.737
212.607	14.356	905.805	683.278
213.621	14.400	904.881	682.700
214.636	14.403	904.364	682.262
215.650	14.313	903.979	681.543
216.665	14.393	903.448	681.412
217.680	14.486	902.516	681.027
218.694	14.538	901.489	680.404
219.709	14.430	901.382	679.821
220.723	14.505	900.329	679.273
221.738	14.556	899.379	678.704
222.753	14.541	899.119	678.388
223.767	14.520	898.503	677.778
224.782	14.630	898.095	677.857
225.796	14.683	897.599	677.637
226.811	14.590	896.821	676.613
227.826	14.510	895.997	675.608
228.840	14.340	895.574	674.539
229.855	14.575	894.294	674.465
230.869	14.554	893.467	673.697
231.884	14.455	893.148	672.997
232.899	14.658	892.369	673.170
233.913	14.476	891.767	671.923
234.928	14.543	891.012	671.566
235.942	14.581	890.470	671.249
236.957	14.576	890.167	670.941
237.972	14.507	889.308	669.958
238.986	14.550	888.647	669.573
240.001	14.671	887.672	669.263
241.015	14.594	887.577	668.825
242.030	14.713	886.856	668.697
243.045	14.695	886.413	668.233
244.059	14.671	885.573	667.444
245.074	14.704	885.018	667.098
246.088	14.761	884.277	666.710
247.103	14.822	883.736	666.486
248.117	14.781	883.507	666.091
249.132	14.950	882.782	666.159
250.147	15.027	881.701	665.589
251.161	14.899	881.637	664.973
252.176	15.031	880.530	664.605
253.190	15.088	879.856	664.264
254.205	15.147	879.631	664.267
255.220	15.115	878.768	663.432
256.234	15.106	878.137	662.860
257.249	15.212	877.557	662.781
258.263	15.123	876.974	661.931
259.278	15.103	876.517	661.451
260.293	15.270	875.614	661.367
261.307	15.072	875.227	660.238
262.322	15.364	874.413	660.717
263.336	15.292	873.590	659.753
264.351	15.190	873.136	658.947
265.366	15.197	872.851	658.702
266.380	15.284	871.792	658.188
267.395	15.178	871.292	657.334
268.409	15.435	870.130	657.406
269.424	15.288	869.842	656.556
270.439	15.327	868.724	655.807
271.453	15.225	868.327	655.049
272.468	15.401	867.732	655.231
273.482	15.265	867.018	654.104
274.497	15.313	866.670	653.969
275.512	15.160	866.313	653.045
276.526	15.394	865.653	653.403
277.541	15.396	864.882	652.769
278.555	15.505	864.481	652.832
279.570	15.506	864.196	652.564
280.585	15.495	863.000	651.562
281.599	15.543	862.318	651.175
282.614	15.479	861.683	650.388
283.628	15.447	861.582	650.131
284.643	15.489	861.106	649.878
285.657	15.495	859.895	648.930
286.672	15.384	859.614	648.230
287.687	15.564	858.749	648.214
288.701	15.503	858.327	647.604
289.716	15.611	857.721	647.507
290.730	15.620	857.033	646.964
291.745	15.733	856.098	646.637
292.760	15.667	855.709	646.033
293.774	15.758	855.439	646.118
294.789	15.597	854.907	645.044
295.803	15.594	854.224	644.459
296.818	15.559	853.450	643.686
297.833	15.588	852.919	643.339
298.847	15.614	851.948	642.647
299.862	15.699	851.629	642.676
300.876	15.761	850.969	642.359
301.891	15.955	849.790	642.150
302.906	15.842	849.569	641.497
303.920	16.002	849.259	641.814
304.935	15.900	848.761	640.992
305.949	15.942	847.959	640.492
306.964	15.841	847.306	639.555
307.979	15.967	846.766	639.569
308.993	15.935	846.647	639.301
310.008	15.921	845.544	638.359
311.022	16.031	845.022	638.327
312.037	15.963	844.111	637.324
313.052	16.004	843.877	637.247
314.066	15.841	843.560	636.335
315.081	15.797	843.352	635.954
316.095	16.009	842.165	635.804
317.110	16.017	841.964	635.625
318.125	15.884	841.705	634.873
319.139	15.931	840.780	634.294
320.154	16.022	840.550	634.410
321.168	16.015	839.765	633.734
322.183	15.986	839.265	633.192
323.197	16.103	838.662	633.119
324.212	16.032	838.243	632.481
325.227	15.982	837.694	631.825
326.241	15.935	837.274	631.274
327.256	15.862	836.889	630.655
328.270	15.978	835.953	630.326
329.285	16.138	835.057	630.193
330.300	16.069	834.640	629.566
331.314	16.074	834.361	629.318
332.329	16.014	833.768	628.591
333.343	16.150	833.476	628.823
334.358	16.127	833.094	628.392
335.373	16.239	832.804	628.537
336.387	16.349	832.147	628.395
337.402	16.254	832.016	627.885
338.416	16.293	831.235	627.385
339.431	16.332	831.081	627.361
340.446	16.462	830.773	627.552
341.460	16.313	830.943	627.072
342.475	16.418	830.174	626.826
343.489	16.583	829.252	626.688
344.504	16.471	828.843	625.908
345.519	16.440	828.165	625.225
346.533	16.555	827.511	625.101
347.548	16.617	826.956	624.856
348.562	16.532	826.568	624.195
349.577	16.466	825.845	623.348
350.592	16.510	825.682	623.333
351.606	16.400	825.060	622.403
352.621	16.402	824.561	621.981
353.635	16.474	823.604	621.468
354.650	16.408	823.039	620.743
355.665	16.530	822.231	620.525
356.679	16.493	821.968	620.138
357.694	16.548	821.373	619.835
358.708	16.671	820.326	619.439
359.723	16.636	819.874	618.916
360.738	16.592	819.633	618.520
361.752	16.740	818.936	618.477
362.767	16.663	818.194	617.582
363.781	16.681	818.145	617.555
364.796	16.844	817.407	617.538
365.810	16.819	817.231	617.261
366.825	16.971	816.671	617.334
367.840	16.715	816.209	616.000
368.854	16.837	815.527	615.876
369.869	16.766	814.986	615.154
370.883	16.903	815.007	615.613
371.898	16.822	814.758	615.076
372.913	16.972	814.257	615.186
373.927	16.963	813.728	614.702
374.942	16.883	813.356	614.076
375.956	17.144	812.713	614.481
376.971	17.046	812.554	613.950
377.986	17.140	811.785	613.655
379.000	17.197	811.258	613.409
380.015	16.997	810.945	612.397
381.029	17.128	810.344	612.362
382.044	17.053	809.905	611.703
383.059	17.096	809.338	611.378
384.073	17.031	808.851	610.721
385.088	17.020	808.125	610.079
386.102	17.072	807.248	609.548
387.117	17.126	806.928	609.446
388.132	17.075	806.276	608.718
389.146	17.253	805.494	608.711
390.161	17.242	805.302	608.475
391.175	17.305	804.824	608.284
392.190	17.128	804.378	607.261
393.205	17.132	804.074	606.991
394.219	17.135	803.817	606.753
395.234	17.142	803.320	606.352
396.248	17.049	803.002	605.726
397.263	17.166	802.438	605.661
398.278	17.059	802.350	605.162
399.292	17.130	801.739	604.899
400.307	17.264	801.040	604.796
401.321	17.099	800.551	603.787
402.336	17.228	800.364	604.052
403.350	17.355	799.601	603.873
404.365	17.343	799.253	603.513
405.380	17.426	798.825	603.430
406.394	17.460	798.161	602.995
407.409	17.431	797.636	602.445
408.423	17.365	797.860	602.326
409.438	17.549	797.361	602.546
410.453	17.532	796.915	602.098
411.467	17.632	795.981	601.689
412.482	17.655	795.770	601.560
413.496	17.474	795.770	600.868
414.511	17.560	795.251	600.725
415.526	17.613	794.924	600.612
416.540	17.744	794.009	600.330
417.555	17.656	793.422	599.523
418.569	17.523	793.496	599.058
419.584	17.771	792.846	599.385
420.599	17.791	792.303	598.990
421.613	108.876	1288.408	1462.689
422.628	93.519	1360.668	1462.801
