DTS Sentinel unit serial number:	SN413079Multiplexer serial number:	ORYXHardware model number:	OX4-SRSoftware version number:	ORYX F/W v4.00 Oryx Data Collector v3.7.2.0data status	okinstallation	princeton_trtdifferential loss correction	single-endedforward channel	channel 1reverse channel	N/Adate	2019/09/16time	04:02:35forward acquisition time	60.00reverse acquisition time	0.00gamma	496.2192k internal	0.2331k external	0.2331temperature offset calibration	0.9985default loss term (dB/km)	0.3790temperature slope calibration	1.0000multiplexer offset coefficient	1.0000multiplexer slope coefficient	1.0000fibre end	0.00T internal ref (°C)	27.44T ext. ref 1 (°C)	10.72T ext. ref 2 (°C)	21.43length (m)	temperature (°C)	Stokes	anti-Stokes-747.200	-171.930	0.224	-0.007
-746.185	-188.962	0.183	-0.002
-745.171	183.349	-0.027	-0.040
-744.156	-52.785	-0.153	-0.071
-743.142	337.696	0.079	0.155
-742.127	800.000	-0.015	0.048
-741.112	132.882	0.184	-0.238
-740.098	-30.613	-0.037	-0.021
-739.083	-140.675	-0.232	0.024
-738.069	544.217	0.107	0.256
-737.054	750.596	0.096	0.261
-736.039	-89.922	-0.145	0.042
-735.025	152.427	0.144	-0.198
-734.010	322.811	0.061	-0.117
-732.996	34.640	-0.170	-0.150
-731.981	-156.035	0.121	0.008
-730.966	-38.724	0.101	-0.054
-729.952	-200.000	-0.011	-0.315
-728.937	191.356	0.297	-0.450
-727.923	356.965	-0.128	-0.257
-726.908	786.724	0.094	-0.260
-725.894	-200.000	-0.023	-0.366
-724.879	-200.000	-0.008	0.197
-723.864	-1.407	-0.161	0.114
-722.850	-86.124	0.103	0.032
-721.835	80.098	-0.120	-0.130
-720.821	-161.495	-0.205	-0.011
-719.806	-109.259	-0.155	0.033
-718.791	-74.005	-0.210	0.077
-717.777	800.000	-0.128	-0.375
-716.762	-200.000	-0.020	-0.150
-715.748	-116.718	-0.360	-0.066
-714.733	800.000	-0.048	-0.144
-713.718	345.399	0.093	0.184
-712.704	-200.000	-0.034	-0.184
-711.689	-168.927	0.236	-0.009
-710.675	-60.940	0.040	0.017
-709.660	544.875	0.127	-0.304
-708.645	437.918	-0.081	-0.177
-707.631	70.300	-0.142	-0.148
-706.616	23.825	0.174	0.144
-705.602	-96.400	0.065	-0.017
-704.587	-24.493	-0.137	0.082
-703.572	-200.000	0.017	-0.125
-702.558	-31.812	0.108	-0.061
-701.543	441.976	0.039	-0.087
-700.529	800.000	-0.028	0.090
-699.514	-16.706	0.190	-0.121
-698.499	800.000	-0.021	0.067
-697.485	-160.775	-0.162	-0.009
-696.470	-200.000	-0.028	-0.166
-695.456	71.752	0.326	0.340
-694.441	-200.000	0.003	-0.098
-693.426	14.655	-0.174	0.137
-692.412	-158.039	0.220	0.013
-691.397	-138.923	-0.336	-0.037
-690.383	30.702	0.204	-0.176
-689.368	345.437	-0.108	0.212
-688.354	-121.000	0.336	0.057
-687.339	800.000	-0.074	-0.228
-686.324	800.000	0.030	-0.098
-685.310	-24.130	-0.035	-0.021
-684.295	99.624	-0.123	-0.143
-683.281	-18.565	-0.175	0.110
-682.266	-111.170	0.328	-0.067
-681.251	-52.748	-0.211	0.098
-680.237	9.550	-0.119	-0.091
-679.222	152.643	0.055	-0.075
-678.208	800.000	-0.071	0.291
-677.193	109.867	0.091	-0.110
-676.178	-141.090	0.183	0.019
-675.164	800.000	-0.013	0.042
-674.149	-200.000	-0.010	-0.063
-673.135	-200.000	-0.037	0.252
-672.120	14.759	0.390	-0.306
-671.105	7.338	-0.257	0.193
-670.091	-106.242	-0.168	-0.038
-669.076	-97.271	-0.123	0.032
-668.062	31.271	-0.214	-0.184
-667.047	-54.364	-0.278	-0.126
-666.032	-66.095	0.341	0.136
-665.018	113.057	-0.131	0.159
-664.003	303.108	0.143	0.266
-662.989	-152.832	-0.363	0.026
-661.974	-127.037	0.134	0.020
-660.959	-136.475	-0.249	-0.029
-659.945	800.000	0.033	-0.105
-658.930	40.511	0.041	0.037
-657.916	20.736	-0.105	0.085
-656.901	19.081	0.130	0.105
-655.886	287.488	0.113	-0.205
-654.872	-126.769	-0.151	-0.022
-653.857	-200.000	0.025	-0.210
-652.843	-184.257	0.126	0.002
-651.828	-200.000	-0.034	-0.222
-650.814	303.495	-0.081	-0.151
-649.799	800.000	-0.071	-0.281
-648.784	235.194	-0.090	0.149
-647.770	568.216	-0.051	0.125
-646.755	-51.971	0.248	0.115
-645.741	-113.182	-0.192	-0.038
-644.726	-200.000	-0.001	0.167
-643.711	-94.176	0.142	0.039
-642.697	128.875	-0.112	0.143
-641.682	-49.366	0.065	-0.031
-640.668	69.420	0.265	0.274
-639.653	-48.290	-0.272	-0.132
-638.638	-200.000	-0.003	0.175
-637.624	-200.000	0.013	0.194
-636.609	64.846	0.280	0.283
-635.595	645.137	0.091	0.232
-634.580	-59.841	0.178	0.076
-633.565	106.957	0.241	-0.287
-632.551	200.840	-0.083	-0.128
-631.536	-200.000	-0.041	0.377
-630.522	-113.361	0.112	0.022
-629.507	-96.011	-0.131	-0.035
-628.492	800.000	-0.113	-0.349
-627.478	-53.361	0.189	-0.087
-626.463	160.394	-0.130	0.182
-625.449	-180.496	0.227	0.005
-624.434	800.000	-0.053	-0.200
-623.419	-200.000	-0.014	-0.145
-622.405	758.802	-0.121	-0.329
-621.390	-61.053	-0.115	-0.049
-620.376	44.487	-0.108	0.100
-619.361	-14.769	0.210	0.135
-618.346	-13.571	0.039	-0.025
-617.332	-116.210	-0.145	-0.027
-616.317	-13.353	0.372	-0.242
-615.303	-28.536	0.261	0.150
-614.288	82.312	0.299	-0.325
-613.273	10.135	0.209	0.159
-612.259	-175.600	-0.203	0.005
-611.244	5.566	-0.256	0.189
-610.230	-200.000	-0.021	-0.433
-609.215	519.175	0.164	0.384
-608.201	106.878	0.195	0.232
-607.186	-200.000	-0.025	-0.281
-606.171	800.000	-0.050	0.173
-605.157	184.864	-0.230	0.341
-604.142	-200.000	-0.003	-0.341
-603.128	39.659	-0.204	-0.183
-602.113	174.469	0.075	-0.109
-601.098	-200.000	-0.061	0.323
-600.084	-200.000	-0.014	0.438
-599.069	800.000	0.096	-0.354
-598.055	-200.000	0.024	-0.199
-597.040	482.095	-0.021	-0.048
-596.025	17.121	-0.104	-0.083
-595.011	-200.000	0.018	-0.091
-593.996	52.636	-0.125	-0.120
-592.982	75.587	-0.335	-0.354
-591.967	-200.000	0.026	-0.182
-590.952	504.746	-0.100	0.231
-589.938	-200.000	0.047	0.274
-588.923	-200.000	-0.039	-0.264
-587.909	800.000	-0.025	0.075
-586.894	2.532	0.165	-0.120
-585.879	-110.141	0.290	-0.061
-584.865	800.000	-0.034	-0.146
-583.850	-97.283	-0.154	-0.040
-582.836	-67.655	0.499	0.195
-581.821	142.119	-0.251	0.333
-580.806	-31.984	-0.138	0.077
-579.792	-116.517	0.174	-0.032
-578.777	39.647	-0.034	-0.031
-577.763	230.175	0.095	0.155
-576.748	-105.060	-0.470	-0.108
-575.733	-126.458	-0.107	-0.016
-574.719	-94.399	0.273	-0.074
-573.704	800.000	-0.097	0.346
-572.690	697.072	-0.058	0.152
-571.675	-139.298	-0.025	-0.003
-570.661	-62.516	0.049	-0.020
-569.646	-200.000	-0.007	-0.053
-568.631	-200.000	0.031	-0.196
-567.617	-200.000	-0.011	-0.156
-566.602	175.471	-0.255	0.369
-565.588	800.000	-0.045	-0.150
-564.573	600.221	-0.094	0.232
-563.558	658.320	-0.099	0.253
-562.544	31.784	0.215	-0.185
-561.529	124.494	0.137	-0.172
-560.515	-69.944	-0.184	0.070
-559.500	-76.075	0.188	0.066
-558.485	180.092	-0.101	0.148
-557.471	800.000	-0.065	-0.187
-556.456	-98.387	-0.153	-0.039
-555.442	-79.125	-0.216	0.073
-554.427	77.684	0.374	-0.398
-553.412	654.639	0.063	0.163
-552.398	-150.752	0.293	0.022
-551.383	161.277	-0.050	-0.070
-550.369	-73.983	-0.125	-0.045
-549.354	-135.607	0.203	-0.024
-548.339	-66.461	-0.177	0.070
-547.325	800.000	-0.076	0.317
-546.310	-200.000	0.024	-0.122
-545.296	-86.088	-0.348	-0.107
-544.281	-200.000	-0.003	0.066
-543.266	800.000	-0.089	-0.284
-542.252	-131.961	0.208	-0.027
-541.237	412.295	0.138	-0.292
-540.223	45.648	0.171	-0.158
-539.208	-114.806	-0.108	-0.020
-538.193	-145.533	-0.304	-0.027
-537.179	-65.683	-0.141	0.056
-536.164	-56.063	0.113	-0.050
-535.150	61.804	0.088	0.088
-534.135	639.599	0.049	-0.124
-533.121	-18.209	0.141	-0.088
-532.106	-71.617	-0.506	0.189
-531.091	-49.287	-0.128	-0.061
-530.077	547.395	0.012	0.028
-529.062	-113.933	0.338	-0.065
-528.048	-74.630	0.231	0.083
-527.033	246.224	-0.082	0.138
-526.018	29.673	0.115	0.098
-525.004	-200.000	-0.050	-0.337
-523.989	50.136	-0.429	-0.404
-522.975	145.894	-0.202	-0.270
-521.960	549.434	0.047	-0.111
-520.945	-200.000	0.066	0.547
-519.931	-87.378	-0.114	0.034
-518.916	-56.665	-0.133	0.059
-517.902	92.334	0.085	-0.096
-516.887	-11.139	-0.076	0.050
-515.872	800.000	-0.075	0.238
-514.858	-135.369	-0.496	0.059
-513.843	-102.909	0.222	0.053
-512.829	-24.754	-0.103	-0.061
-511.814	-25.356	0.143	0.085
-510.799	-87.699	-0.101	-0.030
-509.785	-11.057	0.083	0.054
-508.770	87.841	0.193	-0.213
-507.756	-175.940	-0.512	-0.014
-506.741	-26.599	0.241	0.140
-505.726	-177.484	-0.332	0.008
-504.712	-200.000	0.032	-0.419
-503.697	-102.911	-0.061	-0.014
-502.683	42.608	-0.190	0.172
-501.668	-145.676	0.101	-0.009
-500.653	393.673	0.186	-0.386
-499.639	248.085	0.152	0.255
-498.624	157.833	0.226	0.312
-497.610	40.204	0.326	0.293
-496.595	-63.966	0.215	0.088
-495.581	-35.916	-0.133	0.072
-494.566	-95.879	0.117	-0.031
-493.551	259.419	0.102	-0.175
-492.537	156.801	0.164	-0.226
-491.522	-200.000	-0.023	-0.143
-490.508	-35.405	0.232	0.125
-489.493	-39.089	-0.033	-0.017
-488.478	736.907	0.055	0.148
-487.464	20.768	0.043	0.035
-486.449	-200.000	0.002	-0.185
-485.435	800.000	0.053	-0.211
-484.420	2.933	0.101	0.073
-483.405	800.000	-0.073	-0.257
-482.391	-44.722	0.143	0.071
-481.376	21.468	0.056	-0.045
-480.362	280.596	-0.104	-0.185
-479.347	50.939	-0.137	-0.129
-478.332	-50.982	0.150	-0.070
-477.318	290.520	0.101	-0.183
-476.303	-200.000	0.035	-0.329
-475.289	800.000	-0.069	-0.264
-474.274	70.962	0.120	-0.124
-473.259	800.000	-0.051	-0.179
-472.245	-200.000	0.045	0.309
-471.230	59.646	0.128	-0.126
-470.216	-143.781	0.263	0.025
-469.201	365.927	-0.068	-0.136
-468.186	-105.424	0.167	0.038
-467.172	-72.532	-0.385	0.141
-466.157	-2.880	-0.091	0.064
-465.143	-200.000	-0.050	-0.327
-464.128	251.060	-0.196	-0.332
-463.113	-88.396	0.145	-0.043
-462.099	-162.617	-0.082	-0.004
-461.084	-59.280	-0.156	-0.067
-460.070	6.105	-0.288	-0.212
-459.055	132.835	0.121	-0.156
-458.040	306.975	-0.217	-0.402
-457.026	-200.000	0.047	-0.312
-456.011	-60.691	0.090	0.038
-454.997	21.663	-0.187	0.152
-453.982	-3.519	0.389	0.269
-452.968	70.766	0.128	0.132
-451.953	-33.821	-0.130	0.071
-450.938	800.000	0.081	0.221
-449.924	800.000	-0.036	0.145
-448.909	-1.779	-0.331	-0.232
-447.895	-155.952	-0.216	0.014
-446.880	-133.181	0.404	-0.051
-445.865	-72.285	-0.370	-0.136
-444.851	-153.091	0.210	0.015
-443.836	-30.768	0.122	0.068
-442.822	-89.745	-0.267	0.078
-441.807	70.978	0.144	-0.149
-440.792	-13.089	0.219	-0.142
-439.778	-200.000	-0.028	-0.458
-438.763	800.000	-0.090	0.351
-437.749	144.406	0.323	0.428
-436.734	487.875	-0.091	0.207
-435.719	165.606	-0.025	-0.035
-434.705	591.735	0.095	-0.232
-433.690	-0.183	0.111	-0.078
-432.676	4.529	0.380	0.277
-431.661	-200.000	-0.048	-0.441
-430.646	-77.838	-0.079	-0.027
-429.632	240.778	-0.096	0.160
-428.617	-200.000	-0.046	0.265
-427.603	-25.567	0.148	-0.087
-426.588	-86.273	0.230	-0.070
-425.573	395.468	0.142	-0.294
-424.559	369.852	0.094	0.189
-423.544	-200.000	-0.019	0.083
-422.530	-75.230	-0.184	0.065
-421.515	-200.000	0.031	0.306
-420.500	-170.647	-0.145	0.005
-419.486	63.401	-0.148	-0.147
-418.471	236.032	0.089	-0.146
-417.457	-200.000	-0.002	-0.092
-416.442	-200.000	-0.008	-0.256
-415.428	-127.305	0.108	0.016
-414.413	-89.336	0.061	0.018
-413.398	69.117	0.073	-0.075
-412.384	75.428	0.036	0.038
-411.369	98.326	-0.105	-0.121
-410.355	191.732	0.103	-0.155
-409.340	33.593	0.249	-0.215
-408.325	-79.362	-0.085	-0.029
-407.311	800.000	-0.020	-0.055
-406.296	111.515	0.146	-0.175
-405.282	-200.000	-0.018	-0.167
-404.267	289.531	0.090	0.163
-403.252	100.293	0.142	-0.164
-402.238	-200.000	0.004	0.079
-401.223	-113.387	0.352	-0.069
-400.209	-24.484	-0.011	0.007
-399.194	-8.725	0.160	-0.107
-398.179	169.784	0.106	-0.150
-397.165	-123.939	-0.068	-0.011
-396.150	800.000	0.045	-0.174
-395.136	268.736	0.151	0.262
-394.121	-65.083	-0.190	-0.076
-393.106	-148.987	0.093	0.007
-392.092	-106.143	-0.229	0.051
-391.077	17.360	0.246	-0.193
-390.063	283.435	-0.104	-0.185
-389.048	800.000	-0.108	-0.441
-388.033	-99.526	0.251	-0.063
-387.019	245.754	0.014	-0.024
-386.004	-106.802	-0.197	0.043
-384.990	117.419	-0.180	-0.220
-383.975	-35.109	0.352	0.190
-382.960	-151.180	-0.252	0.019
-381.946	-166.173	-0.354	-0.015
-380.931	-129.342	0.062	0.009
-379.917	77.453	-0.284	0.300
-378.902	-155.016	-0.198	0.013
-377.888	-46.942	0.027	0.013
-376.873	-76.243	-0.332	0.116
-375.858	482.967	-0.072	0.163
-374.844	-24.777	0.103	-0.060
-373.829	-200.000	-0.001	0.056
-372.815	-200.000	0.013	0.219
-371.800	-90.537	-0.133	0.038
-370.785	250.002	-0.039	-0.065
-369.771	-126.735	0.106	0.016
-368.756	-41.642	-0.256	0.131
-367.742	-42.031	0.117	-0.059
-366.727	129.020	0.239	0.302
-365.712	58.242	0.092	-0.090
-364.698	-200.000	0.018	-0.092
-363.683	332.966	0.148	-0.284
-362.669	357.415	-0.045	-0.090
-361.654	412.157	-0.071	0.149
-360.639	130.810	0.043	-0.055
-359.625	39.441	0.139	0.124
-358.610	800.000	0.065	0.179
-357.596	-43.231	-0.220	0.110
-356.581	-168.544	0.302	0.011
-355.566	429.788	0.157	-0.336
-354.552	-9.013	0.048	-0.032
-353.537	-103.227	0.295	0.069
-352.523	13.184	0.267	0.205
-351.508	19.905	-0.140	-0.112
-350.493	-63.885	-0.134	-0.054
-349.479	-200.000	-0.054	-0.324
-348.464	676.317	0.115	0.297
-347.450	-163.641	0.395	-0.018
-346.435	272.156	0.068	-0.119
-345.420	-200.000	0.002	0.265
-344.406	-65.386	0.276	-0.110
-343.391	-200.000	-0.012	0.103
-342.377	800.000	0.106	0.329
-341.362	-34.277	-0.293	0.159
-340.348	800.000	0.039	0.108
-339.333	440.312	-0.169	-0.367
-338.318	800.000	0.043	-0.121
-337.304	252.856	0.167	0.283
-336.289	-115.124	-0.179	0.034
-335.275	102.186	0.167	0.193
-334.260	10.650	0.386	0.291
-333.245	-92.948	-0.054	-0.015
-332.231	5.113	-0.044	-0.032
-331.216	800.000	-0.060	0.214
-330.202	-28.432	-0.161	-0.092
-329.187	-200.000	-0.039	-0.248
-328.172	-200.000	0.013	-0.068
-327.158	-84.932	-0.212	-0.066
-326.143	-111.067	0.295	-0.060
-325.129	-200.000	0.041	-0.365
-324.114	-200.000	0.027	-0.495
-323.099	367.925	0.095	0.190
-322.085	636.014	0.043	0.107
-321.070	-65.248	0.128	-0.051
-320.056	-98.224	0.119	0.030
-319.041	571.259	-0.184	0.443
-318.026	800.000	-0.063	0.237
-317.012	-140.565	-0.460	-0.047
-315.997	528.616	-0.117	-0.273
-314.983	59.912	-0.075	0.074
-313.968	49.536	0.166	0.155
-312.953	-9.156	0.146	-0.097
-311.939	385.284	-0.166	-0.339
-310.924	-16.140	-0.264	0.166
-309.910	120.668	0.063	-0.078
-308.895	-200.000	-0.004	-0.076
-307.880	-26.166	0.282	0.164
-306.866	47.558	-0.191	-0.176
-305.851	58.031	-0.121	-0.117
-304.837	171.572	0.054	0.077
-303.822	-190.660	0.014	-0.000
-302.807	800.000	0.097	0.310
-301.793	-69.272	0.198	0.075
-300.778	321.373	0.076	-0.143
-299.764	800.000	0.081	0.269
-298.749	800.000	0.050	0.186
-297.735	-200.000	0.017	-0.111
-296.720	-200.000	-0.029	-0.174
-295.705	69.025	-0.098	-0.099
-294.691	14.363	0.096	-0.074
-293.676	-200.000	-0.040	0.233
-292.662	21.269	0.284	-0.228
-291.647	-113.912	-0.172	0.033
-290.632	60.397	0.291	0.284
-289.618	-136.822	0.212	0.024
-288.603	-111.665	0.391	0.078
-287.589	-200.000	0.005	0.228
-286.574	-64.445	0.461	0.185
-285.559	310.728	-0.100	-0.185
-284.545	-108.898	0.052	0.011
-283.530	-200.000	-0.047	-0.347
-282.516	59.539	-0.208	-0.202
-281.501	465.818	-0.043	-0.096
-280.486	456.735	-0.114	0.251
-279.472	86.615	-0.141	-0.154
-278.457	100.199	0.165	-0.189
-277.443	-168.984	0.092	0.003
-276.428	-57.661	-0.329	-0.142
-275.413	800.000	-0.040	0.145
-274.399	-200.000	0.022	0.384
-273.384	233.744	0.071	0.115
-272.370	152.005	-0.215	-0.290
-271.355	-25.398	-0.181	0.106
-270.340	-200.000	0.012	0.131
-269.326	-117.557	0.082	-0.015
-268.311	-200.000	0.062	-0.311
-267.297	-5.946	0.104	-0.070
-266.282	800.000	0.060	0.238
-265.267	-35.749	0.054	0.029
-264.253	-0.902	-0.144	-0.101
-263.238	-93.698	-0.201	0.055
-262.224	-29.799	-0.207	-0.116
-261.209	18.075	-0.308	-0.243
-260.195	-198.213	0.164	-0.001
-259.180	-29.057	-0.164	0.093
-258.165	-7.857	0.329	-0.219
-257.151	-200.000	-0.008	-0.084
-256.136	-83.574	-0.340	0.107
-255.122	7.647	0.145	-0.107
-254.107	-16.573	0.183	0.114
-253.092	-90.320	-0.241	-0.069
-252.078	-200.000	-0.036	0.230
-251.063	48.662	-0.255	0.236
-250.049	175.358	0.155	0.221
-249.034	343.705	-0.136	0.263
-248.019	-112.706	0.201	0.039
-247.005	195.515	-0.308	0.462
-245.990	800.000	-0.045	-0.165
-244.976	88.235	0.054	0.059
-243.961	-34.138	0.096	-0.052
-242.946	-200.000	0.013	0.235
-241.932	-85.659	-0.387	0.119
-240.917	-85.270	0.249	-0.077
-239.903	-117.660	0.334	-0.059
-238.888	-71.023	0.231	-0.086
-237.873	440.421	0.172	-0.372
-236.859	-62.280	0.354	0.145
-235.844	-4.156	-0.182	-0.124
-234.830	528.260	-0.140	0.326
-233.815	524.141	0.027	-0.063
-232.800	800.000	0.046	-0.159
-231.786	40.179	-0.174	0.154
-230.771	-28.498	-0.123	-0.070
-229.757	-14.415	-0.299	-0.190
-228.742	-109.208	-0.172	0.036
-227.727	-121.084	0.236	-0.039
-226.713	-200.000	-0.093	-0.414
-225.698	-200.000	0.000	0.052
-224.684	-144.533	0.212	-0.019
-223.669	-75.234	0.278	-0.098
-222.655	800.000	-0.077	0.239
-221.640	108.060	0.101	0.118
-220.625	800.000	0.015	-0.048
-219.611	46.710	-0.080	0.073
-218.596	90.537	-0.128	-0.141
-217.582	-200.000	0.047	-0.283
-216.567	-39.809	-0.176	-0.091
-215.552	-200.000	0.023	-0.152
-214.538	315.431	-0.086	-0.160
-213.523	424.403	0.063	-0.133
-212.509	295.875	0.153	0.277
-211.494	-64.395	-0.305	-0.122
-210.479	-122.339	0.302	-0.049
-209.465	302.888	0.113	0.205
-208.450	-82.279	-0.199	-0.064
-207.436	-200.000	-0.039	0.500
-206.421	800.000	0.049	0.146
-205.406	-40.806	-0.405	0.206
-204.392	-200.000	0.008	0.067
-203.377	144.130	0.099	-0.131
-202.363	51.990	-0.172	0.161
-201.348	268.669	-0.181	0.313
-200.333	-91.704	0.282	0.079
-199.319	-112.898	-0.182	0.036
-198.304	-80.747	-0.334	-0.109
-197.290	-136.646	0.111	-0.013
-196.275	800.000	0.061	-0.217
-195.260	55.773	0.149	-0.142
-194.246	-92.080	-0.111	-0.031
-193.231	11.919	0.071	0.054
-192.217	128.602	-0.163	0.204
-191.202	7.423	-0.130	-0.096
-190.187	-6.612	-0.105	0.070
-189.173	-19.984	-0.258	0.157
-188.158	-200.000	-0.021	0.177
-187.144	48.670	0.173	-0.159
-186.129	-111.007	-0.306	0.062
-185.114	-100.570	-0.275	-0.067
-184.100	14.035	-0.322	0.247
-183.085	-78.514	-0.201	0.068
-182.071	-200.000	0.050	0.223
-181.056	-200.000	-0.002	0.011
-180.042	211.019	-0.193	0.299
-179.027	146.914	-0.069	0.091
-178.012	-127.854	-0.085	-0.012
-176.998	200.423	-0.041	0.062
-175.983	800.000	0.055	-0.167
-174.969	-92.120	-0.136	0.038
-173.954	-200.000	-0.020	0.281
-172.939	-57.230	0.198	0.086
-171.925	-19.807	-0.325	-0.198
-170.910	-200.000	-0.066	0.332
-169.896	32.943	-0.294	0.250
-168.881	-38.052	0.295	0.154
-167.866	-39.831	-0.083	0.043
-166.852	-98.354	0.238	0.060
-165.837	-70.171	-0.216	0.081
-164.823	2.513	-0.139	-0.099
-163.808	-52.296	0.095	-0.043
-162.793	46.828	0.152	0.139
-161.779	-200.000	-0.021	-0.206
-160.764	-137.585	0.069	0.008
-159.750	730.129	-0.074	0.193
-158.735	-200.000	0.015	-0.072
-157.720	421.788	-0.120	0.254
-156.706	-200.000	0.029	0.160
-155.691	15.217	-0.313	0.242
-154.677	-200.000	-0.025	0.134
-153.662	-91.872	-0.184	0.051
-152.647	8.168	0.130	-0.096
-151.633	-122.955	0.288	0.046
-150.618	-154.177	-0.233	-0.015
-149.604	-67.198	-0.094	0.037
-148.589	277.300	0.123	-0.215
-147.574	-42.460	0.272	0.136
-146.560	-111.378	0.281	0.056
-145.545	76.884	-0.190	-0.198
-144.531	117.570	-0.029	0.035
-143.516	306.734	0.127	0.232
-142.502	800.000	-0.003	0.009
-141.487	-200.000	-0.021	-0.139
-140.472	70.399	-0.030	-0.030
-139.458	101.712	-0.071	-0.081
-138.443	-200.000	-0.003	-0.037
-137.429	-125.833	0.371	-0.055
-136.414	73.045	0.126	0.129
-135.399	-65.963	0.199	-0.078
-134.385	558.859	-0.035	0.083
-133.370	-28.449	0.163	-0.092
-132.356	800.000	0.155	-0.526
-131.341	800.000	-0.044	0.147
-130.326	129.208	-0.062	0.077
-129.312	165.358	0.020	-0.027
-128.297	-49.204	-0.184	0.087
-127.283	5.720	-0.177	-0.129
-126.268	-88.743	0.103	0.030
-125.253	800.000	-0.106	0.316
-124.239	70.063	0.093	-0.094
-123.224	47.025	-0.109	0.099
-122.210	32.815	-0.132	-0.113
-121.195	-200.000	0.042	-0.272
-120.180	95.686	0.115	0.129
-119.166	-2.303	0.226	-0.156
-118.151	-133.417	0.447	0.055
-117.137	-131.874	-0.171	0.022
-116.122	416.985	-0.118	0.247
-115.107	-200.000	-0.014	0.131
-114.093	-124.871	-0.193	-0.029
-113.078	97.613	-0.070	-0.079
-112.064	-124.195	-0.125	0.019
-111.049	26.410	-0.145	0.119
-110.034	-200.000	0.034	-0.320
-109.020	-152.545	0.059	-0.004
-108.005	123.528	-0.097	-0.119
-106.991	-102.928	0.091	0.021
-105.976	-200.000	0.041	-0.190
-104.962	255.008	0.044	0.073
-103.947	504.176	-0.083	-0.188
-102.932	142.167	-0.180	0.235
-101.918	-125.360	0.120	0.018
-100.903	-29.718	0.137	-0.077
-99.889	-200.000	-0.052	0.224
-98.874	800.000	0.072	-0.299
-97.859	-200.000	-0.253	-0.000
-96.845	79.137	0.150	0.157
-95.830	800.000	-0.089	0.322
-94.816	266.995	0.096	0.165
-93.801	443.428	-0.196	0.421
-92.786	294.569	0.081	0.144
-91.772	-182.373	0.455	0.008
-90.757	100.803	-0.059	0.067
-89.743	614.407	-0.120	0.296
-88.728	-121.365	-0.134	-0.022
-87.713	495.837	-0.065	-0.146
-86.699	-85.932	0.277	-0.084
-85.684	-70.854	-0.107	-0.040
-84.670	220.282	-0.193	0.303
-83.655	477.334	-0.067	-0.150
-82.640	-36.365	0.417	0.220
-81.626	-200.000	0.051	-0.302
-80.611	800.000	0.086	-0.283
-79.597	-146.122	0.260	-0.022
-78.582	-40.550	0.156	-0.079
-77.567	508.184	-0.133	-0.304
-76.553	800.000	0.035	0.137
-75.538	50.309	-0.161	-0.149
-74.524	-200.000	-0.002	-0.089
-73.509	123.901	0.094	0.115
-72.494	131.328	-0.087	-0.109
-71.480	227.107	-0.154	0.246
-70.465	-156.180	0.284	-0.018
-69.451	-137.790	0.158	0.017
-68.436	52.971	-0.073	-0.068
-67.422	-115.242	0.349	0.065
-66.407	34.256	-0.268	0.229
-65.392	91.942	0.099	0.110
-64.378	-136.785	0.330	0.037
-63.363	-52.860	-0.054	-0.024
-62.349	-102.297	-0.222	0.052
-61.334	175.214	-0.859	-1.219
-60.319	43.301	0.574	0.513
-59.305	276.717	-0.547	-0.953
-58.290	245.044	0.802	1.322
-57.276	534.571	0.624	1.449
-56.261	-200.000	115.183	652.035
-55.246	469.036	1511.198	3323.458
-54.232	147.389	2672.897	3524.919
-53.217	103.991	2152.371	2477.988
-52.203	38.817	1600.861	1400.043
-51.188	30.648	1347.425	1129.017
-50.173	27.825	1309.403	1080.432
-49.159	55.370	1365.022	1293.247
-48.144	53.854	1379.773	1298.054
-47.130	31.061	1335.593	1121.409
-46.115	27.617	1317.601	1085.789
-45.100	27.366	1312.766	1080.269
-44.086	27.253	1310.372	1077.585
-43.071	27.253	1308.260	1075.807
-42.057	27.288	1305.921	1074.047
-41.042	27.340	1304.258	1072.945
-40.027	27.309	1302.611	1071.366
-39.013	27.312	1300.794	1069.845
-37.998	27.385	1298.874	1068.653
-36.984	27.418	1297.000	1067.263
-35.969	27.417	1295.052	1065.609
-34.954	27.511	1293.506	1064.847
-33.940	27.459	1292.912	1064.009
-32.925	27.452	1291.171	1062.491
-31.911	27.552	1289.485	1061.645
-30.896	27.561	1288.160	1060.564
-29.881	27.601	1286.977	1059.785
-28.867	27.525	1284.925	1057.607
-27.852	27.594	1283.644	1056.914
-26.838	27.629	1282.224	1055.905
-25.823	27.607	1281.023	1054.748
-24.809	27.516	1280.127	1053.442
-23.794	27.477	1278.919	1052.178
-22.779	27.507	1277.102	1050.815
-21.765	27.493	1276.050	1049.829
-20.750	27.470	1274.736	1048.572
-19.736	27.480	1273.311	1047.415
-18.721	27.343	1272.834	1046.197
-17.706	27.438	1271.347	1045.477
-16.692	27.392	1270.258	1044.276
-15.677	27.405	1268.995	1043.270
-14.663	27.338	1268.059	1042.077
-13.648	27.436	1266.461	1041.283
-12.633	27.344	1266.116	1040.433
-11.619	27.390	1264.938	1039.683
-10.604	27.347	1264.051	1038.671
-9.590	27.275	1263.233	1037.547
-8.575	27.364	1262.020	1037.015
-7.560	27.357	1261.298	1036.341
-6.546	27.390	1260.403	1035.754
-5.531	27.303	1259.464	1034.447
-4.517	27.307	1258.769	1033.856
-3.502	27.383	1257.754	1033.414
-2.487	27.455	1256.794	1032.989
-1.473	27.332	1252.960	1029.103
-0.458	25.844	1237.482	1008.031
0.556	20.969	1221.142	970.594
1.571	17.344	1227.321	955.098
2.586	16.592	1242.093	962.233
3.600	16.654	1231.753	954.485
4.615	15.144	1165.774	895.213
5.629	12.421	1098.561	829.793
6.644	10.864	1082.481	809.826
7.659	10.706	1080.380	807.397
8.673	10.699	1078.780	806.094
9.688	10.611	1077.934	804.952
10.702	10.920	1075.262	804.414
11.717	12.558	1076.790	813.594
12.731	15.687	1081.030	832.239
13.746	17.505	1083.469	843.051
14.761	17.561	1082.672	842.635
15.775	16.694	1080.813	836.833
16.790	15.546	1079.126	829.783
17.804	14.783	1077.091	824.380
18.819	14.362	1075.717	821.183
19.834	14.221	1074.618	819.573
20.848	13.909	1074.104	817.574
21.863	13.741	1073.147	815.946
22.877	13.600	1072.378	814.598
23.892	13.586	1071.540	813.821
24.907	13.617	1070.535	813.136
25.921	13.679	1069.889	812.880
26.936	13.750	1068.344	811.979
27.950	13.706	1066.938	810.627
28.965	13.839	1065.290	809.950
29.980	13.835	1063.973	808.857
30.994	13.866	1062.614	807.902
32.009	13.905	1061.826	807.421
33.023	13.838	1060.797	806.245
34.038	13.731	1059.678	804.803
35.053	13.659	1059.247	804.056
36.067	13.710	1058.414	803.601
37.082	13.743	1057.028	802.634
38.096	13.835	1056.088	802.296
39.111	13.819	1055.699	801.853
40.126	13.823	1054.265	800.709
41.140	13.589	1053.421	798.870
42.155	13.565	1052.024	797.627
43.169	13.484	1051.104	796.465
44.184	13.516	1050.302	795.942
45.199	13.547	1049.138	795.139
46.213	13.490	1048.232	794.109
47.228	13.799	1046.868	794.485
48.242	13.770	1045.827	793.486
49.257	13.666	1044.919	792.229
50.271	13.685	1044.543	791.968
51.286	13.711	1043.530	791.249
52.301	13.888	1042.104	790.943
53.315	13.808	1041.079	789.716
54.330	13.593	1040.443	788.140
55.344	13.694	1039.278	787.669
56.359	13.718	1038.069	786.794
57.374	13.627	1037.607	785.946
58.388	13.564	1036.668	784.866
59.403	13.585	1035.924	784.332
60.417	13.562	1035.101	783.532
61.432	13.573	1034.349	782.944
62.447	13.501	1033.341	781.770
63.461	13.590	1032.382	781.397
64.476	13.395	1031.742	779.926
65.490	13.447	1030.753	779.352
66.505	13.513	1029.772	778.850
67.520	13.591	1029.427	778.888
68.534	13.548	1028.664	778.039
69.549	13.637	1028.005	777.893
70.563	13.480	1027.351	776.591
71.578	13.279	1026.743	775.120
72.593	13.456	1025.516	774.956
73.607	13.407	1025.445	774.603
74.622	13.378	1024.663	773.807
75.636	13.520	1023.252	773.336
76.651	13.388	1022.935	772.414
77.666	13.510	1022.520	772.602
78.680	13.460	1021.865	771.806
79.695	13.537	1021.038	771.471
80.709	13.493	1020.570	770.841
81.724	13.600	1019.927	770.789
82.739	13.577	1018.890	769.829
83.753	13.632	1018.601	769.795
84.768	13.731	1017.657	769.474
85.782	13.673	1017.117	768.727
86.797	13.734	1015.862	767.995
87.812	13.585	1014.867	766.486
88.826	13.701	1013.427	765.867
89.841	13.747	1012.724	765.480
90.855	13.778	1011.945	764.965
91.870	13.669	1011.538	764.088
92.884	13.838	1010.162	763.760
93.899	13.847	1009.118	762.944
94.914	13.863	1008.755	762.675
95.928	13.888	1008.054	762.194
96.943	13.761	1007.097	760.821
97.957	13.811	1006.109	760.236
98.972	13.866	1005.502	759.961
99.987	13.923	1004.262	759.215
101.001	13.759	1003.498	757.825
102.016	13.829	1002.646	757.433
103.030	13.823	1001.854	756.741
104.045	13.805	1001.214	756.106
105.060	13.723	1000.084	754.814
106.074	13.600	999.068	753.422
107.089	13.590	997.835	752.380
108.103	13.674	996.846	751.949
109.118	13.616	996.262	751.177
110.133	13.542	994.945	749.781
111.147	13.503	994.118	748.918
112.162	13.699	993.838	749.525
113.176	13.692	992.574	748.475
114.191	13.637	991.976	747.707
115.206	13.722	990.693	747.059
116.220	13.601	990.395	746.222
117.235	13.744	989.345	746.010
118.249	13.664	988.457	744.913
119.264	13.587	987.706	743.935
120.279	13.663	986.816	743.541
121.293	13.636	985.881	742.652
122.308	13.587	984.977	741.684
123.322	13.657	983.690	740.963
124.337	13.629	982.396	739.798
125.352	13.560	981.753	738.940
126.366	13.614	980.502	738.173
127.381	13.662	979.645	737.676
128.395	13.730	978.624	737.145
129.410	13.620	978.371	736.402
130.424	13.624	977.255	735.515
131.439	13.679	976.187	734.888
132.454	13.683	975.888	734.616
133.468	13.700	975.027	733.978
134.483	13.682	973.828	732.930
135.497	13.774	972.820	732.512
136.512	13.766	972.117	731.882
137.527	13.688	971.541	731.040
138.541	13.751	970.782	730.683
139.556	13.775	970.049	730.170
140.570	13.853	969.276	729.867
141.585	13.862	968.949	729.597
142.600	13.981	967.238	728.768
143.614	13.994	966.939	728.534
144.629	13.944	966.224	727.711
145.643	13.920	965.250	726.809
146.658	13.857	964.322	725.770
147.673	13.779	963.427	724.694
148.687	13.797	962.240	723.811
149.702	13.747	961.742	723.158
150.716	13.848	960.424	722.540
151.731	13.840	959.732	721.921
152.746	13.685	959.833	721.258
153.760	13.981	958.733	721.657
154.775	14.019	958.139	721.311
155.789	13.862	957.585	720.146
156.804	13.916	956.976	719.859
157.819	14.030	955.969	719.533
158.833	14.045	955.402	719.108
159.848	14.061	954.756	718.625
160.862	14.048	953.776	717.767
161.877	13.936	952.804	716.492
162.892	13.945	951.636	715.590
163.906	13.952	950.719	714.864
164.921	13.858	950.070	713.911
165.935	14.014	948.891	713.630
166.950	14.003	948.463	713.197
167.964	13.896	947.708	712.108
168.979	13.950	946.569	711.420
169.994	13.966	945.595	710.692
171.008	14.092	944.599	710.419
172.023	14.113	944.169	710.125
173.037	14.155	943.289	709.581
174.052	14.202	942.675	709.255
175.067	14.090	941.643	707.940
176.081	14.048	941.424	707.530
177.096	14.073	940.542	706.912
178.110	14.051	940.280	706.559
179.125	14.028	939.994	706.185
180.140	14.148	939.363	706.156
181.154	13.999	938.973	705.170
182.169	14.137	938.141	705.069
183.183	14.212	937.739	705.019
184.198	14.233	936.839	704.370
185.213	14.355	935.797	704.041
186.227	14.319	935.639	703.707
187.242	14.352	935.081	703.366
188.256	14.365	934.332	702.796
189.271	14.309	933.337	701.747
190.286	14.248	932.592	700.869
191.300	14.051	931.893	699.454
192.315	14.049	931.596	699.162
193.329	13.935	931.174	698.299
194.344	14.136	930.311	698.435
195.359	14.252	929.632	698.352
196.373	14.179	929.354	697.773
197.388	14.397	928.947	698.322
198.402	14.524	928.105	698.160
199.417	14.521	927.550	697.668
200.432	14.577	927.060	697.472
201.446	14.542	926.586	696.906
202.461	14.528	926.282	696.556
203.475	14.663	925.160	696.214
204.490	14.582	924.431	695.267
205.504	14.598	923.418	694.509
206.519	14.437	923.052	693.502
207.534	14.474	922.236	692.985
208.548	14.518	921.598	692.624
209.563	14.518	920.842	691.995
210.577	14.624	920.231	691.913
211.592	14.596	919.823	691.429
212.607	14.659	918.864	690.909
213.621	14.583	918.137	689.986
214.636	14.629	917.744	689.821
215.650	14.796	916.538	689.542
216.665	14.737	915.793	688.678
217.680	14.673	915.545	688.166
218.694	14.826	914.767	688.150
219.709	14.766	914.064	687.316
220.723	14.720	913.375	686.547
221.738	14.737	912.709	686.055
222.753	14.750	912.121	685.604
223.767	14.868	911.560	685.609
224.782	14.923	911.016	685.365
225.796	14.994	910.025	684.847
226.811	14.892	909.727	684.147
227.826	14.838	909.209	683.472
228.840	14.829	908.414	682.779
229.855	14.859	907.800	682.378
230.869	14.902	906.639	681.623
231.884	14.914	906.034	681.156
232.899	14.841	905.598	680.471
233.913	14.769	904.714	679.455
234.928	14.715	904.243	678.820
235.942	14.754	903.430	678.308
236.957	14.780	903.201	678.182
237.972	14.702	902.778	677.485
238.986	14.768	901.682	676.873
240.001	14.910	901.184	677.013
241.015	14.932	900.332	676.401
242.030	14.925	899.815	675.925
243.045	14.956	899.387	675.670
244.059	15.136	898.461	675.640
245.074	15.039	898.039	674.872
246.088	15.019	897.385	674.240
247.103	15.064	896.344	673.581
248.117	15.084	896.484	673.707
249.132	15.306	895.702	673.953
250.147	15.263	895.222	673.359
251.161	15.346	894.297	672.935
252.176	15.377	894.030	672.801
253.190	15.331	892.823	671.648
254.205	15.477	891.933	671.503
255.220	15.428	891.515	670.933
256.234	15.544	890.935	670.899
257.249	15.388	890.247	669.699
258.263	15.437	889.498	669.273
259.278	15.351	889.240	668.677
260.293	15.477	888.458	668.530
261.307	15.605	888.056	668.678
262.322	15.561	887.216	667.811
263.336	15.445	886.731	666.926
264.351	15.445	886.195	666.464
265.366	15.484	885.232	665.837
266.380	15.730	884.617	666.290
267.395	15.555	884.019	665.089
268.409	15.595	882.790	664.262
269.424	15.622	882.238	663.893
270.439	15.555	881.708	663.173
271.453	15.577	881.032	662.693
272.468	15.565	880.416	662.122
273.482	15.607	879.743	661.725
274.497	15.605	879.289	661.316
275.512	15.576	878.728	660.720
276.526	15.640	878.341	660.625
277.541	15.668	877.942	660.374
278.555	15.821	877.073	660.265
279.570	15.633	877.107	659.493
280.585	15.688	875.828	658.687
281.599	15.793	874.681	658.178
282.614	15.765	874.096	657.572
283.628	15.884	873.345	657.412
284.643	15.837	872.835	656.784
285.657	15.699	872.687	656.077
286.672	15.679	871.967	655.402
287.687	15.880	870.845	655.281
288.701	15.847	870.245	654.644
289.716	15.811	870.664	654.761
290.730	15.927	869.411	654.211
291.745	15.945	868.377	653.447
292.760	15.995	868.389	653.592
293.774	15.977	867.958	653.141
294.789	16.038	866.693	652.367
295.803	15.856	866.450	651.419
296.818	15.994	865.092	650.876
297.833	15.969	864.805	650.504
298.847	16.037	864.675	650.613
299.862	15.899	863.911	649.447
300.876	15.995	863.409	649.381
301.891	16.099	862.752	649.231
302.906	16.159	862.223	649.008
303.920	16.113	861.782	648.442
304.935	16.263	861.071	648.425
305.949	16.255	860.196	647.678
306.964	16.082	859.986	646.798
307.979	16.223	859.383	646.827
308.993	16.300	858.918	646.715
310.008	16.358	858.226	646.359
311.022	16.153	857.619	645.062
312.037	16.219	857.135	644.891
313.052	16.132	856.649	644.139
314.066	16.213	855.645	643.636
315.081	16.048	855.375	642.746
316.095	16.082	854.781	642.372
317.110	16.090	854.149	641.870
318.125	16.246	853.597	641.994
319.139	16.137	853.634	641.548
320.154	16.219	852.943	641.284
321.168	16.277	852.295	640.959
322.183	16.227	851.922	640.432
323.197	16.398	850.959	640.302
324.212	16.331	850.904	639.948
325.227	16.294	850.166	639.199
326.241	16.232	849.543	638.438
327.256	16.364	849.083	638.536
328.270	16.339	848.211	637.727
329.285	16.143	847.832	636.649
330.300	16.286	846.979	636.489
331.314	16.293	847.117	636.561
332.329	16.335	846.124	635.919
333.343	16.483	845.744	636.133
334.358	16.443	845.371	635.645
335.373	16.544	844.994	635.685
336.387	16.473	844.719	635.156
337.402	16.520	844.519	635.127
338.416	16.702	843.644	635.094
339.431	16.566	843.550	634.459
340.446	16.511	843.095	633.855
341.460	16.644	842.918	634.163
342.475	16.683	842.416	633.874
343.489	16.757	841.785	633.619
344.504	16.776	841.367	633.321
345.519	16.911	840.744	633.301
346.533	16.812	840.474	632.671
347.548	16.733	839.593	631.658
348.562	16.643	839.113	630.906
349.577	16.598	838.647	630.332
350.592	16.679	837.998	630.090
351.606	16.655	837.286	629.408
352.621	16.842	836.319	629.320
353.635	16.908	835.918	629.208
354.650	16.776	835.292	628.190
355.665	16.727	835.029	627.756
356.679	16.802	833.945	627.162
357.694	16.886	833.385	626.999
358.708	16.942	832.674	626.613
359.723	16.967	832.030	626.167
360.738	16.890	831.977	625.787
361.752	16.840	831.256	625.004
362.767	17.064	830.585	625.271
363.781	17.028	830.101	624.720
364.796	17.099	829.598	624.547
365.810	17.155	829.348	624.508
366.825	17.164	828.843	624.106
367.840	17.170	828.147	623.548
368.854	17.137	827.755	623.079
369.869	17.038	827.644	622.576
370.883	17.098	827.257	622.450
371.898	17.240	826.738	622.523
372.913	17.286	826.182	622.219
373.927	17.203	825.604	621.423
374.942	17.132	825.195	620.801
375.956	17.265	824.463	620.681
376.971	17.434	824.286	621.111
377.986	17.280	823.985	620.267
379.000	17.444	823.091	620.137
380.015	17.362	823.167	619.841
381.029	17.477	822.267	619.528
382.044	17.418	822.152	619.172
383.059	17.320	821.291	618.112
384.073	17.398	820.578	617.802
385.088	17.422	820.047	617.436
386.102	17.386	819.157	616.582
387.117	17.536	818.725	616.745
388.132	17.477	818.250	616.118
389.146	17.267	818.043	615.148
390.161	17.475	817.271	615.264
391.175	17.433	817.033	614.880
392.190	17.515	816.525	614.739
393.205	17.399	816.131	613.969
394.219	17.308	815.953	613.453
395.234	17.497	814.910	613.296
396.248	17.195	814.756	612.037
397.263	17.359	814.288	612.220
398.278	17.498	813.802	612.303
399.292	17.353	813.683	611.637
400.307	17.479	813.035	611.549
401.321	17.418	812.140	610.603
402.336	17.439	812.087	610.584
403.350	17.453	811.644	610.247
404.365	17.410	811.405	609.858
405.380	17.613	810.494	609.848
406.394	17.720	810.057	609.846
407.409	17.717	809.725	609.531
408.423	17.706	809.148	609.004
409.438	17.769	809.000	609.064
410.453	17.883	808.844	609.300
411.467	17.728	808.191	608.200
412.482	17.748	808.216	608.238
413.496	17.856	807.783	608.242
414.511	17.819	807.178	607.600
415.526	17.854	806.552	607.200
416.540	17.993	805.921	607.165
417.555	17.937	805.460	606.566
418.569	17.983	804.907	606.259
419.584	17.972	804.496	605.857
420.599	17.929	804.228	605.449
421.613	111.812	1294.798	1477.134
422.628	96.459	1366.229	1477.233
