DTS Sentinel unit serial number:	SN413079Multiplexer serial number:	ORYXHardware model number:	OX4-SRSoftware version number:	ORYX F/W v4.00 Oryx Data Collector v3.7.2.0data status	okinstallation	princeton_trtdifferential loss correction	single-endedforward channel	channel 1reverse channel	N/Adate	2019/09/12time	20:58:35forward acquisition time	60.00reverse acquisition time	0.00gamma	496.2192k internal	0.2325k external	0.2325temperature offset calibration	1.0145default loss term (dB/km)	0.3790temperature slope calibration	1.0000multiplexer offset coefficient	1.0000multiplexer slope coefficient	1.0000fibre end	0.00T internal ref (°C)	30.87T ext. ref 1 (°C)	3.58T ext. ref 2 (°C)	25.44length (m)	temperature (°C)	Stokes	anti-Stokes-747.200	-200.000	-0.063	0.294
-746.185	800.000	-0.091	0.295
-745.171	-200.000	-0.099	0.481
-744.156	256.259	0.130	0.224
-743.142	-200.000	0.190	-0.000
-742.127	-14.547	-0.176	0.115
-741.112	126.037	0.117	-0.149
-740.098	473.814	0.123	0.281
-739.083	-119.508	0.378	-0.066
-738.069	800.000	0.089	-0.251
-737.054	-132.252	0.120	-0.016
-736.039	173.153	0.081	-0.118
-735.025	88.782	0.143	0.161
-734.010	-125.638	-0.121	-0.019
-732.996	-60.617	-0.180	0.077
-731.981	75.509	0.186	0.198
-730.966	-84.260	-0.261	0.083
-729.952	-55.126	-0.341	-0.155
-728.937	-36.996	-0.251	0.136
-727.923	-121.077	-0.148	0.025
-726.908	-200.000	-0.061	0.332
-725.894	3.340	0.050	0.037
-724.879	-109.719	0.166	0.035
-723.864	-98.361	-0.195	-0.050
-722.850	-118.146	-0.106	-0.019
-721.835	403.963	0.037	-0.080
-720.821	348.295	0.061	-0.121
-719.806	170.724	0.166	-0.239
-718.791	-14.010	-0.188	-0.122
-717.777	395.505	0.105	0.220
-716.762	154.243	-0.081	0.112
-715.748	128.957	0.037	-0.048
-714.733	30.157	-0.168	-0.144
-713.718	116.052	-0.139	-0.171
-712.704	-64.072	0.098	0.040
-711.689	-18.224	0.131	-0.082
-710.675	-200.000	0.018	-0.274
-709.660	-200.000	0.026	0.156
-708.645	-41.091	-0.218	0.114
-707.631	-78.412	0.127	-0.044
-706.616	21.578	0.338	0.277
-705.602	158.767	0.341	-0.477
-704.587	-147.235	-0.159	0.014
-703.572	-200.000	-0.039	-0.279
-702.558	42.176	0.078	-0.072
-701.543	515.147	0.078	0.183
-700.529	800.000	-0.044	0.144
-699.514	-200.000	-0.078	0.365
-698.499	-200.000	0.012	0.333
-697.485	800.000	-0.092	-0.293
-696.470	-152.673	0.254	0.018
-695.456	110.635	-0.094	0.114
-694.441	246.811	0.071	0.121
-693.426	-200.000	-0.029	0.387
-692.412	-42.968	0.175	-0.090
-691.397	-158.955	-0.151	-0.009
-690.383	-200.000	0.039	-0.381
-689.368	157.115	-0.224	-0.312
-688.354	129.961	0.129	0.166
-687.339	-104.417	-0.150	-0.035
-686.324	193.380	0.016	0.024
-685.310	-52.322	-0.255	0.119
-684.295	-6.393	0.092	-0.063
-683.281	800.000	0.056	0.175
-682.266	-200.000	-0.015	-0.125
-681.251	-50.440	0.488	-0.232
-680.237	262.365	0.115	0.200
-679.222	39.073	-0.318	-0.286
-678.208	39.074	0.190	-0.171
-677.193	-200.000	-0.025	-0.332
-676.178	57.391	0.172	0.169
-675.164	-200.000	0.027	0.247
-674.149	-200.000	0.005	0.098
-673.135	95.209	-0.307	-0.352
-672.120	-200.000	0.006	-0.124
-671.105	-21.316	-0.135	-0.083
-670.091	220.842	-0.198	-0.320
-669.076	71.636	-0.172	0.179
-668.062	147.387	-0.069	0.094
-667.047	-166.922	-0.256	-0.011
-666.032	-141.766	0.106	0.011
-665.018	12.887	0.281	-0.219
-664.003	-43.974	-0.106	-0.054
-662.989	12.817	0.148	0.115
-661.974	59.707	0.080	0.080
-660.959	-200.000	0.007	0.252
-659.945	26.792	-0.274	-0.231
-658.930	800.000	0.155	-0.449
-657.916	71.347	0.143	0.149
-656.901	-200.000	-0.018	-0.204
-655.886	-37.059	0.223	-0.120
-654.872	5.574	-0.055	-0.041
-653.857	-26.447	-0.139	0.082
-652.843	-154.711	-0.332	-0.022
-651.828	800.000	-0.069	-0.258
-650.814	-200.000	0.066	0.435
-649.799	-107.725	0.039	-0.008
-648.784	800.000	0.071	-0.248
-647.770	-36.341	-0.283	0.154
-646.755	151.169	0.239	0.326
-645.741	-153.739	-0.475	0.033
-644.726	111.304	-0.134	-0.163
-643.711	507.678	0.097	0.226
-642.697	-131.160	-0.375	-0.050
-641.682	-96.643	0.271	0.072
-640.668	-79.985	0.157	-0.053
-639.653	-56.634	0.185	-0.082
-638.638	108.916	0.207	-0.248
-637.624	-136.084	-0.171	-0.020
-636.609	-200.000	0.020	-0.250
-635.595	-63.641	-0.148	0.061
-634.580	-63.480	0.273	0.113
-633.565	-130.393	-0.210	0.029
-632.551	-61.031	-0.092	0.039
-631.536	-134.091	0.423	-0.053
-630.522	-24.169	0.296	-0.178
-629.507	-119.856	-0.305	0.053
-628.492	230.515	-0.173	0.284
-627.478	-200.000	0.018	-0.092
-626.463	-200.000	-0.001	-0.139
-625.449	-71.816	-0.189	-0.071
-624.434	800.000	0.064	-0.187
-623.419	-56.876	0.057	-0.025
-622.405	-16.537	0.146	-0.093
-621.390	800.000	-0.037	-0.153
-620.376	-6.966	-0.207	-0.141
-619.361	-4.131	-0.299	-0.208
-618.346	24.676	-0.160	-0.133
-617.332	-200.000	-0.021	-0.285
-616.317	170.087	-0.143	-0.205
-615.303	95.025	0.197	-0.225
-614.288	-22.831	-0.342	-0.207
-613.273	-200.000	0.003	-0.082
-612.259	66.575	0.054	-0.055
-611.244	-156.369	0.241	-0.015
-610.230	-80.311	-0.293	0.098
-609.215	-200.000	0.044	-0.245
-608.201	-44.390	0.206	0.103
-607.186	800.000	-0.015	0.043
-606.171	707.266	-0.117	0.309
-605.157	31.814	-0.160	-0.139
-604.142	26.890	-0.111	-0.094
-603.128	-38.335	-0.057	-0.030
-602.113	-77.002	0.323	0.113
-601.098	-46.828	-0.073	0.036
-600.084	442.940	0.023	0.050
-599.069	556.344	-0.021	-0.052
-598.055	-200.000	-0.068	0.522
-597.040	56.803	-0.311	0.304
-596.025	-112.818	0.164	0.033
-595.011	-93.303	-0.197	0.055
-593.996	800.000	-0.081	-0.307
-592.982	52.623	0.153	-0.146
-591.967	101.774	-0.060	0.070
-590.952	-39.460	-0.208	-0.109
-589.938	149.401	0.136	-0.185
-588.923	-63.817	-0.066	0.027
-587.909	659.458	-0.104	0.267
-586.894	189.940	-0.103	0.156
-585.879	-98.151	-0.235	0.061
-584.865	-200.000	0.018	-0.204
-583.850	14.025	-0.156	-0.122
-582.836	800.000	-0.044	-0.142
-581.821	-1.495	-0.099	0.070
-580.806	277.784	-0.061	0.110
-579.792	285.483	0.094	-0.170
-578.777	800.000	0.034	-0.121
-577.763	-72.445	0.253	0.094
-576.748	69.527	0.192	0.199
-575.733	421.151	0.229	0.493
-574.719	-41.451	-0.251	0.130
-573.704	472.977	0.084	-0.191
-572.690	5.791	-0.051	-0.038
-571.675	-52.436	0.189	-0.087
-570.661	-200.000	0.006	0.565
-569.646	133.492	0.053	0.068
-568.631	189.734	-0.045	0.068
-567.617	-200.000	0.008	0.143
-566.602	33.912	0.124	0.109
-565.588	-85.783	0.370	-0.115
-564.573	-140.522	0.145	0.015
-563.558	-18.156	-0.162	0.101
-562.544	160.694	-0.052	0.073
-561.529	432.026	0.049	-0.107
-560.515	-69.992	-0.464	-0.177
-559.500	-108.836	-0.091	0.020
-558.485	32.640	-0.275	0.238
-557.471	-86.589	-0.181	0.055
-556.456	-54.500	-0.228	0.103
-555.442	-94.459	-0.071	0.019
-554.427	298.243	0.170	0.314
-553.412	-200.000	-0.003	0.220
-552.398	391.969	-0.141	-0.293
-551.383	25.354	0.105	-0.087
-550.369	-87.789	-0.174	-0.052
-549.354	21.415	0.102	-0.083
-548.339	65.557	0.320	0.325
-547.325	-31.881	0.197	-0.110
-546.310	-200.000	0.036	-0.188
-545.296	-52.000	0.087	0.041
-544.281	-88.498	-0.258	0.077
-543.266	12.358	0.183	-0.141
-542.252	644.692	0.015	-0.038
-541.237	-18.055	-0.248	0.155
-540.223	-118.832	0.395	0.070
-539.208	800.000	-0.084	-0.272
-538.193	800.000	-0.051	-0.187
-537.179	-142.632	-0.185	-0.018
-536.164	35.991	-0.102	-0.090
-535.150	-200.000	-0.110	-0.653
-534.135	-185.039	0.161	-0.003
-533.121	-140.094	-0.048	-0.005
-532.106	456.260	0.088	0.195
-531.091	-185.299	0.126	-0.002
-530.077	800.000	-0.093	-0.392
-529.062	-59.117	0.158	0.068
-528.048	800.000	-0.161	-0.487
-527.033	372.066	0.131	-0.266
-526.018	173.768	-0.161	-0.233
-525.004	-21.876	-0.102	0.062
-523.989	378.653	0.062	0.128
-522.975	189.308	0.105	-0.157
-521.960	800.000	-0.052	0.160
-520.945	149.655	-0.186	0.251
-519.931	800.000	0.190	0.529
-518.916	-200.000	-0.001	0.297
-517.902	-64.508	-0.256	-0.104
-516.887	-200.000	-0.006	0.123
-515.872	154.574	-0.234	0.321
-514.858	187.172	-0.197	0.293
-513.843	-193.357	-0.118	0.001
-512.829	-98.043	-0.063	0.016
-511.814	-138.622	0.229	0.025
-510.799	-74.396	-0.218	-0.079
-509.785	401.222	-0.021	-0.044
-508.770	33.736	0.027	-0.023
-507.756	155.474	0.121	0.167
-506.741	-36.609	-0.173	-0.093
-505.726	139.370	-0.050	0.066
-504.712	-200.000	0.030	-0.140
-503.697	117.553	0.282	0.347
-502.683	158.751	-0.246	0.342
-501.668	-100.470	0.285	-0.071
-500.653	161.320	-0.144	-0.202
-499.639	-200.000	0.011	-0.307
-498.624	255.247	0.049	0.083
-497.610	-13.265	0.206	0.134
-496.595	800.000	-0.083	0.250
-495.581	-200.000	0.003	-0.159
-494.566	-89.837	-0.059	0.017
-493.551	-200.000	0.125	0.000
-492.537	-200.000	-0.017	0.418
-491.522	-107.214	-0.331	0.073
-490.508	6.847	0.138	0.103
-489.493	-200.000	0.050	0.328
-488.478	-57.526	-0.167	-0.073
-487.464	-77.795	-0.054	0.019
-486.449	298.188	0.124	0.227
-485.435	564.247	-0.066	-0.159
-484.420	-54.361	-0.172	0.078
-483.405	331.018	0.083	0.160
-482.391	800.000	-0.026	0.106
-481.376	800.000	0.027	-0.096
-480.362	13.752	0.244	0.189
-479.347	-99.770	-0.077	-0.019
-478.332	800.000	0.092	0.352
-477.318	-21.166	-0.086	0.052
-476.303	104.098	0.085	-0.100
-475.289	-20.716	0.184	-0.113
-474.274	190.994	-0.088	0.132
-473.259	-116.902	-0.380	-0.069
-472.245	-200.000	-0.027	0.153
-471.230	-132.859	-0.248	0.032
-470.216	-53.585	0.183	-0.083
-469.201	61.827	-0.051	-0.051
-468.186	800.000	-0.064	0.268
-467.172	-105.249	0.246	0.056
-466.157	437.282	0.092	0.200
-465.143	14.639	-0.175	0.137
-464.128	376.342	0.072	-0.147
-463.113	-132.927	0.523	-0.066
-462.099	-200.000	0.033	-0.246
-461.084	800.000	-0.032	-0.133
-460.070	15.674	-0.362	-0.284
-459.055	-89.574	0.260	0.076
-458.040	-200.000	-0.032	-0.348
-457.026	-48.111	-0.178	0.086
-456.011	-200.000	-0.053	0.366
-454.997	45.756	0.252	-0.233
-453.982	-25.876	0.175	-0.103
-452.968	83.974	0.075	-0.081
-451.953	-107.042	-0.131	-0.029
-450.938	800.000	-0.043	-0.182
-449.924	-200.000	-0.066	-0.345
-448.909	-18.807	-0.302	-0.188
-447.895	-118.962	-0.062	0.011
-446.880	101.327	-0.198	0.230
-445.865	411.016	-0.031	-0.066
-444.851	-144.432	0.172	0.016
-443.836	-51.287	-0.136	0.063
-442.822	52.449	-0.105	0.100
-441.807	536.517	-0.033	0.077
-440.792	-73.083	0.196	0.072
-439.778	335.768	-0.261	0.505
-438.763	-34.675	0.090	0.049
-437.749	-102.463	0.268	-0.064
-436.734	65.246	0.201	0.203
-435.719	-23.487	-0.320	0.192
-434.705	-35.100	0.096	0.052
-433.690	-44.528	0.259	-0.129
-432.676	-200.000	-0.003	-0.319
-431.661	243.076	-0.046	0.077
-430.646	-200.000	-0.032	-0.303
-429.632	108.789	0.166	0.197
-428.617	-200.000	-0.055	0.387
-427.603	480.360	-0.070	0.157
-426.588	-200.000	0.060	0.293
-425.573	161.010	-0.184	0.256
-424.559	675.750	0.107	-0.276
-423.544	-106.108	0.304	-0.068
-422.530	86.776	-0.205	-0.226
-421.515	-200.000	-0.028	-0.373
-420.500	126.898	-0.145	-0.183
-419.486	-25.572	-0.472	0.277
-418.471	109.687	0.192	-0.229
-417.457	212.679	-0.099	-0.156
-416.442	-142.157	-0.245	-0.024
-415.428	-38.216	0.204	0.108
-414.413	-46.562	-0.310	0.152
-413.398	-37.359	-0.345	0.184
-412.384	-113.996	0.109	0.021
-411.369	-124.318	-0.206	0.032
-410.355	-200.000	0.040	-0.208
-409.340	-200.000	-0.019	-0.111
-408.325	-200.000	-0.004	-0.146
-407.311	-102.556	0.300	0.071
-406.296	-83.623	-0.232	-0.074
-405.282	-57.089	-0.207	-0.091
-404.267	800.000	-0.064	0.220
-403.252	168.420	0.112	0.158
-402.238	800.000	-0.116	0.448
-401.223	58.414	-0.263	-0.257
-400.209	124.520	0.185	0.232
-399.194	-108.949	-0.216	0.046
-398.179	29.938	-0.173	-0.147
-397.165	50.143	-0.132	0.124
-396.150	-2.973	0.043	0.030
-395.136	-85.059	0.138	-0.043
-394.121	-200.000	-0.027	0.205
-393.106	800.000	-0.071	0.288
-392.092	1.455	0.184	-0.132
-391.077	800.000	0.130	-0.428
-390.063	-94.612	-0.463	-0.125
-389.048	800.000	-0.090	-0.270
-388.033	-21.295	-0.196	-0.119
-387.019	-77.205	0.358	0.124
-386.004	286.209	0.187	-0.336
-384.990	130.136	0.089	-0.113
-383.975	-192.040	0.325	-0.003
-382.960	-80.516	0.210	-0.070
-381.946	-200.000	0.033	-0.201
-380.931	800.000	-0.082	-0.268
-379.917	459.424	-0.188	-0.416
-378.902	208.599	0.017	-0.026
-377.888	-61.943	-0.201	0.084
-376.873	-65.193	-0.179	0.072
-375.858	418.802	-0.097	0.205
-374.844	-142.285	-0.139	0.014
-373.829	114.620	0.097	-0.117
-372.815	0.823	0.242	-0.172
-371.800	-200.000	0.030	0.220
-370.785	218.367	0.176	-0.279
-369.771	-200.000	0.032	-0.212
-368.756	-200.000	0.042	-0.235
-367.742	-123.027	0.243	0.039
-366.727	-200.000	0.044	0.391
-365.712	-151.222	0.311	-0.023
-364.698	197.206	0.095	-0.144
-363.683	-168.048	-0.268	-0.010
-362.669	303.465	-0.126	-0.232
-361.654	-21.991	-0.188	-0.114
-360.639	-200.000	-0.002	0.072
-359.625	800.000	-0.017	-0.064
-358.610	-121.849	0.241	-0.039
-357.596	-79.339	-0.064	-0.021
-356.581	270.999	-0.130	-0.227
-355.566	-98.579	-0.116	0.029
-354.552	5.130	-0.049	-0.036
-353.537	523.118	-0.148	0.346
-352.523	181.613	-0.155	0.226
-351.508	-58.417	0.120	-0.052
-350.493	193.137	-0.190	0.285
-349.479	37.997	0.126	-0.111
-348.464	-185.267	-0.059	-0.001
-347.450	-150.914	0.283	-0.021
-346.435	800.000	0.018	0.059
-345.420	-200.000	-0.002	0.166
-344.406	-7.262	0.201	-0.136
-343.391	-68.737	0.250	-0.096
-342.377	-23.539	0.066	0.039
-341.362	-200.000	0.081	0.500
-340.348	131.626	0.119	0.152
-339.333	27.783	0.256	0.214
-338.318	800.000	0.034	-0.110
-337.304	800.000	-0.027	-0.080
-336.289	-11.065	-0.165	0.108
-335.275	90.250	0.103	-0.115
-334.260	-142.512	0.101	-0.010
-333.245	-5.449	0.241	0.164
-332.231	-94.155	0.340	-0.093
-331.216	696.721	-0.077	-0.200
-330.202	-130.494	0.083	0.011
-329.187	-121.463	0.371	0.061
-328.172	19.244	0.119	0.095
-327.158	474.366	-0.060	-0.135
-326.143	-146.562	-0.302	0.026
-325.129	164.554	0.066	0.092
-324.114	-200.000	0.007	0.059
-323.099	800.000	0.108	0.339
-322.085	-163.335	0.100	0.005
-321.070	-1.649	-0.260	-0.182
-320.056	-123.815	0.254	0.040
-319.041	800.000	-0.016	0.044
-318.026	-21.444	0.252	-0.153
-317.012	-4.994	-0.272	0.186
-315.997	-144.590	-0.358	0.033
-314.983	-76.982	0.063	0.022
-313.968	677.283	-0.052	-0.133
-312.953	-152.520	-0.079	0.006
-311.939	478.216	0.098	0.220
-310.924	168.943	-0.153	0.216
-309.910	92.993	0.163	0.183
-308.895	163.841	-0.067	0.094
-307.880	16.889	0.389	-0.306
-306.866	-200.000	0.068	0.367
-305.851	-200.000	-0.030	-0.142
-304.837	-97.470	-0.108	0.028
-303.822	-200.000	-0.045	-0.212
-302.807	87.943	0.390	0.429
-301.793	-115.960	-0.127	0.023
-300.778	-110.062	0.127	-0.026
-299.764	-20.069	-0.311	0.190
-298.749	105.951	0.278	-0.326
-297.735	-128.077	-0.200	0.028
-296.720	-140.393	0.214	-0.022
-295.705	800.000	-0.070	0.234
-294.691	47.618	0.211	0.196
-293.676	7.354	0.100	-0.074
-292.662	-43.803	0.098	0.049
-291.647	-127.325	0.054	0.008
-290.632	792.302	0.151	0.413
-289.618	-124.905	0.165	-0.025
-288.603	-99.570	0.046	0.012
-287.589	-169.028	-0.253	-0.009
-286.574	-105.137	0.190	0.043
-285.559	-14.466	-0.165	-0.105
-284.545	2.914	0.151	-0.109
-283.530	-3.517	-0.091	0.062
-282.516	-184.124	0.171	0.003
-281.501	-72.079	-0.237	0.087
-280.486	-200.000	-0.006	-0.185
-279.472	8.977	0.057	0.043
-278.457	106.679	0.178	0.209
-277.443	632.038	0.031	0.077
-276.428	-88.184	-0.321	-0.095
-275.413	-200.000	-0.017	-0.182
-274.399	-88.546	0.148	0.044
-273.384	76.893	0.187	0.197
-272.370	-200.000	0.093	-0.000
-271.355	-54.167	0.176	0.079
-270.340	-200.000	-0.036	-0.275
-269.326	209.551	0.052	-0.080
-268.311	470.783	-0.092	0.205
-267.297	-117.855	-0.343	-0.061
-266.282	403.738	0.103	-0.215
-265.267	800.000	-0.054	0.156
-264.253	-200.000	-0.027	0.483
-263.238	800.000	-0.133	-0.412
-262.224	-1.872	0.132	-0.092
-261.209	-200.000	-0.009	-0.219
-260.195	-121.150	0.273	-0.045
-259.180	624.852	-0.096	0.240
-258.165	-69.310	0.093	-0.035
-257.151	800.000	-0.061	-0.173
-256.136	568.098	-0.172	-0.412
-255.122	-200.000	-0.001	0.404
-254.107	800.000	-0.043	-0.171
-253.092	-2.726	-0.287	0.198
-252.078	103.070	0.215	-0.250
-251.063	403.012	-0.115	-0.239
-250.049	800.000	0.096	0.358
-249.034	-200.000	0.017	0.251
-248.019	70.675	-0.234	0.239
-247.005	-91.635	0.363	-0.102
-245.990	-60.129	0.353	0.149
-244.976	-200.000	-0.008	0.117
-243.961	800.000	-0.056	-0.157
-242.946	67.941	0.040	0.041
-241.932	-46.704	0.024	0.012
-240.917	388.773	-0.064	0.131
-239.903	186.345	0.158	-0.232
-238.888	274.436	0.058	0.102
-237.873	-200.000	0.005	-0.196
-236.859	354.688	-0.030	-0.058
-235.844	92.057	-0.236	-0.263
-234.830	-200.000	0.065	-0.283
-233.815	-76.695	-0.123	-0.043
-232.800	-54.250	-0.248	-0.111
-231.786	-136.900	-0.145	-0.016
-230.771	800.000	-0.038	0.113
-229.757	69.512	0.185	0.189
-228.742	800.000	-0.109	0.304
-227.727	47.658	0.069	0.064
-226.713	-160.926	0.157	-0.008
-225.698	553.189	0.141	-0.334
-224.684	-122.474	0.126	-0.020
-223.669	-200.000	-0.038	-0.288
-222.655	629.999	-0.046	0.114
-221.640	-38.000	-0.139	-0.073
-220.625	-94.929	0.274	0.073
-219.611	57.044	-0.131	0.127
-218.596	-108.107	0.158	0.034
-217.582	-156.856	0.146	0.009
-216.567	171.728	0.142	-0.201
-215.552	-6.814	-0.163	0.109
-214.538	7.391	-0.168	-0.124
-213.523	42.846	-0.082	0.074
-212.509	-20.353	0.044	-0.027
-211.494	-2.800	0.074	-0.051
-210.479	-45.009	-0.249	-0.122
-209.465	388.174	-0.060	0.122
-208.450	132.250	-0.141	0.180
-207.436	-72.710	0.196	-0.071
-206.421	-200.000	-0.001	-0.192
-205.406	-200.000	-0.007	0.066
-204.392	283.530	0.110	-0.195
-203.377	800.000	-0.059	0.190
-202.363	800.000	0.071	-0.281
-201.348	-200.000	0.019	-0.394
-200.333	22.144	0.245	-0.198
-199.319	-200.000	-0.010	-0.069
-198.304	-57.999	0.412	-0.178
-197.290	-75.602	0.332	0.116
-196.275	-200.000	0.008	-0.113
-195.260	-7.770	-0.108	0.072
-194.246	-167.283	0.152	0.006
-193.231	-18.435	-0.144	-0.089
-192.217	800.000	0.050	0.195
-191.202	-200.000	-0.016	0.229
-190.187	-77.412	0.207	0.071
-189.173	800.000	-0.117	-0.485
-188.158	6.909	-0.074	-0.054
-187.144	-200.000	-0.029	0.192
-186.129	-3.301	-0.142	-0.098
-185.114	-200.000	0.005	0.369
-184.100	-29.351	0.164	-0.093
-183.085	-200.000	0.000	0.001
-182.071	-195.916	0.081	0.001
-181.056	-200.000	0.014	-0.288
-180.042	-124.611	-0.213	-0.033
-179.027	301.000	-0.045	0.082
-178.012	363.913	0.182	-0.362
-176.998	800.000	-0.100	-0.384
-175.983	-82.521	-0.173	0.055
-174.969	75.301	-0.065	-0.068
-173.954	69.132	-0.157	0.160
-172.939	800.000	0.046	0.145
-171.925	81.873	-0.115	0.123
-170.910	-200.000	0.051	0.227
-169.896	272.774	0.145	-0.253
-168.881	-85.214	-0.242	-0.074
-167.866	800.000	0.105	-0.325
-166.852	781.182	-0.049	0.132
-165.837	-64.819	0.334	0.134
-164.823	-118.053	-0.301	-0.053
-163.808	-200.000	0.309	-0.001
-162.793	240.268	0.070	-0.115
-161.779	800.000	-0.057	0.190
-160.764	-90.626	0.155	-0.044
-159.750	-200.000	-0.030	0.254
-158.735	527.705	-0.132	-0.306
-157.720	48.308	-0.162	-0.150
-156.706	49.028	0.091	0.084
-155.691	254.267	0.090	0.151
-154.677	-86.435	0.073	0.022
-153.662	-23.306	0.148	0.088
-152.647	800.000	-0.056	-0.188
-151.633	-39.220	-0.099	-0.051
-150.618	-35.000	0.320	0.172
-149.604	-96.116	0.212	-0.056
-148.589	-127.587	-0.443	-0.063
-147.574	55.477	-0.121	-0.115
-146.560	23.806	0.015	-0.012
-145.545	-200.000	0.008	-0.039
-144.531	-24.329	-0.185	-0.109
-143.516	46.403	-0.107	-0.098
-142.502	-125.798	-0.146	-0.022
-141.487	-14.299	-0.093	-0.059
-140.472	-120.628	-0.094	0.016
-139.458	-200.000	0.003	-0.022
-138.443	-100.063	-0.200	-0.049
-137.429	218.819	-0.104	0.163
-136.414	-125.112	0.315	0.048
-135.399	37.165	-0.115	-0.101
-134.385	46.554	-0.191	-0.174
-133.370	24.216	-0.237	0.193
-132.356	99.021	0.055	-0.062
-131.341	-200.000	0.003	-0.237
-130.326	-200.000	-0.010	-0.077
-129.312	800.000	-0.022	0.077
-128.297	-200.000	-0.015	0.118
-127.283	243.408	-0.169	-0.279
-126.268	81.146	0.114	0.121
-125.253	800.000	-0.097	0.321
-124.239	37.479	-0.053	0.046
-123.224	755.010	0.130	-0.347
-122.210	-20.874	-0.386	0.233
-121.195	800.000	0.036	0.097
-120.180	-159.240	0.265	0.015
-119.166	-56.022	-0.150	0.066
-118.151	96.373	-0.096	0.108
-117.137	-92.882	0.090	0.025
-116.122	-200.000	-0.021	0.093
-115.107	147.316	0.060	0.080
-114.093	577.005	0.031	0.075
-113.078	-200.000	-0.070	-0.400
-112.064	81.427	-0.111	-0.118
-111.049	-18.621	0.051	-0.031
-110.034	-200.000	-0.006	-0.105
-109.020	56.218	0.208	0.199
-108.005	121.151	0.146	-0.179
-106.991	800.000	0.050	0.197
-105.976	-200.000	-0.008	0.378
-104.962	-200.000	0.028	0.208
-103.947	-38.483	0.160	0.083
-102.932	-13.795	-0.187	-0.119
-101.918	-200.000	0.005	-0.160
-100.903	-100.548	0.413	0.101
-99.889	-67.142	0.414	0.160
-98.874	-8.252	0.166	-0.110
-97.859	-90.174	0.173	0.049
-96.845	552.874	-0.142	0.336
-95.830	-200.000	0.000	-0.189
-94.816	-200.000	0.035	-0.166
-93.801	232.802	-0.079	0.128
-92.786	686.511	-0.086	0.222
-91.772	14.506	-0.242	0.186
-90.757	800.000	-0.047	0.147
-89.743	-33.622	0.099	-0.054
-88.728	-5.268	-0.030	0.020
-87.713	-82.911	0.384	-0.122
-86.699	800.000	-0.101	-0.368
-85.684	606.773	0.092	-0.226
-84.670	30.380	0.088	0.074
-83.655	382.565	-0.020	0.041
-82.640	-106.241	-0.288	0.063
-81.626	-150.657	0.055	-0.004
-80.611	800.000	-0.059	0.180
-79.597	157.610	0.248	0.338
-78.582	-64.859	-0.141	0.056
-77.567	10.190	-0.088	-0.066
-76.553	-108.625	-0.112	0.024
-75.538	62.698	0.200	0.197
-74.524	800.000	-0.057	0.239
-73.509	-139.392	0.258	-0.027
-72.494	166.837	0.094	-0.131
-71.480	-118.384	0.325	-0.057
-70.465	-200.000	0.029	0.166
-69.451	134.789	-0.070	-0.090
-68.436	-139.560	-0.042	0.004
-67.422	52.442	0.139	-0.130
-66.407	79.647	-0.120	0.127
-65.392	56.217	-0.257	-0.245
-64.378	116.460	-0.067	0.081
-63.363	-173.206	-0.336	0.010
-62.349	-20.254	0.236	0.143
-61.334	46.220	-1.080	-0.983
-60.319	75.417	0.425	0.440
-59.305	800.000	-0.278	-0.820
-58.290	136.493	0.529	0.678
-57.276	205.155	0.827	1.261
-56.261	-200.000	101.829	592.282
-55.246	574.003	1416.069	3392.752
-54.232	191.644	2596.924	3842.726
-53.217	117.662	2132.475	2577.953
-52.203	42.748	1585.963	1418.726
-51.188	34.328	1322.688	1133.348
-50.173	31.149	1281.222	1079.423
-49.159	54.541	1331.962	1260.655
-48.144	56.494	1348.947	1288.182
-47.130	34.654	1305.198	1120.096
-46.115	31.132	1287.772	1084.666
-45.100	30.869	1282.490	1078.653
-44.086	30.809	1280.693	1076.755
-43.071	30.793	1278.120	1074.457
-42.057	30.609	1276.314	1071.835
-41.042	30.756	1274.466	1071.083
-40.027	30.839	1272.959	1070.251
-39.013	30.811	1270.978	1068.381
-37.998	30.767	1268.942	1066.381
-36.984	30.873	1267.704	1065.900
-35.969	31.044	1265.743	1065.186
-34.954	30.918	1264.352	1063.256
-33.940	30.958	1263.010	1062.314
-32.925	30.951	1261.690	1061.123
-31.911	31.006	1260.008	1059.977
-30.896	31.025	1259.058	1059.245
-29.881	31.006	1257.861	1058.087
-28.867	30.972	1256.195	1056.453
-27.852	30.891	1254.697	1054.689
-26.838	30.910	1253.472	1053.729
-25.823	31.053	1251.807	1053.092
-24.809	31.024	1250.520	1051.806
-23.794	30.976	1249.483	1050.623
-22.779	30.954	1248.058	1049.259
-21.765	30.999	1246.968	1048.553
-20.750	30.996	1245.401	1047.177
-19.736	30.894	1244.339	1045.668
-18.721	30.900	1243.124	1044.639
-17.706	30.840	1242.257	1043.533
-16.692	30.778	1240.888	1041.994
-15.677	30.814	1239.706	1041.161
-14.663	30.776	1238.685	1040.050
-13.648	30.763	1237.405	1038.860
-12.633	30.821	1236.338	1038.249
-11.619	30.714	1236.270	1037.556
-10.604	30.729	1235.203	1036.703
-9.590	30.785	1234.121	1036.061
-8.575	30.681	1233.088	1034.579
-7.560	30.711	1232.464	1034.181
-6.546	30.807	1231.230	1033.638
-5.531	30.831	1229.805	1032.532
-4.517	30.835	1229.405	1032.177
-3.502	30.841	1228.550	1031.450
-2.487	30.838	1227.606	1030.602
-1.473	30.767	1223.519	1026.736
-0.458	29.139	1208.690	1005.372
0.556	27.036	1191.220	966.961
1.571	23.196	1196.230	950.366
2.586	22.230	1210.798	956.604
3.600	21.637	1200.018	944.799
4.615	16.420	1129.373	862.545
5.629	7.855	1055.775	765.233
6.644	3.990	1036.529	732.941
7.659	3.671	1033.909	729.518
8.673	3.279	1033.100	727.033
9.688	3.371	1031.920	726.572
10.702	3.943	1030.128	727.935
11.717	9.284	1037.753	758.518
12.731	18.256	1050.102	810.135
13.746	23.190	1055.834	837.908
14.761	24.075	1056.228	842.333
15.775	23.521	1055.308	838.907
16.790	22.888	1053.828	834.667
17.804	22.612	1052.841	832.508
18.819	22.352	1051.895	830.456
19.834	22.462	1051.686	830.736
20.848	22.417	1051.670	830.440
21.863	22.407	1050.571	829.449
22.877	22.152	1049.987	827.714
23.892	22.185	1048.762	826.832
24.907	22.044	1048.363	825.781
25.921	22.046	1047.236	824.830
26.936	22.086	1045.189	823.334
27.950	22.089	1043.919	822.272
28.965	22.099	1042.825	821.385
29.980	22.190	1041.674	820.830
30.994	22.372	1040.494	820.680
32.009	22.476	1039.613	820.393
33.023	22.176	1039.258	818.646
34.038	22.198	1038.270	817.898
35.053	22.057	1037.505	816.565
36.067	21.997	1036.174	815.166
37.082	22.004	1035.385	814.507
38.096	22.233	1034.896	815.111
39.111	22.185	1034.394	814.422
40.126	22.098	1032.733	812.639
41.140	21.814	1030.816	809.748
42.155	21.398	1029.901	807.039
43.169	21.405	1028.731	806.083
44.184	21.423	1028.086	805.588
45.199	21.408	1026.992	804.590
46.213	21.705	1026.232	805.291
47.228	22.102	1026.103	806.943
48.242	22.116	1025.627	806.559
49.257	22.197	1024.378	805.879
50.271	22.343	1023.471	805.763
51.286	22.436	1022.966	805.718
52.301	22.396	1022.058	804.748
53.315	22.213	1021.121	803.102
54.330	21.944	1020.196	801.078
55.344	21.843	1019.217	799.777
56.359	21.967	1018.150	799.432
57.374	21.793	1017.519	798.074
58.388	21.512	1016.685	796.074
59.403	21.386	1015.775	794.719
60.417	21.528	1014.764	794.503
61.432	21.571	1014.442	794.376
62.447	21.474	1013.137	792.842
63.461	21.322	1012.600	791.663
64.476	21.359	1011.307	790.751
65.490	21.320	1010.581	789.936
66.505	21.252	1010.408	789.421
67.520	21.395	1009.633	789.392
68.534	21.268	1008.484	787.851
69.549	21.042	1007.966	786.360
70.563	20.882	1007.439	785.159
71.578	20.813	1006.129	783.755
72.593	20.671	1005.200	782.326
73.607	20.865	1004.441	782.539
74.622	20.927	1004.370	782.689
75.636	20.894	1003.533	781.821
76.651	21.026	1002.789	781.764
77.666	21.063	1002.558	781.682
78.680	20.933	1001.591	780.275
79.695	21.019	1001.268	780.341
80.709	21.166	1000.655	780.450
81.724	21.302	1000.447	780.827
82.739	21.517	999.718	781.147
83.753	22.025	999.586	783.242
84.768	22.510	998.647	784.599
85.782	22.744	998.070	785.115
86.797	22.553	997.289	783.585
87.812	22.318	996.100	781.536
88.826	22.412	995.256	781.222
89.841	22.482	994.343	780.745
90.855	22.523	993.691	780.349
91.870	22.538	993.077	779.864
92.884	22.516	991.611	778.547
93.899	22.382	990.964	777.376
94.914	22.437	990.269	777.004
95.928	22.381	989.327	775.952
96.943	22.278	988.116	774.479
97.957	22.191	987.611	773.633
98.972	22.306	986.660	773.323
99.987	22.408	985.895	773.103
101.001	22.110	984.948	770.986
102.016	22.168	983.798	770.272
103.030	22.266	983.522	770.417
104.045	22.280	982.618	769.699
105.060	22.196	981.851	768.663
106.074	21.921	980.754	766.538
107.089	21.808	979.096	764.681
108.103	21.619	978.090	763.005
109.118	21.244	977.162	760.578
110.133	21.051	975.599	758.456
111.147	21.098	974.846	758.010
112.162	21.212	974.298	758.010
113.176	21.367	973.849	758.267
114.191	21.439	973.404	758.164
115.206	21.499	972.672	757.789
116.220	21.361	971.528	756.231
117.235	21.194	970.928	754.975
118.249	21.205	969.653	753.967
119.264	21.121	968.723	752.814
120.279	20.975	968.024	751.574
121.293	20.982	966.565	750.405
122.308	20.954	966.040	749.809
123.322	20.661	964.901	747.600
124.337	20.688	963.961	746.923
125.352	20.617	963.090	745.878
126.366	20.771	961.834	745.498
127.381	21.060	961.105	746.104
128.395	21.154	960.584	746.036
129.410	21.086	959.883	745.136
130.424	21.335	959.356	745.722
131.439	21.580	958.587	746.103
132.454	21.530	958.009	745.374
133.468	21.538	956.915	744.490
134.483	21.616	956.143	744.154
135.497	21.586	955.580	743.524
136.512	21.583	954.779	742.820
137.527	21.484	954.259	741.929
138.541	21.680	953.176	741.856
139.556	21.716	952.481	741.400
140.570	21.982	952.046	742.120
141.585	22.355	951.211	742.980
142.600	22.285	950.884	742.363
143.614	22.369	950.252	742.156
144.629	22.491	949.567	742.072
145.643	22.371	948.425	740.609
146.658	22.120	947.177	738.513
147.673	21.907	945.491	736.238
148.687	21.847	944.611	735.236
149.702	21.643	943.435	733.405
150.716	21.514	943.325	732.713
151.731	21.755	942.011	732.636
152.746	21.840	941.657	732.651
153.760	22.031	940.316	732.338
154.775	22.051	940.457	732.467
155.789	22.048	940.063	732.083
156.804	21.937	939.525	731.138
157.819	22.268	938.310	731.504
158.833	22.375	938.067	731.695
159.848	22.521	937.439	731.744
160.862	22.269	936.004	729.515
161.877	21.792	934.802	726.538
162.892	21.558	933.339	724.370
163.906	21.522	932.435	723.454
164.921	21.530	931.490	722.691
165.935	21.566	931.268	722.602
166.950	21.786	930.183	722.604
167.964	21.792	929.490	722.026
168.979	21.617	928.099	720.163
169.994	21.778	927.133	720.009
171.008	21.896	926.901	720.249
172.023	22.124	926.454	720.776
173.037	22.487	925.751	721.651
174.052	22.177	924.797	719.573
175.067	21.664	924.148	716.906
176.081	21.351	923.247	714.864
177.096	21.358	922.696	714.402
178.110	21.446	922.076	714.219
179.125	21.450	921.362	713.619
180.140	21.596	921.343	714.137
181.154	21.778	921.319	714.800
182.169	22.134	920.944	715.894
183.183	22.118	920.348	715.304
184.198	22.133	919.029	714.275
185.213	22.008	918.816	713.540
186.227	22.111	918.190	713.409
187.242	22.173	917.886	713.361
188.256	22.448	917.080	713.786
189.271	22.474	916.473	713.354
190.286	21.925	915.229	710.101
191.300	21.334	914.134	706.801
192.315	21.162	913.117	705.256
193.329	21.215	912.906	705.248
194.344	21.527	912.322	705.989
195.359	21.796	911.866	706.658
196.373	21.977	911.704	707.203
197.388	22.170	911.690	707.907
198.402	22.503	910.976	708.629
199.417	22.594	911.079	709.011
200.432	22.744	910.192	708.863
201.446	22.743	910.030	708.667
202.461	22.848	909.239	708.409
203.475	22.631	908.281	706.731
204.490	22.067	907.118	703.505
205.504	22.127	906.623	703.302
206.519	22.244	905.354	702.722
207.534	22.033	905.259	701.741
208.548	22.076	904.703	701.419
209.563	22.147	903.725	700.883
210.577	22.252	903.438	701.017
211.592	22.604	902.845	701.897
212.607	22.645	902.647	701.846
213.621	22.622	901.631	700.901
214.636	22.544	901.070	700.093
215.650	22.431	900.141	698.859
216.665	22.545	899.639	698.861
217.680	22.699	899.261	699.117
218.694	22.698	898.103	698.149
219.709	22.496	897.571	696.874
220.723	22.509	896.897	696.344
221.738	22.317	896.473	695.192
222.753	22.400	895.368	694.601
223.767	22.521	895.331	694.988
224.782	22.662	895.010	695.235
225.796	22.798	894.538	695.342
226.811	22.566	893.193	693.322
227.826	22.161	892.470	691.108
228.840	22.250	891.488	690.634
229.855	22.262	891.311	690.485
230.869	22.138	890.261	689.125
231.884	22.119	889.692	688.547
232.899	22.066	888.887	687.656
233.913	21.919	888.511	686.731
234.928	21.663	887.596	684.960
235.942	21.630	886.994	684.307
236.957	21.744	886.670	684.440
237.972	21.711	885.943	683.689
238.986	21.749	885.307	683.288
240.001	21.769	884.472	682.660
241.015	21.861	884.264	682.797
242.030	21.968	884.110	683.035
243.045	22.147	883.591	683.270
244.059	22.199	882.361	682.460
245.074	22.352	881.978	682.697
246.088	22.429	881.971	682.929
247.103	22.615	881.399	683.147
248.117	22.869	881.678	684.286
249.132	23.287	881.596	685.781
250.147	23.644	881.094	686.714
251.161	23.630	880.683	686.276
252.176	23.561	880.143	685.527
253.190	23.816	879.216	685.730
254.205	23.769	878.893	685.237
255.220	23.595	878.018	683.824
256.234	23.616	876.904	682.976
257.249	23.402	876.439	681.731
258.263	23.384	875.525	680.890
259.278	23.326	875.048	680.237
260.293	23.480	874.722	680.515
261.307	23.688	874.126	680.786
262.322	23.572	873.864	680.079
263.336	23.522	873.161	679.278
264.351	23.479	872.042	678.183
265.366	23.559	871.485	677.998
266.380	23.664	871.233	678.143
267.395	23.452	870.437	676.654
268.409	23.334	869.151	675.144
269.424	23.408	868.637	674.969
270.439	23.301	867.949	673.964
271.453	23.238	866.916	672.866
272.468	23.092	866.792	672.154
273.482	23.068	866.253	671.584
274.497	23.168	865.434	671.272
275.512	23.090	865.099	670.654
276.526	23.215	864.873	670.896
277.541	23.416	864.089	670.988
278.555	23.584	863.984	671.481
279.570	23.845	863.640	672.144
280.585	23.785	862.439	670.923
281.599	23.511	861.511	669.108
282.614	23.111	860.902	667.067
283.628	23.104	859.940	666.236
284.643	22.981	859.851	665.644
285.657	22.997	859.258	665.188
286.672	23.075	858.667	664.965
287.687	23.449	857.973	665.772
288.701	23.347	857.162	664.701
289.716	23.283	857.196	664.427
290.730	23.347	856.306	663.920
291.745	23.408	855.749	663.658
292.760	23.465	855.412	663.551
293.774	23.872	855.240	664.882
294.789	23.672	854.539	663.529
295.803	23.383	853.835	661.845
296.818	23.334	852.643	660.680
297.833	23.172	852.386	659.821
298.847	23.178	851.569	659.149
299.862	23.526	850.866	659.842
300.876	23.589	850.622	659.829
301.891	23.652	850.620	660.005
302.906	23.728	850.320	659.996
303.920	23.996	850.031	660.708
304.935	24.248	849.005	660.786
305.949	24.055	848.290	659.458
306.964	23.649	847.466	657.253
307.979	23.584	846.938	656.545
308.993	23.759	846.701	656.952
310.008	23.894	846.118	656.940
311.022	23.706	845.500	655.708
312.037	23.485	844.699	654.214
313.052	23.130	844.111	652.393
314.066	22.874	843.275	650.745
315.081	23.132	842.302	650.884
316.095	23.085	842.243	650.611
317.110	23.112	841.250	649.883
318.125	22.976	840.913	649.068
319.139	22.825	840.155	647.870
320.154	22.922	839.826	647.914
321.168	22.964	839.515	647.771
322.183	23.045	838.929	647.560
323.197	23.154	838.680	647.707
324.212	23.181	838.085	647.289
325.227	23.067	837.307	646.214
326.241	23.019	836.521	645.377
327.256	22.826	836.314	644.456
328.270	22.951	835.327	644.092
329.285	22.989	834.687	643.681
330.300	22.735	834.329	642.425
331.314	23.111	833.809	643.332
332.329	23.430	833.579	644.261
333.343	23.505	833.468	644.389
334.358	23.505	833.172	644.103
335.373	23.631	832.541	644.015
336.387	23.628	832.374	643.820
337.402	23.768	832.213	644.143
338.416	23.949	832.259	644.779
339.431	24.253	831.604	645.316
340.446	24.340	831.658	645.617
341.460	24.370	831.196	645.307
342.475	24.356	830.834	644.919
343.489	24.386	830.744	644.901
344.504	24.591	830.139	645.114
345.519	24.607	830.205	645.168
346.533	24.486	829.020	643.753
347.548	24.142	828.051	641.704
348.562	23.865	827.393	640.141
349.577	23.745	826.729	639.137
350.592	23.500	826.178	637.773
351.606	23.382	825.386	636.684
352.621	23.526	824.271	636.282
353.635	23.694	823.724	636.407
354.650	23.641	822.955	635.566
355.665	23.504	822.994	635.048
356.679	23.723	822.768	635.604
357.694	23.888	822.002	635.545
358.708	23.738	820.947	634.136
359.723	23.833	820.042	633.721
360.738	23.875	819.574	633.452
361.752	23.866	819.316	633.164
362.767	24.263	819.167	634.409
363.781	24.470	818.695	634.720
364.796	24.583	818.092	634.599
365.810	24.600	818.563	634.970
366.825	24.750	817.705	634.781
367.840	24.572	817.154	633.664
368.854	24.427	816.325	632.451
369.869	24.195	816.146	631.434
370.883	24.393	815.376	631.484
371.898	24.541	815.411	631.980
372.913	24.639	814.858	631.842
373.927	24.279	814.464	630.206
374.942	24.349	814.053	630.081
375.956	24.574	813.583	630.455
376.971	24.729	813.279	630.713
377.986	24.755	813.163	630.656
379.000	24.762	812.450	630.073
380.015	24.713	811.889	629.408
381.029	24.659	811.364	628.757
382.044	24.817	810.623	628.681
383.059	24.989	809.888	628.662
384.073	24.631	809.544	627.081
385.088	24.452	808.243	625.389
386.102	24.176	807.312	623.651
387.117	24.139	807.094	623.296
388.132	24.201	806.349	622.881
389.146	24.060	806.295	622.292
390.161	24.485	806.100	623.571
391.175	24.789	805.095	623.799
392.190	24.553	804.681	622.601
393.205	24.149	804.354	620.885
394.219	23.935	803.428	619.369
395.234	23.822	802.990	618.586
396.248	23.895	802.660	618.530
397.263	23.922	802.007	618.064
398.278	23.692	801.954	617.170
399.292	23.696	801.136	616.500
400.307	23.650	800.727	615.970
401.321	23.613	800.750	615.806
402.336	23.836	800.397	616.254
403.350	24.269	800.079	617.453
404.365	24.623	800.059	618.609
405.380	24.850	799.349	618.791
406.394	25.049	799.022	619.173
407.409	25.086	798.628	618.940
408.423	25.164	798.497	619.051
409.438	25.141	798.520	618.937
410.453	25.245	797.384	618.358
411.467	25.298	796.923	618.128
412.482	25.269	796.639	617.752
413.496	25.367	796.329	617.794
414.511	25.184	796.227	617.035
415.526	25.132	795.350	616.118
416.540	25.026	794.840	615.308
417.555	25.093	794.261	615.034
418.569	24.941	794.220	614.426
419.584	25.182	793.324	614.505
420.599	25.109	792.942	613.903
421.613	163.331	1369.640	1795.715
422.628	141.665	1453.649	1795.827
