DTS Sentinel unit serial number:	SN413079Multiplexer serial number:	ORYXHardware model number:	OX4-SRSoftware version number:	ORYX F/W v4.00 Oryx Data Collector v3.7.2.0data status	okinstallation	princeton_trtdifferential loss correction	single-endedforward channel	channel 1reverse channel	N/Adate	2019/09/19time	05:34:35forward acquisition time	60.00reverse acquisition time	0.00gamma	496.2192k internal	0.2343k external	0.2343temperature offset calibration	1.0025default loss term (dB/km)	0.3790temperature slope calibration	1.0000multiplexer offset coefficient	1.0000multiplexer slope coefficient	1.0000fibre end	0.00T internal ref (°C)	19.33T ext. ref 1 (°C)	0.60T ext. ref 2 (°C)	12.95length (m)	temperature (°C)	Stokes	anti-Stokes-747.200	800.000	-0.057	0.163
-746.185	32.217	0.287	0.248
-745.171	93.433	0.105	0.119
-744.156	-200.000	-0.040	0.208
-743.142	707.781	0.147	0.388
-742.127	95.856	0.255	0.292
-741.112	-200.000	0.018	-0.145
-740.098	325.116	-0.195	0.374
-739.083	-114.747	0.255	0.049
-738.069	386.065	-0.219	0.453
-737.054	-200.000	0.034	0.337
-736.039	101.253	-0.352	-0.410
-735.025	66.555	-0.105	0.107
-734.010	-200.000	-0.000	-0.031
-732.996	-6.699	0.320	-0.218
-731.981	38.004	-0.079	0.070
-730.966	652.452	-0.042	0.107
-729.952	-111.571	0.107	-0.022
-728.937	207.532	-0.190	-0.297
-727.923	-137.006	-0.251	-0.029
-726.908	800.000	-0.084	0.273
-725.894	-95.911	0.205	0.055
-724.879	-130.960	0.167	0.022
-723.864	-200.000	-0.042	0.212
-722.850	27.039	-0.247	0.208
-721.835	-8.816	0.271	-0.182
-720.821	103.044	-0.257	0.301
-719.806	-176.490	-0.015	-0.000
-718.791	119.371	0.094	0.116
-717.777	800.000	0.021	-0.089
-716.762	-27.171	0.040	-0.024
-715.748	-9.595	-0.140	0.093
-714.733	-200.000	0.106	0.517
-713.718	605.546	0.124	-0.308
-712.704	492.833	0.045	-0.103
-711.689	19.421	-0.218	0.175
-710.675	-96.969	0.322	-0.085
-709.660	-200.000	0.025	0.154
-708.645	-200.000	-0.010	-0.143
-707.631	20.599	0.175	-0.141
-706.616	-200.000	-0.346	0.001
-705.602	-200.000	-0.008	-0.070
-704.587	294.756	-0.191	-0.350
-703.572	150.215	0.156	-0.211
-702.558	436.755	-0.083	-0.180
-701.543	54.293	0.352	0.338
-700.529	-200.000	-0.051	-0.262
-699.514	-191.851	0.283	-0.003
-698.499	-167.476	0.282	-0.011
-697.485	800.000	-0.038	0.154
-696.470	-200.000	0.030	0.406
-695.456	800.000	-0.048	0.184
-694.441	-200.000	-0.028	0.150
-693.426	81.500	-0.102	0.111
-692.412	49.089	-0.179	-0.168
-691.397	-200.000	-0.019	-0.284
-690.383	-64.122	0.219	0.089
-689.368	-49.290	-0.256	0.122
-688.354	-200.000	-0.000	0.186
-687.339	128.396	-0.079	-0.101
-686.324	-126.893	-0.151	-0.022
-685.310	-76.433	-0.138	0.049
-684.295	641.743	0.003	0.007
-683.281	-108.107	-0.528	0.114
-682.266	800.000	-0.028	0.087
-681.251	-118.539	0.019	-0.003
-680.237	-200.000	-0.006	-0.127
-679.222	84.514	-0.037	-0.040
-678.208	-64.889	0.246	0.099
-677.193	-200.000	-0.021	-0.129
-676.178	800.000	-0.075	0.208
-675.164	-94.036	0.096	0.026
-674.149	-88.076	-0.154	-0.046
-673.135	-200.000	-0.007	-0.061
-672.120	-156.289	-0.223	-0.014
-671.105	-200.000	0.068	0.310
-670.091	-161.884	-0.361	-0.018
-669.076	-13.916	0.201	-0.130
-668.062	86.664	-0.083	-0.091
-667.047	81.681	-0.015	-0.016
-666.032	800.000	-0.030	-0.117
-665.018	169.947	-0.140	0.200
-664.003	-68.001	-0.323	-0.126
-662.989	651.749	-0.150	-0.382
-661.974	-200.000	0.040	0.277
-660.959	18.426	-0.071	0.056
-659.945	25.445	0.197	0.163
-658.930	378.766	-0.097	0.199
-657.916	-106.528	0.389	0.087
-656.901	-195.846	-0.194	0.001
-655.886	-13.639	-0.157	-0.102
-654.872	-188.815	-0.313	-0.004
-653.857	72.023	0.389	-0.404
-652.843	-200.000	0.026	-0.121
-651.828	-49.342	-0.102	-0.049
-650.814	-47.329	-0.357	0.173
-649.799	-160.912	0.271	-0.014
-648.784	149.650	0.166	0.224
-647.770	-109.213	-0.229	0.048
-646.755	-200.000	0.035	0.250
-645.741	35.227	-0.165	0.144
-644.726	115.433	-0.239	0.292
-643.711	-31.757	0.245	0.137
-642.697	81.380	0.108	0.117
-641.682	-82.328	-0.161	-0.052
-640.668	226.823	-0.175	-0.284
-639.653	752.527	-0.040	-0.108
-638.638	453.676	-0.098	-0.215
-637.624	-114.257	0.186	0.036
-636.609	-112.244	0.122	-0.024
-635.595	-200.000	0.001	-0.060
-634.580	768.144	0.066	0.179
-633.565	371.803	0.061	-0.123
-632.551	-69.150	-0.229	-0.088
-631.536	5.598	-0.055	0.040
-630.522	226.671	-0.119	-0.192
-629.507	46.129	0.098	-0.090
-628.492	239.989	0.071	-0.118
-627.478	-101.921	-0.181	0.044
-626.463	-77.274	0.121	0.042
-625.449	-200.000	0.007	0.427
-624.434	-174.470	-0.277	0.008
-623.419	518.307	-0.070	-0.162
-622.405	800.000	0.039	-0.166
-621.390	209.645	-0.137	-0.215
-620.376	-86.410	0.326	0.100
-619.361	1.953	-0.002	0.002
-618.346	675.369	-0.036	0.093
-617.332	-62.529	0.290	-0.120
-616.317	-147.847	-0.153	-0.013
-615.303	-200.000	-0.004	-0.282
-614.288	-93.330	-0.064	0.018
-613.273	372.628	-0.141	0.286
-612.259	-200.000	0.016	0.306
-611.244	-84.872	0.215	-0.067
-610.230	77.285	0.128	0.136
-609.215	-66.599	-0.305	-0.121
-608.201	-95.167	0.211	-0.057
-607.186	-72.532	0.100	0.037
-606.171	800.000	-0.103	0.316
-605.157	71.828	-0.311	-0.322
-604.142	-61.108	0.261	-0.110
-603.128	-27.025	-0.196	0.114
-602.113	39.412	0.154	0.137
-601.098	271.089	-0.228	0.400
-600.084	-7.314	0.151	-0.102
-599.069	-200.000	-0.032	0.248
-598.055	215.810	0.065	-0.103
-597.040	-150.970	-0.399	-0.030
-596.025	-30.023	-0.184	0.104
-595.011	-19.730	-0.188	-0.116
-593.996	475.847	-0.201	0.453
-592.982	313.854	-0.154	0.289
-591.967	-200.000	-0.003	-0.169
-590.952	31.657	-0.140	0.120
-589.938	-118.231	-0.076	-0.013
-588.923	-99.740	-0.058	-0.015
-587.909	-45.763	-0.285	-0.140
-586.894	-148.709	0.025	-0.002
-585.879	-200.000	0.028	0.304
-584.865	-128.402	-0.206	-0.029
-583.850	-200.000	-0.020	-0.088
-582.836	-87.531	-0.173	0.052
-581.821	-89.531	0.125	0.036
-580.806	-90.278	0.045	-0.013
-579.792	-70.189	-0.218	0.082
-578.777	412.721	-0.094	0.198
-577.763	108.693	-0.263	-0.313
-576.748	146.425	0.106	0.142
-575.733	-105.218	-0.088	0.020
-574.719	-200.000	0.036	0.156
-573.704	109.543	0.262	-0.312
-572.690	51.864	-0.272	-0.258
-571.675	-41.269	-0.289	-0.148
-570.661	-200.000	0.031	-0.205
-569.646	800.000	0.063	-0.272
-568.631	-145.621	0.206	0.018
-567.617	-200.000	0.011	-0.107
-566.602	-87.617	-0.075	0.023
-565.588	-60.345	-0.073	0.031
-564.573	31.821	-0.280	-0.240
-563.558	-200.000	0.015	0.149
-562.544	66.368	0.093	-0.094
-561.529	-144.375	0.440	-0.041
-560.515	1.832	0.130	0.093
-559.500	4.834	-0.159	0.116
-558.485	-52.649	-0.202	-0.093
-557.471	-161.186	-0.210	0.011
-556.456	-125.892	-0.285	0.043
-555.442	-150.058	-0.240	-0.019
-554.427	711.715	0.018	0.047
-553.412	766.960	0.114	-0.307
-552.398	-200.000	0.008	-0.188
-551.383	591.042	0.122	-0.299
-550.369	-95.867	-0.054	-0.014
-549.354	-145.300	-0.223	-0.020
-548.339	-41.124	0.190	-0.098
-547.325	-87.854	-0.182	0.054
-546.310	-55.616	-0.100	0.044
-545.296	268.713	0.077	0.135
-544.281	281.484	0.071	0.126
-543.266	45.043	-0.022	0.020
-542.252	-182.034	-0.133	-0.003
-541.237	366.547	-0.150	0.301
-540.223	-57.663	0.110	0.048
-539.208	106.154	0.030	-0.035
-538.193	-138.804	-0.197	-0.021
-537.179	439.096	0.144	-0.312
-536.164	32.716	-0.043	-0.037
-535.150	153.400	0.059	0.081
-534.135	68.628	0.265	0.270
-533.121	716.053	0.117	-0.307
-532.106	-152.748	0.160	0.011
-531.091	248.302	-0.147	0.246
-530.077	-200.000	-0.026	0.138
-529.062	39.876	-0.094	-0.084
-528.048	800.000	-0.078	-0.295
-527.033	-200.000	0.017	0.091
-526.018	800.000	0.049	-0.195
-525.004	-156.630	-0.431	-0.027
-523.989	228.775	0.054	0.087
-522.975	800.000	-0.109	-0.345
-521.960	-200.000	-0.011	0.152
-520.945	86.269	-0.281	0.307
-519.931	-200.000	-0.024	0.181
-518.916	180.759	0.101	-0.147
-517.902	-200.000	-0.046	-0.251
-516.887	-200.000	-0.027	0.163
-515.872	-200.000	0.067	-0.553
-514.858	800.000	0.072	0.204
-513.843	-123.096	-0.332	-0.053
-512.829	-200.000	-0.055	-0.434
-511.814	-165.669	0.096	-0.004
-510.799	-1.145	0.301	-0.211
-509.785	800.000	-0.028	0.084
-508.770	-49.718	-0.101	-0.047
-507.756	465.814	-0.100	-0.222
-506.741	114.081	0.024	0.029
-505.726	-62.327	0.321	0.133
-504.712	-27.839	-0.401	-0.231
-503.697	800.000	-0.017	-0.075
-502.683	-19.873	0.289	-0.177
-501.668	61.139	-0.251	0.247
-500.653	189.998	0.082	-0.122
-499.639	84.704	-0.106	-0.115
-498.624	-19.308	-0.128	0.078
-497.610	-200.000	-0.005	-0.226
-496.595	-191.478	-0.174	-0.002
-495.581	-108.125	0.102	0.022
-494.566	800.000	0.010	0.035
-493.551	451.955	0.109	0.240
-492.537	177.772	0.227	0.328
-491.522	130.499	0.038	-0.048
-490.508	98.851	-0.146	0.167
-489.493	198.551	-0.084	-0.127
-488.478	136.065	-0.134	0.173
-487.464	29.973	-0.039	0.033
-486.449	57.060	-0.133	-0.129
-485.435	-61.990	-0.274	-0.114
-484.420	800.000	-0.025	-0.076
-483.405	-200.000	-0.114	0.588
-482.391	800.000	0.070	0.199
-481.376	188.998	-0.094	0.139
-480.362	-98.218	-0.269	-0.068
-479.347	-200.000	0.027	-0.248
-478.332	-15.404	-0.101	-0.064
-477.318	-126.395	0.366	-0.054
-476.303	800.000	0.032	-0.133
-475.289	345.859	-0.088	-0.172
-474.274	167.437	-0.217	0.305
-473.259	-36.690	0.034	0.018
-472.245	49.987	0.073	0.068
-471.230	6.407	-0.145	0.107
-470.216	-200.000	-0.034	-0.223
-469.201	-0.453	-0.161	0.113
-468.186	12.995	0.161	-0.124
-467.172	-200.000	-0.051	-0.308
-466.157	17.913	0.154	-0.121
-465.143	80.167	0.140	0.149
-464.128	-51.481	0.161	-0.075
-463.113	137.819	0.152	-0.197
-462.099	65.697	-0.120	0.120
-461.084	118.448	-0.040	-0.049
-460.070	-200.000	0.010	0.096
-459.055	800.000	0.050	-0.164
-458.040	165.668	0.156	-0.219
-457.026	-200.000	0.014	0.092
-456.011	136.480	-0.138	0.179
-454.997	178.045	-0.069	-0.100
-453.982	57.122	0.326	-0.315
-452.968	369.720	-0.029	-0.058
-451.953	-200.000	-0.039	0.341
-450.938	-200.000	-0.003	0.208
-449.924	241.423	-0.095	-0.158
-448.909	100.499	-0.158	0.181
-447.895	-84.327	-0.258	-0.081
-446.880	-200.000	-0.070	-0.351
-445.865	135.565	0.126	-0.162
-444.851	-9.434	0.128	0.085
-443.836	32.171	0.254	0.217
-442.822	-173.272	-0.024	-0.001
-441.807	-200.000	-0.002	0.386
-440.792	-108.215	0.191	0.041
-439.778	-46.793	0.317	0.154
-438.763	-140.704	0.091	-0.009
-437.749	38.316	-0.181	0.159
-436.734	-110.411	0.131	0.027
-435.719	-102.236	-0.204	0.048
-434.705	52.092	0.081	0.077
-433.690	71.396	-0.342	0.352
-432.676	228.771	0.175	-0.283
-431.661	24.141	-0.159	-0.130
-430.646	800.000	0.026	-0.097
-429.632	-141.608	-0.313	-0.031
-428.617	-154.857	0.107	-0.007
-427.603	-94.161	0.175	-0.047
-426.588	-131.779	0.120	-0.016
-425.573	248.157	-0.046	0.077
-424.559	800.000	-0.083	0.229
-423.544	-200.000	-0.016	-0.193
-422.530	-200.000	0.019	0.200
-421.515	-200.000	-0.008	0.052
-420.500	-0.922	0.212	0.148
-419.486	-200.000	-0.021	-0.123
-418.471	135.664	-0.157	0.202
-417.457	800.000	-0.071	0.224
-416.442	160.645	-0.161	0.222
-415.428	720.630	0.055	-0.143
-414.413	276.515	-0.129	0.227
-413.398	-126.036	-0.111	0.017
-412.384	466.171	-0.159	0.351
-411.369	379.612	0.099	0.201
-410.355	-200.000	-0.032	-0.198
-409.340	-14.640	-0.103	0.065
-408.325	-200.000	-0.028	-0.226
-407.311	41.889	0.156	-0.139
-406.296	-87.625	0.205	0.061
-405.282	74.429	0.069	0.072
-404.267	-98.198	0.153	0.039
-403.252	-32.800	-0.358	-0.197
-402.238	188.163	-0.180	-0.265
-401.223	-200.000	-0.041	-0.221
-400.209	499.367	0.056	-0.127
-399.194	444.530	-0.021	0.046
-398.179	-200.000	0.024	0.168
-397.165	-47.960	0.352	0.168
-396.150	-200.000	-0.001	-0.326
-395.136	-200.000	0.022	0.156
-394.121	6.344	0.119	0.088
-393.106	155.414	-0.052	-0.070
-392.092	-26.855	0.367	-0.212
-391.077	1.594	-0.207	-0.147
-390.063	191.170	0.163	0.242
-389.048	-82.738	-0.434	-0.139
-388.033	-144.119	0.294	0.027
-387.019	4.998	0.149	-0.108
-386.004	266.400	-0.129	-0.223
-384.990	2.626	0.148	-0.106
-383.975	-48.130	-0.171	0.081
-382.960	437.193	0.054	0.115
-381.946	-200.000	0.005	0.043
-380.931	72.948	0.280	0.289
-379.917	164.602	-0.235	-0.327
-378.902	-67.217	0.170	0.066
-377.888	-200.000	0.015	-0.289
-376.873	-200.000	0.042	0.226
-375.858	87.802	0.015	0.017
-374.844	258.472	0.102	-0.173
-373.829	-113.064	-0.150	0.029
-372.815	97.268	0.085	-0.097
-371.800	-107.792	0.109	0.023
-370.785	4.020	0.148	0.107
-369.771	-200.000	-0.017	-0.227
-368.756	-200.000	-0.028	-0.251
-367.742	5.204	-0.305	0.222
-366.727	-200.000	0.014	-0.274
-365.712	257.940	0.091	0.154
-364.698	-200.000	0.004	0.279
-363.683	24.288	0.303	-0.247
-362.669	-160.267	-0.112	0.006
-361.654	-129.360	0.270	-0.037
-360.639	-5.441	0.275	0.186
-359.625	82.559	-0.214	0.230
-358.610	41.791	-0.144	-0.129
-357.596	551.798	0.029	0.070
-356.581	310.797	0.179	-0.331
-355.566	-200.000	-0.047	-0.446
-354.552	-200.000	-0.092	-0.531
-353.537	-86.216	-0.210	-0.064
-352.523	154.432	-0.051	0.070
-351.508	-200.000	0.054	0.246
-350.493	-64.927	0.370	-0.147
-349.479	-123.723	-0.363	-0.057
-348.464	-118.206	-0.196	0.035
-347.450	800.000	-0.031	0.115
-346.435	800.000	-0.109	-0.313
-345.420	38.229	-0.087	-0.076
-344.406	-110.323	-0.123	0.025
-343.391	-141.696	0.225	-0.022
-342.377	-31.742	-0.123	0.068
-341.362	800.000	0.117	-0.377
-340.348	-46.336	-0.178	-0.086
-339.333	-78.770	-0.223	-0.075
-338.318	-114.134	-0.205	0.039
-337.304	37.495	0.140	-0.122
-336.289	-200.000	-0.022	0.141
-335.275	38.052	-0.163	-0.143
-334.260	800.000	0.056	0.190
-333.245	-200.000	0.029	0.277
-332.231	85.027	0.180	-0.195
-331.216	-59.050	-0.040	-0.017
-330.202	218.123	0.163	-0.256
-329.187	140.299	0.020	-0.026
-328.172	522.223	0.177	0.410
-327.158	291.061	0.114	-0.204
-326.143	-71.735	-0.053	-0.019
-325.129	-82.989	-0.131	-0.042
-324.114	-167.603	0.596	0.023
-323.099	314.871	0.156	-0.289
-322.085	800.000	0.113	-0.383
-321.070	791.774	-0.079	-0.213
-320.056	37.652	0.118	-0.103
-319.041	251.146	0.139	0.233
-318.026	-200.000	0.007	0.242
-317.012	-86.582	0.273	0.082
-315.997	-101.877	0.266	-0.063
-314.983	71.482	-0.195	-0.200
-313.968	-200.000	0.012	0.406
-312.953	229.011	0.081	-0.130
-311.939	-116.623	0.211	-0.038
-310.924	117.814	0.095	0.115
-309.910	-200.000	-0.006	-0.256
-308.895	-54.073	0.349	-0.156
-307.880	-200.000	-0.017	-0.408
-306.866	580.088	-0.147	0.355
-305.851	-200.000	-0.001	-0.025
-304.837	-2.437	-0.368	0.254
-303.822	-190.446	-0.065	-0.001
-302.807	-35.256	-0.348	0.186
-301.793	139.923	0.177	0.230
-300.778	-155.689	-0.135	0.008
-299.764	800.000	0.033	-0.138
-298.749	-76.804	-0.238	-0.082
-297.735	106.174	0.132	0.154
-296.720	800.000	-0.045	0.160
-295.705	-200.000	-0.015	0.238
-294.691	-83.332	0.124	0.039
-293.676	-200.000	0.007	0.175
-292.662	-101.839	0.232	-0.055
-291.647	-53.438	-0.146	0.066
-290.632	-41.201	0.276	0.140
-289.618	156.100	0.070	0.094
-288.603	-108.255	0.387	0.082
-287.589	302.538	-0.150	0.272
-286.574	800.000	-0.066	-0.185
-285.559	-200.000	0.046	0.227
-284.545	-3.926	-0.384	-0.262
-283.530	800.000	0.045	0.180
-282.516	800.000	-0.072	-0.267
-281.501	-200.000	-0.000	-0.029
-280.486	397.521	0.154	0.317
-279.472	74.012	-0.117	-0.121
-278.457	-147.316	-0.377	0.032
-277.443	183.395	-0.172	-0.249
-276.428	-41.897	0.174	-0.088
-275.413	-56.771	0.132	-0.057
-274.399	-200.000	-0.037	0.171
-273.384	115.496	-0.108	-0.130
-272.370	-52.662	0.135	0.061
-271.355	800.000	0.071	-0.232
-270.340	-92.554	0.233	-0.064
-269.326	18.555	0.216	0.170
-268.311	800.000	0.052	0.185
-267.297	723.372	-0.115	0.300
-266.282	97.368	0.138	0.156
-265.267	-200.000	-0.052	-0.239
-264.253	800.000	-0.048	0.182
-263.238	-118.384	0.248	-0.043
-262.224	-72.561	-0.199	-0.072
-261.209	-97.828	-0.173	0.044
-260.195	-101.433	-0.296	0.071
-259.180	800.000	-0.026	-0.092
-258.165	1.518	-0.116	0.082
-257.151	-32.610	0.184	0.100
-256.136	800.000	-0.087	0.245
-255.122	800.000	0.055	0.160
-254.107	150.482	0.302	-0.403
-253.092	-56.877	-0.213	-0.092
-252.078	-101.283	-0.106	0.025
-251.063	433.804	-0.231	0.493
-250.049	157.020	0.207	-0.281
-249.034	-29.514	-0.127	-0.071
-248.019	-74.250	-0.171	0.061
-247.005	316.934	0.069	0.129
-245.990	-200.000	0.013	-0.224
-244.976	-99.861	0.305	-0.075
-243.961	169.785	-0.125	0.176
-242.946	148.312	-0.143	0.190
-241.932	592.879	-0.061	0.148
-240.917	-77.596	-0.083	-0.028
-239.903	-64.135	0.336	0.135
-238.888	-200.000	-0.004	0.026
-237.873	192.123	-0.041	-0.061
-236.859	-128.652	0.325	0.045
-235.844	-46.407	0.227	-0.110
-234.830	-94.734	0.395	-0.105
-233.815	20.444	0.338	0.268
-232.800	800.000	-0.059	-0.191
-231.786	-200.000	-0.025	-0.158
-230.771	89.359	0.218	0.239
-229.757	-81.950	-0.263	0.084
-228.742	-53.437	-0.088	-0.040
-227.727	140.570	0.089	-0.115
-226.713	-67.082	-0.561	-0.217
-225.698	800.000	0.017	0.060
-224.684	-200.000	0.018	-0.198
-223.669	-169.798	-0.236	0.008
-222.655	682.289	0.164	0.420
-221.640	136.645	0.193	-0.248
-220.625	-121.491	-0.080	0.013
-219.611	6.236	0.105	0.076
-218.596	-181.575	-0.353	0.007
-217.582	139.217	0.346	-0.447
-216.567	449.231	0.214	0.462
-215.552	294.762	0.053	0.094
-214.538	-57.550	0.174	0.075
-213.523	-105.882	-0.079	0.017
-212.509	-200.000	-0.203	-0.000
-211.494	-111.205	-0.132	-0.026
-210.479	-120.029	0.294	-0.049
-209.465	-26.358	-0.109	0.063
-208.450	-200.000	-0.019	0.166
-207.436	27.494	0.141	-0.116
-206.421	-16.515	-0.051	-0.031
-205.406	-53.253	-0.117	-0.052
-204.392	496.316	0.175	0.395
-203.377	-175.995	0.189	0.005
-202.363	311.889	-0.140	-0.258
-201.348	800.000	0.114	-0.377
-200.333	154.124	-0.089	-0.120
-199.319	22.154	-0.296	0.237
-198.304	92.619	0.127	-0.140
-197.290	135.939	0.149	-0.191
-196.275	-186.225	0.368	0.005
-195.260	-113.214	0.328	0.063
-194.246	-100.205	0.106	0.026
-193.231	-200.000	0.042	0.281
-192.217	-200.000	-0.058	-0.286
-191.202	620.254	0.141	-0.348
-190.187	57.427	0.207	0.198
-189.173	-200.000	-0.021	-0.305
-188.158	1.759	0.116	-0.082
-187.144	800.000	-0.161	0.606
-186.129	66.150	0.205	-0.204
-185.114	-200.000	-0.008	0.251
-184.100	75.191	-0.093	0.096
-183.085	22.894	0.123	0.099
-182.071	800.000	-0.071	-0.282
-181.056	419.017	-0.059	0.124
-180.042	-162.634	-0.371	0.018
-179.027	158.216	0.232	-0.316
-178.012	-65.558	-0.236	-0.093
-176.998	-200.000	0.027	0.229
-175.983	205.296	0.213	-0.325
-174.969	-170.311	0.452	-0.016
-173.954	-200.000	-0.002	0.442
-172.939	-64.042	-0.289	0.116
-171.925	-6.792	0.105	-0.070
-170.910	285.106	0.008	-0.013
-169.896	95.588	0.198	0.221
-168.881	88.978	0.315	0.344
-167.866	800.000	0.068	-0.290
-166.852	41.003	0.080	0.071
-165.837	-62.213	0.106	-0.043
-164.823	709.237	0.087	-0.225
-163.808	-73.930	-0.341	-0.121
-162.793	214.371	-0.026	-0.040
-161.779	-200.000	-0.047	-0.275
-160.764	331.308	0.112	0.211
-159.750	254.312	0.051	-0.085
-158.735	83.323	0.134	-0.143
-157.720	6.669	0.120	-0.087
-156.706	59.626	0.326	0.315
-155.691	-200.000	-0.051	0.475
-154.677	785.525	0.064	0.172
-153.662	-107.086	-0.102	0.022
-152.647	29.812	-0.288	0.240
-151.633	58.354	-0.078	0.075
-150.618	-74.017	0.333	-0.118
-149.604	212.744	-0.218	0.337
-148.589	-200.000	-0.004	0.131
-147.574	-200.000	-0.014	-0.491
-146.560	-43.926	0.150	0.074
-145.545	29.826	0.107	-0.089
-144.531	35.956	0.252	-0.217
-143.516	-19.441	0.220	0.133
-142.502	85.024	-0.057	0.061
-141.487	180.096	0.100	0.144
-140.472	-84.356	0.343	-0.106
-139.458	-123.498	0.181	-0.028
-138.443	-200.000	-0.007	0.111
-137.429	92.915	0.112	0.124
-136.414	219.603	-0.161	-0.252
-135.399	-200.000	-0.019	-0.102
-134.385	439.249	0.149	0.318
-133.370	307.275	-0.110	0.201
-132.356	800.000	0.097	-0.269
-131.341	40.947	-0.131	-0.116
-130.326	192.466	-0.218	-0.321
-129.312	641.700	0.007	0.019
-128.297	461.097	-0.150	0.328
-127.283	800.000	-0.127	0.353
-126.268	800.000	-0.065	-0.276
-125.253	-142.805	0.278	0.026
-124.239	30.858	0.008	0.006
-123.224	-66.000	0.095	0.037
-122.210	-200.000	-0.014	0.082
-121.195	79.499	-0.132	-0.138
-120.180	-128.524	-0.326	0.045
-119.166	-19.639	0.187	-0.113
-118.151	4.555	0.041	0.029
-117.137	244.529	-0.135	0.222
-116.122	-118.905	0.052	0.009
-115.107	241.853	-0.207	-0.338
-114.093	-200.000	-0.032	-0.356
-113.078	-200.000	-0.029	-0.244
-112.064	-78.098	-0.071	-0.024
-111.049	53.037	0.047	-0.044
-110.034	-27.131	0.292	-0.166
-109.020	-84.871	0.416	-0.128
-108.005	-67.819	0.189	-0.072
-106.991	107.585	-0.185	0.215
-105.976	-80.517	-0.224	0.073
-104.962	13.807	0.090	0.068
-103.947	-84.326	0.069	-0.021
-102.932	-75.236	-0.227	-0.079
-101.918	-200.000	0.014	-0.574
-100.903	-200.000	-0.003	0.090
-99.889	-105.798	-0.107	0.024
-98.874	-20.664	-0.020	0.012
-97.859	-163.769	0.068	-0.003
-96.845	-200.000	0.023	-0.348
-95.830	-8.922	0.238	0.155
-94.816	110.509	0.181	0.212
-93.801	-200.000	-0.014	-0.099
-92.786	25.095	0.108	-0.088
-91.772	-48.441	-0.321	-0.151
-90.757	5.979	0.144	-0.104
-89.743	-104.355	-0.300	0.068
-88.728	98.229	0.108	0.121
-87.713	135.281	0.077	0.097
-86.699	102.014	0.073	0.083
-85.684	41.719	0.166	-0.147
-84.670	253.262	0.096	0.160
-83.655	67.816	-0.021	0.021
-82.640	141.223	0.111	0.144
-81.626	-200.000	0.040	-0.256
-80.611	301.151	-0.228	-0.411
-79.597	449.696	0.142	-0.305
-78.582	11.959	-0.238	-0.179
-77.567	800.000	-0.024	-0.087
-76.553	188.314	-0.042	0.061
-75.538	56.969	-0.218	0.207
-74.524	207.636	0.041	0.063
-73.509	261.625	-0.060	-0.102
-72.494	-107.591	0.178	0.038
-71.480	16.073	0.048	-0.037
-70.465	322.675	0.064	0.119
-69.451	275.787	-0.188	-0.325
-68.436	156.587	-0.120	-0.162
-67.422	91.373	0.243	0.266
-66.407	-200.000	0.042	0.344
-65.392	32.048	-0.342	-0.288
-64.378	158.362	0.091	0.122
-63.363	294.921	0.102	-0.181
-62.349	-200.000	-0.008	0.221
-61.334	48.642	-1.311	-1.198
-60.319	156.705	0.672	0.905
-59.305	505.564	-0.677	-1.530
-58.290	149.119	1.040	1.372
-57.276	276.810	0.909	1.575
-56.261	-200.000	136.817	628.461
-55.246	341.028	1641.470	3125.051
-54.232	137.362	2772.613	3535.193
-53.217	81.781	2154.325	2273.058
-52.203	29.834	1590.313	1320.273
-51.188	22.257	1343.669	1069.574
-50.173	20.425	1309.425	1031.405
-49.159	47.213	1383.526	1255.164
-48.144	42.473	1392.303	1234.035
-47.130	22.362	1340.855	1067.806
-46.115	19.473	1322.190	1035.587
-45.100	19.354	1316.692	1030.531
-44.086	19.235	1314.251	1027.870
-43.071	19.193	1311.933	1025.763
-42.057	19.158	1310.603	1024.472
-41.042	19.273	1307.921	1023.021
-40.027	19.322	1306.525	1022.178
-39.013	19.159	1305.200	1020.137
-37.998	19.297	1302.616	1018.892
-36.984	19.352	1301.260	1018.114
-35.969	19.244	1299.667	1016.193
-34.954	19.383	1297.636	1015.383
-33.940	19.431	1296.044	1014.377
-32.925	19.428	1295.425	1013.834
-31.911	19.424	1293.682	1012.405
-30.896	19.483	1291.845	1011.274
-29.881	19.419	1290.741	1009.997
-28.867	19.266	1289.652	1008.211
-27.852	19.505	1287.703	1008.039
-26.838	19.451	1286.222	1006.529
-25.823	19.515	1284.723	1005.687
-24.809	19.431	1283.819	1004.452
-23.794	19.397	1282.432	1003.127
-22.779	19.322	1281.710	1002.085
-21.765	19.429	1280.357	1001.608
-20.750	19.396	1278.985	1000.306
-19.736	19.290	1278.098	998.955
-18.721	19.328	1276.508	997.898
-17.706	19.289	1275.394	996.762
-16.692	19.235	1274.165	995.450
-15.677	19.239	1273.313	994.764
-14.663	19.217	1272.110	993.660
-13.648	19.250	1270.892	992.857
-12.633	19.241	1269.714	991.849
-11.619	19.184	1269.704	991.472
-10.604	19.412	1267.792	991.252
-9.590	19.276	1267.527	990.220
-8.575	19.258	1266.630	989.379
-7.560	19.282	1265.724	988.768
-6.546	19.251	1264.529	987.621
-5.531	19.278	1263.536	986.961
-4.517	19.243	1263.131	986.404
-3.502	19.197	1262.626	985.708
-2.487	19.248	1261.568	985.134
-1.473	19.189	1256.613	980.887
-0.458	17.566	1241.704	960.072
0.556	13.235	1226.823	923.445
1.571	9.637	1234.677	909.011
2.586	9.127	1250.022	917.318
3.600	9.217	1237.475	908.539
4.615	6.967	1166.010	843.998
5.629	2.783	1098.026	773.654
6.644	0.677	1083.379	752.782
7.659	0.576	1081.680	751.033
8.673	0.532	1080.937	750.233
9.688	0.594	1079.466	749.454
10.702	0.779	1076.388	748.164
11.717	3.426	1078.920	762.969
12.731	9.290	1087.629	798.247
13.746	14.959	1094.736	831.651
14.761	17.090	1097.329	844.156
15.775	16.504	1095.431	839.714
16.790	15.584	1093.129	833.313
17.804	14.881	1091.994	828.890
18.819	14.557	1090.623	826.170
19.834	14.371	1089.971	824.686
20.848	14.185	1088.769	822.779
21.863	13.964	1087.812	820.893
22.877	13.726	1087.207	819.188
23.892	13.660	1086.894	818.554
24.907	13.758	1085.276	817.745
25.921	13.714	1085.209	817.409
26.936	13.844	1084.045	817.098
27.950	13.737	1083.380	815.997
28.965	13.789	1081.966	815.118
29.980	13.903	1080.312	814.357
30.994	13.866	1079.482	813.477
32.009	13.994	1078.669	813.420
33.023	13.947	1077.305	812.088
34.038	13.877	1076.480	811.055
35.053	13.847	1076.267	810.676
36.067	13.822	1074.874	809.434
37.082	13.803	1074.246	808.794
38.096	13.891	1073.449	808.552
39.111	13.818	1073.017	807.801
40.126	13.866	1071.316	806.683
41.140	13.707	1070.145	804.956
42.155	13.834	1069.166	804.764
43.169	13.754	1067.785	803.267
44.184	13.653	1066.858	802.011
45.199	13.688	1065.793	801.308
46.213	13.742	1064.556	800.569
47.228	13.710	1063.656	799.664
48.242	13.829	1062.528	799.320
49.257	13.849	1061.667	798.700
50.271	13.870	1060.899	798.149
51.286	13.820	1059.723	796.952
52.301	13.687	1058.955	795.669
53.315	13.746	1057.746	794.971
54.330	13.783	1056.388	794.059
55.344	13.816	1055.566	793.530
56.359	13.726	1055.108	792.681
57.374	13.766	1053.980	791.957
58.388	13.755	1053.099	791.172
59.403	13.709	1052.434	790.385
60.417	13.617	1051.801	789.402
61.432	13.640	1050.985	788.827
62.447	13.668	1049.948	788.113
63.461	13.549	1049.267	786.968
64.476	13.677	1048.206	786.709
65.490	13.619	1047.002	785.458
66.505	13.619	1046.436	784.964
67.520	13.591	1046.372	784.714
68.534	13.768	1045.102	784.530
69.549	13.589	1044.531	783.187
70.563	13.677	1043.631	782.859
71.578	13.703	1042.338	781.942
72.593	13.537	1041.916	780.772
73.607	13.656	1041.058	780.620
74.622	13.626	1040.747	780.179
75.636	13.553	1040.279	779.415
76.651	13.522	1039.587	778.683
77.666	13.479	1038.892	777.890
78.680	13.694	1038.105	778.243
79.695	13.539	1037.423	776.934
80.709	13.667	1036.469	776.751
81.724	13.550	1036.255	775.973
82.739	13.794	1034.972	776.085
83.753	13.842	1034.311	775.747
84.768	13.788	1033.319	774.680
85.782	13.848	1032.484	774.268
86.797	13.807	1031.621	773.360
87.812	13.756	1030.621	772.304
88.826	13.771	1029.739	771.644
89.841	13.827	1028.729	771.080
90.855	13.851	1027.568	770.254
91.870	13.827	1026.889	769.564
92.884	13.931	1025.475	768.917
93.899	13.912	1025.015	768.416
94.914	13.955	1024.339	768.042
95.928	13.857	1023.582	766.951
96.943	13.996	1022.309	766.574
97.957	13.923	1021.825	765.807
98.972	13.901	1020.734	764.821
99.987	13.886	1020.066	764.183
101.001	13.935	1019.020	763.555
102.016	13.851	1018.466	762.687
103.030	13.903	1017.581	762.196
104.045	13.920	1016.916	761.706
105.060	13.770	1016.215	760.428
106.074	13.749	1015.355	759.620
107.089	13.735	1013.848	758.361
108.103	13.718	1013.179	757.717
109.118	13.590	1012.274	756.389
110.133	13.734	1011.455	756.366
111.147	13.708	1010.715	755.629
112.162	13.894	1009.710	755.658
113.176	13.865	1008.523	754.568
114.191	13.807	1008.601	754.296
115.206	13.918	1006.996	753.532
116.220	13.879	1006.021	752.563
117.235	13.821	1005.507	751.847
118.249	13.927	1004.417	751.446
119.264	13.814	1003.913	750.490
120.279	13.779	1002.987	749.574
121.293	13.844	1001.980	749.050
122.308	13.853	1001.324	748.535
123.322	13.925	999.823	747.667
124.337	13.881	999.141	746.896
125.352	13.870	998.017	745.939
126.366	13.806	997.226	744.992
127.381	13.844	995.860	744.079
128.395	13.695	995.238	742.881
129.410	13.786	994.264	742.494
130.424	13.815	993.402	741.916
131.439	13.807	992.313	740.999
132.454	13.887	991.693	740.830
133.468	13.885	991.162	740.358
134.483	13.910	989.619	739.250
135.497	13.704	989.112	737.889
136.512	13.834	988.114	737.656
137.527	13.752	987.725	736.938
138.541	13.826	986.873	736.566
139.556	13.786	986.172	735.801
140.570	14.000	985.053	735.846
141.585	14.058	984.087	735.315
142.600	14.010	983.052	734.268
143.614	13.981	982.696	733.808
144.629	13.945	981.909	732.998
145.643	14.022	981.036	732.621
146.658	14.025	979.825	731.661
147.673	14.072	978.413	730.752
148.687	13.951	978.181	729.982
149.702	13.946	976.791	728.856
150.716	13.946	976.698	728.724
151.731	13.971	975.724	728.042
152.746	13.982	975.193	727.630
153.760	14.061	974.465	727.368
154.775	14.141	973.646	727.041
155.789	14.179	972.987	726.650
156.804	14.043	972.642	725.733
157.819	14.152	971.830	725.542
158.833	14.211	970.768	724.940
159.848	14.113	970.444	724.209
160.862	14.108	969.398	723.341
161.877	14.127	968.387	722.605
162.892	14.033	967.529	721.495
163.906	14.156	966.564	721.245
164.921	14.190	965.318	720.398
165.935	14.151	964.731	719.727
166.950	14.155	964.141	719.239
167.964	14.097	963.638	718.552
168.979	14.228	962.306	718.061
169.994	14.201	961.152	717.017
171.008	14.250	960.714	716.840
172.023	14.287	960.269	716.605
173.037	14.324	959.555	716.167
174.052	14.281	958.417	715.067
175.067	14.306	957.977	714.783
176.081	14.305	957.454	714.325
177.096	14.169	956.640	713.073
178.110	14.167	956.147	712.634
179.125	14.292	955.366	712.524
180.140	14.363	955.155	712.608
181.154	14.327	954.609	711.983
182.169	14.387	953.856	711.616
183.183	14.330	953.563	711.087
184.198	14.310	952.555	710.191
185.213	14.394	952.085	710.132
186.227	14.492	951.145	709.787
187.242	14.622	950.561	709.840
188.256	14.557	949.612	708.793
189.271	14.545	948.586	707.915
190.286	14.454	948.231	707.201
191.300	14.417	947.407	706.367
192.315	14.294	946.908	705.412
193.329	14.371	946.616	705.459
194.344	14.364	945.853	704.799
195.359	14.477	945.243	704.756
196.373	14.525	944.528	704.363
197.388	14.545	944.030	704.013
198.402	14.602	943.132	703.525
199.417	14.639	942.754	703.336
200.432	14.681	942.334	703.135
201.446	14.754	941.711	702.916
202.461	14.724	941.509	702.579
203.475	14.759	940.342	701.792
204.490	14.645	939.863	700.893
205.504	14.665	939.299	700.494
206.519	14.565	938.325	699.288
207.534	14.756	937.726	699.581
208.548	14.737	937.003	698.898
209.563	14.739	936.396	698.390
210.577	14.810	935.301	697.811
211.592	14.832	935.221	697.782
212.607	14.840	934.080	696.901
213.621	14.907	932.852	696.203
214.636	14.817	932.477	695.487
215.650	14.856	931.774	695.062
216.665	14.814	931.270	694.452
217.680	14.943	930.307	694.206
218.694	14.987	929.470	693.703
219.709	15.067	928.736	693.424
220.723	14.918	928.498	692.569
221.738	14.898	927.836	691.933
222.753	14.913	927.013	691.316
223.767	14.962	926.742	691.258
224.782	15.167	925.785	691.328
225.796	14.994	925.422	690.282
226.811	15.061	925.027	690.205
227.826	15.027	923.821	689.100
228.840	15.128	922.972	688.823
229.855	15.102	922.234	688.106
230.869	15.075	921.542	687.416
231.884	15.036	921.158	686.910
232.899	15.129	920.267	686.565
233.913	15.023	919.560	685.544
234.928	14.992	919.096	685.008
235.942	15.174	918.232	685.049
236.957	15.038	918.003	684.260
237.972	15.111	917.482	684.109
238.986	15.049	916.861	683.335
240.001	14.996	916.072	682.471
241.015	15.148	915.327	682.473
242.030	15.067	915.015	681.853
243.045	15.230	914.196	681.843
244.059	15.230	913.244	681.075
245.074	15.015	913.225	680.126
246.088	15.246	912.246	680.275
247.103	15.345	911.350	679.945
248.117	15.220	911.032	679.143
249.132	15.456	910.073	679.321
250.147	15.301	910.164	678.705
251.161	15.347	909.395	678.256
252.176	15.341	908.378	677.412
253.190	15.404	907.596	677.023
254.205	15.562	906.881	677.069
255.220	15.531	905.952	676.188
256.234	15.573	905.447	675.922
257.249	15.542	904.834	675.280
258.263	15.573	904.065	674.769
259.278	15.578	903.050	673.972
260.293	15.600	902.409	673.523
261.307	15.596	902.284	673.355
262.322	15.856	901.061	673.422
263.336	15.732	900.735	672.622
264.351	15.747	899.795	671.922
265.366	15.815	899.537	671.940
266.380	15.772	898.718	671.100
267.395	15.802	898.123	670.715
268.409	15.891	897.192	670.314
269.424	15.798	896.777	669.575
270.439	15.666	896.324	668.650
271.453	15.618	895.762	667.982
272.468	15.633	895.097	667.487
273.482	15.783	894.761	667.772
274.497	15.707	893.638	666.574
275.512	15.645	893.499	666.167
276.526	15.846	892.979	666.515
277.541	15.906	891.883	665.878
278.555	15.993	891.021	665.519
279.570	15.831	890.719	664.592
280.585	15.975	889.656	664.309
281.599	16.029	888.873	663.880
282.614	15.978	888.493	663.334
283.628	15.988	888.094	663.018
284.643	15.877	887.523	662.097
285.657	16.048	886.884	662.232
286.672	15.959	886.150	661.278
287.687	16.094	885.675	661.394
288.701	16.113	884.824	660.774
289.716	16.084	884.400	660.285
290.730	15.961	883.850	659.334
291.745	16.065	883.111	659.132
292.760	16.130	882.300	658.724
293.774	16.148	881.928	658.456
294.789	16.152	881.221	657.885
295.803	16.106	880.195	656.885
296.818	16.047	879.899	656.373
297.833	16.132	879.248	656.160
298.847	16.122	878.476	655.487
299.862	16.251	877.609	655.285
300.876	16.237	877.519	655.105
301.891	16.278	876.514	654.456
302.906	16.245	876.060	653.930
303.920	16.358	875.607	653.971
304.935	16.394	874.972	653.577
305.949	16.464	874.019	653.081
306.964	16.308	873.872	652.310
307.979	16.430	873.245	652.256
308.993	16.359	872.509	651.375
310.008	16.531	871.770	651.428
311.022	16.465	871.385	650.826
312.037	16.487	870.583	650.254
313.052	16.531	870.015	649.942
314.066	16.466	869.427	649.198
315.081	16.545	868.925	649.069
316.095	16.303	868.546	647.800
317.110	16.385	868.113	647.732
318.125	16.521	867.637	647.840
319.139	16.370	867.186	646.870
320.154	16.411	866.249	646.268
321.168	16.582	865.730	646.477
322.183	16.528	865.171	645.796
323.197	16.621	864.638	645.698
324.212	16.626	864.160	645.301
325.227	16.621	863.648	644.844
326.241	16.424	863.393	643.847
327.256	16.494	862.449	643.352
328.270	16.462	862.127	642.932
329.285	16.407	861.612	642.283
330.300	16.566	861.011	642.380
331.314	16.604	860.089	641.780
332.329	16.690	859.604	641.688
333.343	16.684	859.190	641.300
334.358	16.587	859.085	640.796
335.373	16.617	858.603	640.496
336.387	16.608	858.117	640.043
337.402	16.598	858.180	639.992
338.416	16.745	857.663	640.106
339.431	16.757	856.968	639.578
340.446	16.750	856.683	639.281
341.460	16.790	856.236	639.041
342.475	16.967	855.716	639.263
343.489	16.892	855.667	638.888
344.504	16.917	855.186	638.567
345.519	16.831	854.655	637.792
346.533	17.008	853.986	637.903
347.548	16.967	853.068	637.006
348.562	16.851	853.176	636.592
349.577	16.895	852.322	636.067
350.592	16.877	852.167	635.826
351.606	17.020	850.743	635.242
352.621	16.923	850.399	634.566
353.635	17.014	849.297	634.029
354.650	17.203	848.637	634.186
355.665	17.018	848.022	632.979
356.679	17.117	847.444	632.861
357.694	17.133	847.004	632.534
358.708	16.892	846.848	631.464
359.723	17.135	845.922	631.621
360.738	17.223	845.168	631.330
361.752	17.160	844.400	630.468
362.767	17.157	844.084	630.164
363.781	17.236	843.689	630.107
364.796	17.201	843.204	629.559
365.810	17.332	842.477	629.446
366.825	17.287	842.413	629.177
367.840	17.397	841.640	628.949
368.854	17.290	841.441	628.349
369.869	17.366	840.751	628.058
370.883	17.452	840.190	627.903
371.898	17.424	840.122	627.692
372.913	17.555	839.835	627.906
373.927	17.331	838.956	626.369
374.942	17.350	838.555	626.083
375.956	17.543	838.509	626.704
376.971	17.548	837.832	626.160
377.986	17.364	837.767	625.381
379.000	17.650	836.609	625.510
380.015	17.512	836.121	624.582
381.029	17.689	835.489	624.706
382.044	17.537	835.268	623.929
383.059	17.670	834.639	623.889
384.073	17.640	833.978	623.230
385.088	17.611	833.312	622.573
386.102	17.742	832.828	622.633
387.117	17.605	832.168	621.586
388.132	17.632	831.715	621.291
389.146	17.593	831.009	620.565
390.161	17.576	830.825	620.311
391.175	17.828	829.946	620.515
392.190	17.760	829.712	620.039
393.205	17.644	829.275	619.238
394.219	17.583	829.334	619.002
395.234	17.612	828.845	618.688
396.248	17.636	828.144	618.198
397.263	17.635	827.662	617.782
398.278	17.651	827.239	617.468
399.292	17.762	826.565	617.311
400.307	17.770	826.083	616.926
401.321	17.703	825.776	616.401
402.336	17.688	825.427	616.033
403.350	17.748	825.018	615.887
404.365	17.910	824.571	616.084
405.380	17.755	824.113	615.127
406.394	17.793	823.743	614.933
407.409	18.068	822.777	615.150
408.423	18.039	822.600	614.858
409.438	17.810	822.529	613.929
410.453	17.916	821.822	613.725
411.467	18.151	821.083	613.965
412.482	18.055	820.487	613.121
413.496	18.155	820.425	613.377
414.511	18.035	820.047	612.612
415.526	18.080	820.115	612.769
416.540	18.080	819.361	612.150
417.555	18.306	818.550	612.300
418.569	18.265	818.040	611.716
419.584	18.046	817.955	610.815
420.599	18.147	817.788	610.997
421.613	116.012	1301.591	1492.386
422.628	100.607	1372.021	1492.466
