DTS Sentinel unit serial number:	SN413079Multiplexer serial number:	ORYXHardware model number:	OX4-SRSoftware version number:	ORYX F/W v4.00 Oryx Data Collector v3.7.2.0data status	okinstallation	princeton_trtdifferential loss correction	single-endedforward channel	channel 1reverse channel	N/Adate	2019/09/14time	12:34:35forward acquisition time	60.00reverse acquisition time	0.00gamma	496.2192k internal	0.2294k external	0.2294temperature offset calibration	1.0084default loss term (dB/km)	0.3790temperature slope calibration	1.0000multiplexer offset coefficient	1.0000multiplexer slope coefficient	1.0000fibre end	0.00T internal ref (°C)	38.00T ext. ref 1 (°C)	4.76T ext. ref 2 (°C)	34.20length (m)	temperature (°C)	Stokes	anti-Stokes-747.200	-15.539	0.293	-0.191
-746.185	-122.125	-0.342	0.057
-745.171	25.805	-0.194	0.165
-744.156	-200.000	-0.048	0.263
-743.142	-138.004	0.212	-0.024
-742.127	308.759	-0.210	0.401
-741.112	215.921	0.080	0.131
-740.098	-69.562	-0.094	0.037
-739.083	38.297	0.135	-0.123
-738.069	-137.963	0.155	0.018
-737.054	392.802	0.161	0.343
-736.039	-104.526	-0.199	0.047
-735.025	-59.240	-0.172	0.076
-734.010	-52.162	0.105	0.050
-732.996	-125.661	-0.176	-0.027
-731.981	250.126	-0.055	-0.096
-730.966	-200.000	0.003	0.228
-729.952	-200.000	0.056	-0.337
-728.937	-200.000	-0.004	-0.035
-727.923	-58.173	0.277	-0.123
-726.908	-97.863	0.130	-0.034
-725.894	330.291	-0.191	-0.375
-724.879	115.177	0.156	-0.195
-723.864	144.591	-0.114	-0.156
-722.850	647.771	-0.062	0.161
-721.835	-59.221	-0.118	-0.052
-720.821	-58.328	0.192	0.085
-719.806	-76.618	-0.293	0.105
-718.791	153.966	0.071	-0.099
-717.777	-166.713	0.298	0.013
-716.762	37.931	-0.246	-0.223
-715.748	-117.491	0.148	0.027
-714.733	462.645	-0.085	0.193
-713.718	800.000	0.120	0.398
-712.704	800.000	-0.065	0.206
-711.689	-69.605	0.214	-0.084
-710.675	-71.055	-0.155	0.059
-709.660	-51.336	-0.255	-0.122
-708.645	-187.867	0.619	0.008
-707.631	47.724	-0.232	-0.221
-706.616	-4.534	0.254	0.179
-705.602	-93.201	0.315	-0.089
-704.587	800.000	-0.100	-0.337
-703.572	242.265	0.020	-0.034
-702.558	222.338	0.236	-0.387
-701.543	-133.697	-0.303	-0.039
-700.529	800.000	0.047	-0.148
-699.514	-73.425	0.133	0.050
-698.499	-80.459	0.175	-0.059
-697.485	-200.000	-0.020	0.195
-696.470	148.098	0.245	0.337
-695.456	115.521	-0.123	0.154
-694.441	-125.416	0.133	0.021
-693.426	-11.211	0.169	-0.114
-692.412	17.374	0.101	0.082
-691.397	100.908	-0.172	0.204
-690.383	533.474	-0.080	0.194
-689.368	330.907	-0.097	0.190
-688.354	-199.810	0.216	-0.001
-687.339	69.547	0.171	0.180
-686.324	-127.383	0.224	-0.033
-685.310	-162.493	-0.544	0.027
-684.295	-55.841	-0.384	-0.175
-683.281	-31.922	-0.291	0.166
-682.266	174.284	-0.141	-0.207
-681.251	209.333	-0.091	0.146
-680.237	30.038	-0.196	0.171
-679.222	-17.309	-0.074	0.047
-678.208	-200.000	0.036	-0.232
-677.193	4.602	-0.097	0.073
-676.178	-104.295	-0.594	-0.141
-675.164	182.586	-0.155	-0.233
-674.149	-18.214	0.098	0.062
-673.135	-84.834	0.113	-0.036
-672.120	104.872	0.087	-0.104
-671.105	234.100	0.086	0.145
-670.091	-200.000	-0.034	0.308
-669.076	800.000	-0.020	-0.090
-668.062	-77.750	-0.252	-0.089
-667.047	800.000	0.094	-0.308
-666.032	-168.864	-0.242	0.009
-665.018	152.431	0.092	-0.128
-664.003	-30.164	-0.032	0.018
-662.989	-59.494	0.114	0.050
-661.974	-101.567	-0.223	0.055
-660.959	222.754	0.246	-0.403
-659.945	-15.437	0.114	-0.074
-658.930	-112.719	-0.075	-0.015
-657.916	-200.000	0.074	-0.402
-656.901	0.603	-0.123	-0.090
-655.886	-114.151	0.183	-0.036
-654.872	-200.000	0.052	0.255
-653.857	800.000	0.005	-0.015
-652.843	70.470	0.276	-0.291
-651.828	591.132	-0.093	-0.233
-650.814	-85.507	-0.285	0.091
-649.799	283.066	0.051	0.093
-648.784	3.912	0.071	-0.053
-647.770	800.000	-0.072	-0.221
-646.755	-30.601	-0.153	-0.088
-645.741	-11.231	-0.151	-0.101
-644.726	-200.000	-0.043	-0.231
-643.711	-141.490	-0.334	-0.034
-642.697	-200.000	0.101	0.492
-641.682	-98.208	-0.122	0.032
-640.668	-45.261	0.163	0.082
-639.653	-200.000	-0.010	0.056
-638.638	-92.596	0.033	-0.009
-637.624	656.018	0.098	-0.257
-636.609	-200.000	0.019	-0.199
-635.595	-200.000	0.002	-0.151
-634.580	-179.985	-0.048	-0.001
-633.565	16.090	0.050	0.040
-632.551	800.000	-0.082	0.236
-631.536	-66.534	0.262	0.106
-630.522	-16.600	0.221	-0.142
-629.507	54.581	-0.082	0.080
-628.492	269.864	0.206	0.369
-627.478	800.000	0.021	0.076
-626.463	422.533	-0.085	-0.185
-625.449	-200.000	-0.013	-0.326
-624.434	49.996	-0.095	0.091
-623.419	-117.752	0.389	-0.071
-622.405	308.370	0.134	0.255
-621.390	239.595	0.021	-0.036
-620.376	-2.556	-0.388	-0.277
-619.361	-87.526	-0.182	-0.056
-618.346	-95.847	-0.272	-0.074
-617.332	-155.287	0.115	-0.008
-616.317	70.666	-0.162	0.170
-615.303	-8.711	0.308	-0.210
-614.288	93.147	-0.043	-0.049
-613.273	446.766	0.033	-0.074
-612.259	-200.000	-0.016	-0.352
-611.244	800.000	-0.006	-0.026
-610.230	-200.000	0.026	0.122
-609.215	263.401	0.133	-0.236
-608.201	-41.133	-0.209	0.110
-607.186	43.535	0.256	0.238
-606.171	-53.300	0.241	-0.113
-605.157	306.949	0.122	-0.231
-604.142	118.856	0.145	-0.182
-603.128	-95.198	0.091	0.025
-602.113	800.000	-0.028	-0.085
-601.098	461.085	0.049	-0.110
-600.084	101.610	0.137	0.162
-599.069	289.882	0.102	0.187
-598.055	-200.000	0.009	0.066
-597.040	12.902	-0.091	-0.072
-596.025	209.266	-0.056	-0.089
-595.011	-200.000	-0.072	-0.359
-593.996	800.000	0.014	-0.055
-592.982	-200.000	-0.023	-0.383
-591.967	-183.276	-0.050	-0.001
-590.952	-36.360	-0.154	-0.084
-589.938	-81.604	-0.400	0.134
-588.923	-26.683	0.100	0.060
-587.909	151.689	0.134	-0.185
-586.894	531.910	0.115	0.276
-585.879	-70.868	0.126	0.048
-584.865	122.682	-0.149	-0.190
-583.850	9.679	-0.421	-0.324
-582.836	169.172	0.190	-0.276
-581.821	344.116	0.059	0.118
-580.806	-130.121	-0.316	0.044
-579.792	-153.091	-0.283	-0.020
-578.777	478.919	0.033	-0.076
-577.763	-70.619	0.222	-0.085
-576.748	-200.000	-0.068	-0.303
-575.733	-179.546	0.328	0.007
-574.719	-106.326	-0.149	0.034
-573.704	-200.000	-0.038	0.252
-572.690	362.273	-0.007	-0.014
-571.675	-86.252	-0.122	-0.038
-570.661	800.000	-0.044	-0.160
-569.646	72.230	-0.058	0.061
-568.631	-42.733	-0.167	-0.086
-567.617	133.978	-0.196	-0.258
-566.602	59.394	0.094	-0.094
-565.588	-146.622	0.094	-0.008
-564.573	726.076	-0.104	0.280
-563.558	-106.277	0.321	-0.073
-562.544	-200.000	0.009	0.064
-561.529	-102.480	0.428	0.104
-560.515	87.882	-0.081	0.091
-559.500	-29.656	-0.190	0.110
-558.485	-61.680	-0.263	-0.112
-557.471	800.000	0.040	-0.113
-556.456	-54.354	-0.283	-0.130
-555.442	437.094	-0.079	-0.174
-554.427	-163.620	-0.110	0.005
-553.412	-33.176	-0.124	0.070
-552.398	-200.000	0.009	0.047
-551.383	-87.101	-0.243	0.075
-550.369	800.000	0.083	0.267
-549.354	-112.965	0.380	0.076
-548.339	-200.000	0.074	0.530
-547.325	-200.000	-0.010	-0.212
-546.310	-47.778	-0.044	-0.021
-545.296	-94.075	-0.234	0.065
-544.281	-200.000	-0.009	0.053
-543.266	305.919	-0.127	-0.240
-542.252	-97.259	0.098	-0.026
-541.237	79.044	0.168	0.182
-540.223	-178.894	0.074	-0.002
-539.208	171.726	-0.070	0.101
-538.193	-200.000	0.041	-0.229
-537.179	15.856	-0.248	0.198
-536.164	15.904	0.113	-0.090
-535.150	664.132	-0.016	0.042
-534.135	-2.398	-0.036	0.025
-533.121	-44.881	-0.007	0.003
-532.106	46.932	0.188	0.178
-531.091	800.000	0.115	0.347
-530.077	-146.519	-0.253	-0.022
-529.062	542.660	-0.032	-0.078
-528.048	157.846	-0.256	-0.360
-527.033	0.455	0.083	0.060
-526.018	664.525	-0.197	-0.515
-525.004	-200.000	0.006	0.084
-523.989	-200.000	0.013	-0.187
-522.975	102.091	0.178	-0.211
-521.960	7.555	-0.160	0.121
-520.945	459.676	0.043	-0.098
-519.931	-200.000	-0.010	-0.144
-518.916	77.578	0.193	0.208
-517.902	-45.606	0.085	-0.043
-516.887	25.587	-0.226	0.191
-515.872	-137.997	0.254	0.029
-514.858	800.000	0.074	-0.218
-513.843	-128.260	-0.359	0.052
-512.829	-200.000	0.008	-0.236
-511.814	-127.517	-0.289	0.043
-510.799	319.285	0.105	0.203
-509.785	-91.011	-0.108	0.032
-508.770	448.636	0.095	-0.211
-507.756	286.525	0.027	0.049
-506.741	800.000	-0.070	-0.226
-505.726	-84.249	-0.181	-0.058
-504.712	-91.619	0.047	0.014
-503.697	800.000	0.026	-0.108
-502.683	-61.241	0.294	-0.126
-501.668	-200.000	-0.018	0.129
-500.653	-1.832	0.057	0.041
-499.639	800.000	0.043	0.160
-498.624	113.352	-0.074	-0.090
-497.610	198.352	-0.125	-0.193
-496.595	-200.000	0.043	0.194
-495.581	230.896	0.219	-0.363
-494.566	21.510	0.325	-0.268
-493.551	-42.318	0.135	-0.070
-492.537	643.611	0.057	-0.146
-491.522	-101.525	0.139	0.034
-490.508	-38.653	-0.113	-0.060
-489.493	-200.000	0.011	0.178
-488.478	354.298	0.091	-0.184
-487.464	-108.514	-0.255	0.056
-486.449	191.524	-0.161	0.246
-485.435	383.831	0.149	0.310
-484.420	35.896	0.102	0.091
-483.405	800.000	-0.027	-0.092
-482.391	15.354	-0.076	-0.060
-481.376	140.187	0.151	-0.201
-480.362	-67.870	-0.270	0.107
-479.347	-200.000	0.013	0.066
-478.332	271.384	0.099	0.176
-477.318	8.942	-0.196	-0.150
-476.303	-43.619	-0.183	0.093
-475.289	62.877	-0.043	-0.044
-474.274	206.592	-0.079	0.124
-473.259	-200.000	0.007	-0.157
-472.245	-200.000	-0.026	-0.180
-471.230	-200.000	0.045	-0.234
-470.216	-107.486	0.128	0.028
-469.201	-71.097	-0.143	-0.054
-468.186	256.282	0.132	-0.228
-467.172	20.865	-0.082	0.067
-466.157	-200.000	-0.034	-0.254
-465.143	800.000	0.158	-0.510
-464.128	-200.000	-0.043	0.390
-463.113	-200.000	-0.032	0.396
-462.099	18.245	0.042	0.034
-461.084	-200.000	-0.023	0.302
-460.070	800.000	0.056	0.235
-459.055	471.363	0.090	0.204
-458.040	47.715	0.146	-0.138
-457.026	800.000	-0.081	-0.236
-456.011	-200.000	0.001	-0.342
-454.997	117.727	0.103	-0.128
-453.982	-109.001	-0.360	-0.078
-452.968	-61.992	0.142	-0.060
-451.953	-68.706	0.245	-0.096
-450.938	-118.829	-0.147	-0.026
-449.924	593.913	0.101	0.253
-448.909	-44.918	0.143	0.072
-447.895	-200.000	0.001	0.314
-446.880	-114.410	-0.572	0.111
-445.865	-55.291	-0.401	-0.182
-444.851	463.429	0.096	0.217
-443.836	451.104	0.058	0.129
-442.822	-108.211	0.135	0.029
-441.807	-200.000	-0.088	0.611
-440.792	-82.871	0.053	0.017
-439.778	30.507	-0.101	-0.087
-438.763	800.000	0.112	-0.460
-437.749	50.888	0.123	0.118
-436.734	37.937	-0.266	-0.239
-435.719	-200.000	-0.093	-0.559
-434.705	-60.968	0.433	0.185
-433.690	-200.000	-0.012	0.191
-432.676	-200.000	-0.021	0.163
-431.661	43.766	-0.056	0.052
-430.646	-71.466	0.122	-0.046
-429.632	-102.535	0.215	-0.052
-428.617	-99.593	0.202	0.051
-427.603	-4.201	-0.114	-0.080
-426.588	-39.560	0.151	0.080
-425.573	-73.672	-0.075	0.028
-424.559	-200.000	0.001	0.131
-423.544	106.028	-0.387	-0.462
-422.530	-33.669	-0.086	-0.048
-421.515	-103.965	-0.071	-0.017
-420.500	-120.983	-0.042	-0.007
-419.486	6.729	-0.305	-0.229
-418.471	-131.318	0.029	0.004
-417.457	95.152	0.156	-0.179
-416.442	227.916	-0.027	0.044
-415.428	123.554	0.210	-0.266
-414.413	-200.000	0.039	0.381
-413.398	116.739	0.207	0.257
-412.384	-63.313	-0.049	-0.020
-411.369	-101.635	0.345	-0.085
-410.355	-200.000	-0.044	0.264
-409.340	502.979	-0.204	0.477
-408.325	-128.238	-0.210	-0.030
-407.311	102.948	-0.221	-0.262
-406.296	675.782	-0.050	0.131
-405.282	-126.846	0.424	-0.063
-404.267	-115.884	-0.217	-0.041
-403.252	-200.000	-0.020	0.104
-402.238	27.885	0.108	0.092
-401.223	-200.000	-0.025	0.118
-400.209	271.966	0.100	-0.179
-399.194	-58.897	0.277	-0.121
-398.179	-200.000	-0.026	0.582
-397.165	-89.532	-0.244	-0.072
-396.150	697.875	0.111	0.295
-395.136	-90.472	-0.062	-0.018
-394.121	-123.693	0.236	0.038
-393.106	-4.163	-0.235	-0.164
-392.092	-151.203	0.300	0.023
-391.077	-3.392	-0.308	-0.216
-390.063	79.602	-0.300	-0.325
-389.048	800.000	-0.084	-0.259
-388.033	346.467	-0.056	0.111
-387.019	271.895	0.104	-0.185
-386.004	-101.613	-0.035	0.009
-384.990	337.151	-0.106	-0.207
-383.975	-27.827	0.339	0.198
-382.960	-153.078	-0.119	0.008
-381.946	-61.032	-0.372	0.158
-380.931	-115.052	-0.147	0.028
-379.917	-57.934	0.233	-0.102
-378.902	-200.000	0.004	-0.255
-377.888	140.691	0.109	0.146
-376.873	800.000	0.049	0.146
-375.858	153.150	-0.238	0.328
-374.844	-153.194	-0.297	-0.021
-373.829	-95.818	0.217	0.058
-372.815	-92.766	0.356	0.100
-371.800	-104.393	0.089	-0.021
-370.785	-63.573	0.134	0.056
-369.771	297.882	0.082	0.151
-368.756	-83.554	-0.419	0.135
-367.742	-200.000	0.072	0.387
-366.727	-200.000	0.066	0.377
-365.712	-21.002	0.278	-0.171
-364.698	-74.698	0.184	0.067
-363.683	84.959	-0.062	0.069
-362.669	-200.000	-0.060	0.320
-361.654	547.938	-0.086	-0.208
-360.639	-200.000	0.036	-0.237
-359.625	-200.000	0.005	0.122
-358.610	153.399	0.166	0.229
-357.596	-81.685	-0.356	0.118
-356.581	645.306	0.067	-0.171
-355.566	-200.000	0.001	-0.117
-354.552	-17.288	0.103	-0.065
-353.537	-92.272	-0.194	0.055
-352.523	87.365	0.139	0.154
-351.508	516.023	-0.135	0.317
-350.493	537.502	0.063	0.150
-349.479	-75.624	-0.190	0.068
-348.464	-132.684	0.295	-0.038
-347.450	-193.811	-0.219	0.002
-346.435	-92.867	-0.366	-0.103
-345.420	-200.000	0.010	0.303
-344.406	-85.437	0.260	-0.082
-343.391	-70.427	-0.191	-0.073
-342.377	319.107	0.086	0.163
-341.362	-77.343	0.493	-0.172
-340.348	-90.233	0.216	0.063
-339.333	-200.000	-0.001	-0.273
-338.318	67.540	0.158	-0.163
-337.304	-200.000	0.040	0.278
-336.289	61.677	-0.215	-0.215
-335.275	61.201	-0.121	-0.121
-334.260	800.000	-0.043	-0.183
-333.245	-200.000	-0.009	-0.173
-332.231	193.085	0.276	0.420
-331.216	-35.370	0.166	0.091
-330.202	65.176	-0.066	-0.067
-329.187	145.681	-0.051	-0.068
-328.172	-200.000	-0.010	0.129
-327.158	96.217	0.093	-0.107
-326.143	-114.585	-0.192	0.037
-325.129	45.538	0.179	0.166
-324.114	126.957	-0.049	-0.063
-323.099	800.000	-0.032	0.140
-322.085	459.234	0.085	-0.191
-321.070	669.188	0.051	0.132
-320.056	-200.000	0.004	0.246
-319.041	-95.234	-0.052	0.014
-318.026	64.034	0.254	0.257
-317.012	-200.000	-0.052	-0.242
-315.997	-13.986	-0.103	-0.067
-314.983	-200.000	0.023	-0.112
-313.968	545.863	-0.023	-0.055
-312.953	800.000	-0.118	-0.438
-311.939	-122.538	-0.450	0.073
-310.924	-200.000	0.007	-0.058
-309.910	-200.000	-0.012	0.074
-308.895	-20.648	0.290	-0.179
-307.880	10.304	-0.140	-0.107
-306.866	-140.268	-0.398	-0.042
-305.851	-27.209	-0.220	0.129
-304.837	-71.445	0.117	0.044
-303.822	20.258	-0.128	0.104
-302.807	-154.777	0.155	0.010
-301.793	130.715	0.356	0.459
-300.778	-135.095	0.107	-0.013
-299.764	800.000	0.069	-0.195
-298.749	426.088	-0.040	0.087
-297.735	-200.000	0.005	-0.316
-296.720	-79.728	-0.131	0.044
-295.705	307.169	0.238	0.445
-294.691	58.399	0.150	0.148
-293.676	17.905	-0.231	-0.185
-292.662	-51.128	-0.204	0.096
-291.647	-200.000	0.040	-0.372
-290.632	229.641	-0.179	0.294
-289.618	-122.666	0.154	0.025
-288.603	-200.000	-0.038	0.258
-287.589	106.934	-0.275	-0.328
-286.574	-106.754	0.065	0.014
-285.559	-200.000	0.026	-0.331
-284.545	136.507	0.176	-0.230
-283.530	-200.000	-0.025	0.126
-282.516	-200.000	0.054	-0.240
-281.501	-63.978	-0.215	0.088
-280.486	-60.273	-0.162	-0.069
-279.472	-200.000	0.051	-0.241
-278.457	108.297	0.260	0.312
-277.443	-200.000	-0.001	-0.087
-276.428	20.337	0.136	0.111
-275.413	109.580	-0.158	0.189
-274.399	-95.223	0.078	-0.021
-273.384	230.738	0.111	-0.183
-272.370	-200.000	0.001	0.124
-271.355	-52.563	-0.173	0.080
-270.340	644.103	0.075	-0.193
-269.326	-5.438	-0.278	0.192
-268.311	350.664	-0.150	0.298
-267.297	800.000	0.198	0.682
-266.282	14.853	0.175	0.137
-265.267	-143.017	0.089	0.009
-264.253	-97.357	0.189	-0.049
-263.238	-49.692	0.350	0.167
-262.224	11.869	0.244	-0.188
-261.209	-35.134	0.071	-0.039
-260.195	147.779	0.078	0.105
-259.180	-46.188	0.209	0.103
-258.165	-121.675	0.391	-0.065
-257.151	-200.000	-0.013	0.317
-256.136	27.638	0.195	-0.165
-255.122	60.970	0.112	0.112
-254.107	-112.415	-0.247	-0.050
-253.092	192.651	-0.210	0.319
-252.078	-200.000	-0.050	0.342
-251.063	19.951	0.137	-0.111
-250.049	65.891	-0.023	0.024
-249.034	-200.000	-0.008	0.227
-248.019	70.258	0.229	0.237
-247.005	800.000	0.094	0.272
-245.990	358.691	0.140	-0.281
-244.976	-90.122	-0.155	-0.045
-243.961	-109.037	0.118	0.025
-242.946	585.700	0.056	-0.139
-241.932	-40.101	0.241	0.126
-240.917	-181.141	0.163	0.003
-239.903	107.612	0.175	0.208
-238.888	-154.212	-0.171	-0.012
-237.873	-107.347	-0.043	0.010
-236.859	-30.203	0.109	-0.062
-235.844	-63.465	0.161	0.066
-234.830	-138.213	-0.190	-0.021
-233.815	-118.643	0.296	0.052
-232.800	63.931	-0.088	0.088
-231.786	-119.899	-0.551	0.095
-230.771	-200.000	0.037	0.191
-229.757	160.416	0.187	0.261
-228.742	-88.264	0.172	-0.052
-227.727	228.075	0.064	-0.104
-226.713	71.167	-0.093	-0.097
-225.698	-200.000	0.015	-0.083
-224.684	800.000	-0.037	-0.112
-223.669	60.658	0.158	-0.157
-222.655	-88.196	0.243	0.073
-221.640	117.076	-0.108	-0.133
-220.625	-200.000	0.039	0.314
-219.611	-79.197	-0.134	0.046
-218.596	231.778	0.017	-0.029
-217.582	22.740	0.153	-0.125
-216.567	-150.906	-0.290	-0.022
-215.552	-31.057	0.094	0.053
-214.538	94.471	-0.068	0.078
-213.523	-100.762	-0.155	0.038
-212.509	-74.143	0.285	-0.103
-211.494	710.660	0.078	-0.206
-210.479	247.592	0.126	-0.214
-209.465	-128.901	0.162	0.023
-208.450	-145.971	-0.069	0.006
-207.436	341.274	0.071	-0.138
-206.421	-200.000	-0.027	-0.698
-205.406	-18.924	0.198	-0.123
-204.392	-119.314	0.433	-0.076
-203.377	-148.711	-0.234	0.019
-202.363	-142.160	0.510	0.051
-201.348	-11.663	0.200	-0.131
-200.333	121.037	-0.046	0.058
-199.319	-200.000	0.015	0.211
-198.304	118.905	0.058	0.072
-197.290	145.652	0.096	-0.129
-196.275	29.134	0.219	0.186
-195.260	-79.056	-0.026	-0.009
-194.246	85.141	0.098	0.108
-193.231	36.298	-0.300	0.265
-192.217	-200.000	0.006	0.126
-191.202	-79.694	-0.135	-0.045
-190.187	-200.000	-0.015	-0.202
-189.173	-106.055	0.138	-0.031
-188.158	173.794	0.065	0.093
-187.144	-28.654	-0.121	-0.070
-186.129	41.227	-0.204	0.184
-185.114	431.312	-0.095	-0.205
-184.100	-200.000	-0.005	-0.281
-183.085	334.018	-0.146	-0.282
-182.071	-172.632	-0.231	0.007
-181.056	408.465	-0.046	-0.097
-180.042	189.006	0.046	-0.069
-179.027	116.655	-0.152	0.187
-178.012	392.201	0.059	0.122
-176.998	-200.000	-0.115	0.556
-175.983	-200.000	-0.016	-0.084
-174.969	45.851	-0.228	0.211
-173.954	124.715	-0.094	-0.119
-172.939	332.481	-0.058	-0.113
-171.925	86.777	0.132	-0.146
-170.910	414.849	-0.060	-0.129
-169.896	15.814	-0.370	-0.291
-168.881	299.639	0.041	0.076
-167.866	47.734	-0.048	-0.045
-166.852	-128.479	-0.199	0.028
-165.837	-200.000	0.063	0.293
-164.823	-44.473	-0.110	0.055
-163.808	-111.376	-0.250	-0.051
-162.793	-106.849	-0.397	-0.088
-161.779	-160.941	-0.257	-0.014
-160.764	-118.171	-0.312	-0.056
-159.750	156.835	-0.126	0.173
-158.735	-41.923	-0.160	-0.082
-157.720	-55.431	-0.078	0.035
-156.706	178.738	0.133	0.195
-155.691	237.472	0.202	-0.334
-154.677	-61.086	-0.243	0.102
-153.662	800.000	-0.085	0.284
-152.647	-112.546	0.265	-0.053
-151.633	800.000	-0.047	-0.149
-150.618	-200.000	0.008	0.094
-149.604	-27.375	0.091	0.053
-148.589	-51.570	-0.239	-0.112
-147.574	-200.000	-0.021	-0.456
-146.560	-84.009	-0.192	-0.061
-145.545	-94.111	-0.180	0.049
-144.531	-117.314	0.358	0.065
-143.516	-11.301	-0.134	0.088
-142.502	59.973	-0.126	-0.124
-141.487	-200.000	0.022	0.300
-140.472	126.637	0.139	-0.176
-139.458	-48.412	-0.302	0.145
-138.443	156.249	-0.109	-0.151
-137.429	800.000	0.076	0.250
-136.414	184.879	0.025	-0.037
-135.399	29.910	0.246	0.210
-134.385	-200.000	-0.045	0.227
-133.370	262.296	-0.094	-0.163
-132.356	-200.000	0.011	-0.159
-131.341	-52.983	-0.116	0.053
-130.326	702.735	0.087	0.229
-129.312	461.200	0.130	0.289
-128.297	153.086	-0.149	-0.203
-127.283	-93.474	0.268	-0.074
-126.268	716.037	-0.065	0.172
-125.253	800.000	0.045	0.182
-124.239	112.778	0.214	0.259
-123.224	800.000	0.146	-0.420
-122.210	-90.999	-0.111	0.032
-121.195	272.282	-0.094	-0.166
-120.180	-141.944	-0.248	-0.025
-119.166	-200.000	0.022	0.361
-118.151	99.453	-0.232	-0.268
-117.137	420.571	0.031	0.067
-116.122	-165.242	0.335	0.015
-115.107	-35.167	-0.134	-0.073
-114.093	85.359	0.192	0.211
-113.078	70.901	0.007	-0.007
-112.064	294.521	-0.207	-0.378
-111.049	-48.806	0.247	0.118
-110.034	448.075	0.060	-0.131
-109.020	589.101	-0.114	-0.280
-108.005	401.353	0.120	0.252
-106.991	-103.687	-0.131	0.031
-105.976	550.044	-0.051	-0.123
-104.962	800.000	-0.010	-0.040
-103.947	222.260	0.144	-0.231
-102.932	800.000	-0.063	0.234
-101.918	-147.374	0.103	0.009
-100.903	62.976	-0.210	0.210
-99.889	-75.173	-0.029	-0.010
-98.874	-65.763	0.223	-0.089
-97.859	-87.104	-0.301	0.091
-96.845	216.014	0.211	-0.334
-95.830	-71.831	-0.065	-0.024
-94.816	10.998	-0.234	-0.178
-93.801	800.000	0.101	-0.279
-92.786	-138.699	0.392	0.043
-91.772	-67.984	-0.163	-0.064
-90.757	-93.890	0.108	-0.030
-89.743	29.833	0.321	0.272
-88.728	40.681	-0.156	-0.140
-87.713	-200.000	-0.011	0.055
-86.699	-200.000	-0.089	0.427
-85.684	81.117	-0.245	0.264
-84.670	64.860	-0.038	-0.038
-83.655	800.000	-0.123	-0.400
-82.640	696.656	-0.081	-0.213
-81.626	164.846	0.158	-0.222
-80.611	-200.000	-0.000	-0.214
-79.597	-55.215	0.326	0.146
-78.582	-89.443	0.171	-0.050
-77.567	164.935	-0.303	-0.427
-76.553	24.827	0.128	0.106
-75.538	800.000	-0.073	0.310
-74.524	412.942	0.025	-0.054
-73.509	84.029	0.149	-0.162
-72.494	-101.831	-0.310	0.075
-71.480	-68.303	-0.238	-0.092
-70.465	-67.459	0.102	0.040
-69.451	-122.673	-0.212	0.034
-68.436	-38.586	-0.308	-0.162
-67.422	479.441	0.207	0.466
-66.407	-144.504	-0.229	-0.021
-65.392	-29.132	-0.277	-0.158
-64.378	-200.000	-0.082	-0.402
-63.363	53.851	0.129	-0.123
-62.349	800.000	0.030	-0.119
-61.334	229.468	-0.537	-0.872
-60.319	301.634	0.274	0.504
-59.305	-200.000	-0.070	-0.543
-58.290	-200.000	0.259	1.174
-57.276	364.792	0.703	1.408
-56.261	-200.000	84.320	495.161
-55.246	517.416	1391.237	3238.933
-54.232	180.050	2619.891	3822.470
-53.217	117.397	2250.593	2754.587
-52.203	48.709	1692.227	1579.207
-51.188	41.349	1420.345	1278.466
-50.173	37.992	1376.510	1218.045
-49.159	56.586	1417.343	1372.143
-48.144	61.145	1436.301	1419.271
-47.130	41.833	1395.103	1258.588
-46.115	38.169	1377.701	1220.009
-45.100	37.828	1373.387	1214.017
-44.086	37.820	1370.443	1211.316
-43.071	37.722	1368.209	1208.690
-42.057	37.983	1365.141	1207.542
-41.042	37.814	1364.310	1205.717
-40.027	37.904	1362.657	1204.766
-39.013	37.841	1360.988	1202.853
-37.998	37.920	1358.860	1201.410
-36.984	38.058	1356.892	1200.472
-35.969	37.979	1355.367	1198.590
-34.954	37.974	1353.627	1196.974
-33.940	38.055	1352.165	1196.129
-32.925	38.133	1350.245	1194.862
-31.911	38.147	1348.964	1193.768
-30.896	38.019	1347.684	1191.805
-29.881	38.093	1346.386	1191.059
-28.867	38.091	1344.686	1189.498
-27.852	38.117	1343.013	1188.130
-26.838	38.041	1341.982	1186.703
-25.823	38.029	1340.861	1185.597
-24.809	38.165	1338.830	1184.578
-23.794	38.207	1337.256	1183.394
-22.779	37.976	1336.926	1181.652
-21.765	38.115	1334.995	1180.739
-20.750	38.133	1333.519	1179.494
-19.736	38.115	1332.104	1178.087
-18.721	37.960	1330.880	1176.028
-17.706	37.914	1329.787	1174.736
-16.692	37.951	1328.646	1173.903
-15.677	37.935	1327.465	1172.720
-14.663	37.923	1326.442	1171.697
-13.648	37.918	1325.274	1170.590
-12.633	37.892	1324.172	1169.409
-11.619	37.984	1323.247	1169.101
-10.604	37.987	1322.367	1168.292
-9.590	37.834	1321.526	1166.586
-8.575	37.935	1320.573	1166.305
-7.560	37.937	1320.007	1165.770
-6.546	37.920	1318.359	1164.167
-5.531	37.951	1317.498	1163.548
-4.517	37.835	1317.005	1162.371
-3.502	37.934	1316.082	1162.103
-2.487	38.015	1314.902	1161.494
-1.473	37.860	1311.581	1157.600
-0.458	36.849	1295.469	1137.398
0.556	33.740	1274.698	1093.582
1.571	29.423	1278.097	1071.396
2.586	27.848	1292.636	1074.233
3.600	26.212	1279.623	1053.785
4.615	19.426	1202.618	952.932
5.629	9.550	1121.599	837.531
6.644	4.877	1098.598	796.439
7.659	4.680	1095.572	793.172
8.673	4.655	1094.996	792.554
9.688	4.838	1093.122	792.057
10.702	4.925	1092.064	791.667
11.717	10.323	1100.248	825.093
12.731	18.874	1112.244	877.877
13.746	21.427	1114.621	892.727
14.761	20.043	1111.891	883.410
15.775	18.893	1110.204	876.136
16.790	17.889	1107.793	869.046
17.804	17.160	1105.947	863.812
18.819	16.795	1104.829	861.010
19.834	16.471	1104.206	858.802
20.848	16.285	1102.915	856.780
21.863	16.091	1102.335	855.269
22.877	15.961	1101.901	854.196
23.892	15.949	1101.083	853.422
24.907	16.023	1099.932	852.830
25.921	16.061	1098.763	852.041
26.936	15.966	1097.457	850.476
27.950	16.045	1096.187	849.815
28.965	16.178	1094.476	849.082
29.980	16.260	1093.200	848.431
30.994	16.322	1091.843	847.611
32.009	16.289	1090.647	846.442
33.023	16.251	1089.686	845.432
34.038	16.177	1088.885	844.366
35.053	16.233	1087.681	843.634
36.067	16.131	1086.896	842.444
37.082	16.023	1086.554	841.566
38.096	16.213	1085.779	841.836
39.111	16.401	1084.529	841.729
40.126	16.206	1082.905	839.425
41.140	15.852	1082.146	837.001
42.155	15.829	1080.686	835.688
43.169	15.785	1079.480	834.463
44.184	15.771	1078.162	833.298
45.199	15.935	1077.148	833.253
46.213	16.009	1076.088	832.723
47.228	16.084	1075.539	832.600
48.242	15.971	1074.503	831.162
49.257	16.138	1072.942	830.708
50.271	16.024	1072.473	829.708
51.286	16.118	1071.704	829.503
52.301	16.185	1070.218	828.606
53.315	16.031	1069.631	827.324
54.330	15.995	1068.238	825.997
55.344	15.907	1067.347	824.802
56.359	15.972	1066.341	824.272
57.374	15.984	1065.035	823.247
58.388	15.736	1064.641	821.660
59.403	15.697	1063.774	820.726
60.417	15.786	1063.089	820.560
61.432	15.816	1061.819	819.651
62.447	15.712	1061.252	818.634
63.461	15.677	1060.671	817.943
64.476	15.647	1059.731	817.004
65.490	15.721	1058.528	816.362
66.505	15.772	1058.043	816.161
67.520	15.807	1057.502	815.845
68.534	15.664	1056.884	814.600
69.549	15.828	1055.582	814.320
70.563	15.761	1054.843	813.353
71.578	15.722	1053.970	812.419
72.593	15.508	1053.414	810.888
73.607	15.613	1052.579	810.679
74.622	15.626	1051.941	810.178
75.636	15.608	1051.352	809.566
76.651	15.667	1050.542	809.152
77.666	15.655	1049.927	808.552
78.680	15.670	1049.466	808.198
79.695	15.742	1048.601	807.806
80.709	15.864	1048.156	807.978
81.724	15.836	1047.197	807.033
82.739	15.933	1046.809	807.124
83.753	16.142	1045.678	807.180
84.768	16.108	1045.578	806.870
85.782	16.304	1043.927	806.460
86.797	16.265	1043.220	805.658
87.812	16.063	1042.348	803.952
88.826	16.191	1041.119	803.539
89.841	16.169	1040.285	802.721
90.855	16.289	1039.563	802.662
91.870	16.279	1038.724	801.897
92.884	16.203	1037.799	800.751
93.899	16.254	1036.697	800.074
94.914	16.411	1035.699	799.974
95.928	16.232	1035.158	798.640
96.943	16.244	1034.342	797.996
97.957	16.148	1033.404	796.750
98.972	16.109	1032.767	796.004
99.987	16.267	1031.584	795.765
101.001	16.134	1030.997	794.618
102.016	16.095	1029.644	793.318
103.030	16.209	1028.642	793.010
104.045	16.133	1028.053	792.131
105.060	16.232	1026.913	791.647
106.074	15.970	1025.825	789.510
107.089	15.844	1025.299	788.448
108.103	15.933	1023.703	787.564
109.118	15.882	1023.000	786.718
110.133	15.777	1021.955	785.351
111.147	15.796	1021.255	784.832
112.162	15.917	1020.384	784.660
113.176	15.865	1019.870	783.954
114.191	16.016	1018.668	783.661
115.206	15.863	1018.457	782.718
116.220	15.815	1017.350	781.576
117.235	15.948	1016.331	781.340
118.249	15.940	1015.464	780.570
119.264	15.861	1014.773	779.599
120.279	15.817	1013.877	778.640
121.293	15.858	1012.969	778.063
122.308	15.856	1011.839	777.119
123.322	15.720	1011.024	775.794
124.337	15.770	1009.805	775.022
125.352	15.782	1008.952	774.356
126.366	15.635	1008.010	772.885
127.381	15.751	1006.798	772.423
128.395	15.724	1006.307	771.853
129.410	15.767	1004.986	770.970
130.424	15.913	1004.248	771.004
131.439	16.105	1003.476	771.221
132.454	16.000	1002.739	770.104
133.468	16.000	1002.153	769.589
134.483	16.066	1001.191	769.081
135.497	16.024	1000.201	768.061
136.512	16.035	999.222	767.291
137.527	15.954	999.008	766.691
138.541	16.170	997.593	766.518
139.556	16.118	997.327	766.009
140.570	16.265	996.560	766.019
141.585	16.273	995.764	765.379
142.600	16.320	994.799	764.781
143.614	16.344	994.224	764.379
144.629	16.445	993.357	764.104
145.643	16.357	992.156	762.716
146.658	16.171	991.078	760.979
147.673	16.267	989.742	760.318
148.687	16.114	989.173	759.127
149.702	16.141	988.091	758.350
150.716	15.971	987.761	757.262
151.731	16.058	986.993	756.997
152.746	16.120	985.838	756.326
153.760	16.103	985.487	755.911
154.775	16.243	984.825	755.963
155.789	16.241	984.052	755.294
156.804	16.257	983.367	754.773
157.819	16.397	982.558	754.711
158.833	16.326	982.575	754.342
159.848	16.441	981.586	754.027
160.862	16.291	980.258	752.271
161.877	16.194	978.934	750.760
162.892	16.142	977.773	749.571
163.906	16.211	977.230	749.394
164.921	16.033	976.586	748.042
165.935	16.113	975.729	747.676
166.950	16.362	974.154	747.507
167.964	16.329	973.891	747.090
168.979	16.152	972.840	745.436
169.994	16.163	971.654	744.511
171.008	16.285	971.193	744.631
172.023	16.312	970.765	744.354
173.037	16.401	970.065	744.146
174.052	16.353	969.105	743.130
175.067	16.228	968.282	741.887
176.081	16.182	968.347	741.666
177.096	16.050	967.952	740.720
178.110	16.339	966.375	740.712
179.125	16.351	965.953	740.376
180.140	16.249	965.722	739.690
181.154	16.395	965.400	740.015
182.169	16.488	965.060	740.096
183.183	16.634	964.038	739.885
184.198	16.585	963.202	738.964
185.213	16.429	962.573	737.734
186.227	16.515	961.831	737.478
187.242	16.497	961.602	737.159
188.256	16.664	960.681	737.113
189.271	16.577	959.821	736.011
190.286	16.442	958.861	734.621
191.300	16.087	958.456	732.704
192.315	16.089	957.427	731.861
193.329	16.132	956.658	731.394
194.344	16.415	955.593	731.743
195.359	16.473	955.223	731.643
196.373	16.630	954.660	731.827
197.388	16.657	954.617	731.847
198.402	16.788	953.792	731.714
199.417	16.871	953.049	731.439
200.432	16.784	953.165	731.087
201.446	16.899	952.676	731.144
202.461	16.946	952.198	730.914
203.475	16.890	951.440	730.028
204.490	16.789	950.180	728.563
205.504	16.577	949.656	727.183
206.519	16.662	948.700	726.755
207.534	16.625	947.932	725.942
208.548	16.803	946.741	725.728
209.563	16.765	946.590	725.386
210.577	16.825	945.666	724.868
211.592	17.047	944.874	725.145
212.607	17.027	944.534	724.738
213.621	16.900	943.636	723.440
214.636	16.926	943.025	723.019
215.650	16.837	942.350	722.058
216.665	17.044	941.409	722.154
217.680	17.025	941.054	721.739
218.694	17.116	940.362	721.530
219.709	17.023	939.738	720.593
220.723	17.098	938.865	720.176
221.738	17.108	938.017	719.505
222.753	17.027	937.383	718.611
223.767	17.000	937.121	718.234
224.782	17.154	936.354	718.232
225.796	17.171	935.832	717.839
226.811	17.068	935.029	716.728
227.826	17.036	934.323	715.988
228.840	17.001	933.384	715.058
229.855	17.028	932.858	714.704
230.869	17.065	932.060	714.187
231.884	16.961	931.356	713.145
232.899	16.963	930.472	712.414
233.913	16.915	930.069	711.843
234.928	16.970	929.020	711.206
235.942	16.909	928.708	710.649
236.957	17.062	927.780	710.516
237.972	16.997	927.523	709.986
238.986	17.082	926.506	709.497
240.001	17.034	926.075	708.906
241.015	16.967	925.602	708.203
242.030	17.062	924.930	708.020
243.045	17.091	924.151	707.483
244.059	17.111	923.755	707.200
245.074	17.179	923.047	706.876
246.088	17.332	922.290	706.871
247.103	17.271	921.558	705.994
248.117	17.434	920.847	706.064
249.132	17.579	920.495	706.333
250.147	17.786	919.816	706.609
251.161	17.624	919.809	705.870
252.176	17.668	919.147	705.481
253.190	17.749	918.290	705.093
254.205	17.784	917.711	704.731
255.220	17.838	916.628	704.059
256.234	17.660	916.353	703.052
257.249	17.727	915.568	702.665
258.263	17.787	914.429	701.976
259.278	17.820	914.076	701.778
260.293	17.652	914.061	701.014
261.307	17.896	912.796	700.985
262.322	17.861	912.191	700.315
263.336	17.970	911.111	699.868
264.351	18.136	910.399	699.939
265.366	17.963	909.458	698.445
266.380	17.989	909.584	698.590
267.395	17.886	909.007	697.660
268.409	17.878	907.801	696.643
269.424	17.867	907.138	696.027
270.439	17.843	906.546	695.415
271.453	17.873	905.700	694.825
272.468	17.848	904.963	694.096
273.482	17.753	904.699	693.447
274.497	17.855	903.809	693.117
275.512	17.872	903.470	692.864
276.526	17.916	902.976	692.604
277.541	17.968	902.480	692.373
278.555	17.825	902.269	691.570
279.570	18.020	901.332	691.579
280.585	17.986	900.450	690.705
281.599	17.853	899.986	689.750
282.614	17.903	899.350	689.403
283.628	17.876	898.350	688.466
284.643	17.958	897.636	688.189
285.657	18.006	896.802	687.680
286.672	18.098	896.353	687.648
287.687	18.004	895.426	686.498
288.701	17.980	895.581	686.459
289.716	18.099	894.547	686.084
290.730	18.190	893.986	685.957
291.745	18.286	893.291	685.747
292.760	18.206	893.027	685.164
293.774	18.306	892.486	685.086
294.789	18.271	891.492	684.123
295.803	18.096	890.905	682.914
296.818	18.028	890.197	682.040
297.833	18.010	889.876	681.662
298.847	18.082	889.140	681.325
299.862	18.206	888.440	681.221
300.876	18.330	887.941	681.271
301.891	18.235	887.900	680.802
302.906	18.399	886.893	680.623
303.920	18.477	886.247	680.377
304.935	18.540	885.733	680.172
305.949	18.494	885.002	679.368
306.964	18.235	884.726	678.068
307.979	18.213	884.114	677.453
308.993	18.420	883.616	677.830
310.008	18.523	882.824	677.570
311.022	18.552	882.039	677.020
312.037	18.344	881.393	675.646
313.052	18.427	880.388	675.140
314.066	18.248	880.339	674.338
315.081	18.183	879.748	673.572
316.095	18.198	879.207	673.159
317.110	18.327	878.378	672.969
318.125	18.345	877.619	672.399
319.139	18.272	877.515	671.974
320.154	18.392	877.016	672.002
321.168	18.425	876.521	671.693
322.183	18.467	875.720	671.185
323.197	18.464	875.499	670.946
324.212	18.325	874.847	669.843
325.227	18.422	874.375	669.801
326.241	18.463	873.277	669.058
327.256	18.302	873.074	668.218
328.270	18.318	872.260	667.595
329.285	18.277	871.924	667.122
330.300	18.471	871.191	667.258
331.314	18.472	870.561	666.718
332.329	18.664	869.988	666.967
333.343	18.617	869.740	666.537
334.358	18.608	869.433	666.207
335.373	18.486	869.202	665.498
336.387	18.668	868.324	665.472
337.402	18.574	868.416	665.120
338.416	18.897	868.111	666.077
339.431	18.856	867.980	665.758
340.446	18.894	867.441	665.436
341.460	18.881	866.924	664.930
342.475	18.990	866.336	664.838
343.489	19.008	866.132	664.696
344.504	19.038	865.383	664.176
345.519	19.149	865.016	664.263
346.533	19.164	864.414	663.802
347.548	18.943	863.867	662.471
348.562	18.979	862.956	661.851
349.577	18.826	862.504	660.858
350.592	18.866	861.564	660.234
351.606	18.836	861.214	659.790
352.621	18.831	860.537	659.195
353.635	18.970	859.955	659.223
354.650	18.825	859.173	658.010
355.665	18.936	858.277	657.691
356.679	19.032	857.929	657.734
357.694	18.933	857.184	656.727
358.708	19.074	856.249	656.490
359.723	18.925	856.389	655.968
360.738	19.110	855.142	655.662
361.752	18.937	855.130	654.934
362.767	19.156	854.404	655.156
363.781	19.210	853.878	654.897
364.796	19.340	853.466	655.017
365.810	19.313	853.178	654.638
366.825	19.445	852.582	654.624
367.840	19.379	852.276	654.078
368.854	19.264	851.788	653.212
369.869	19.163	851.311	652.406
370.883	19.322	850.899	652.634
371.898	19.464	850.237	652.604
372.913	19.365	850.020	652.006
373.927	19.533	849.188	651.947
374.942	19.463	848.916	651.415
375.956	19.501	848.330	651.050
376.971	19.435	848.145	650.600
377.986	19.599	847.831	650.920
379.000	19.665	847.350	650.742
380.015	19.789	846.164	650.240
381.029	19.609	846.002	649.384
382.044	19.527	845.573	648.689
383.059	19.710	844.902	648.802
384.073	19.615	844.058	647.741
385.088	19.571	843.545	647.124
386.102	19.423	843.368	646.376
387.117	19.579	842.433	646.186
388.132	19.416	841.762	645.004
389.146	19.488	841.075	644.691
390.161	19.455	840.767	644.273
391.175	19.569	840.678	644.575
392.190	19.581	839.831	643.914
393.205	19.465	839.197	642.940
394.219	19.612	838.945	643.237
395.234	19.450	838.583	642.297
396.248	19.343	837.885	641.309
397.263	19.432	837.326	641.157
398.278	19.363	837.294	640.818
399.292	19.409	836.637	640.429
400.307	19.358	836.012	639.702
401.321	19.499	835.471	639.757
402.336	19.718	834.595	639.839
403.350	19.608	834.675	639.437
404.365	19.831	834.145	639.800
405.380	19.765	833.936	639.338
406.394	19.911	833.126	639.199
407.409	19.840	833.112	638.870
408.423	20.036	832.549	639.107
409.438	20.026	832.140	638.699
410.453	20.004	832.087	638.521
411.467	20.108	831.428	638.342
412.482	19.962	831.264	637.621
413.496	20.222	830.856	638.209
414.511	20.067	830.392	637.226
415.526	19.982	830.084	636.619
416.540	19.944	829.545	636.012
417.555	20.029	828.834	635.723
418.569	20.116	828.285	635.562
419.584	20.108	827.691	635.022
420.599	20.209	827.326	635.055
421.613	151.937	1369.325	1775.206
422.628	132.499	1448.318	1775.313
