DTS Sentinel unit serial number:	SN413079Multiplexer serial number:	ORYXHardware model number:	OX4-SRSoftware version number:	ORYX F/W v4.00 Oryx Data Collector v3.7.2.0data status	okinstallation	princeton_trtdifferential loss correction	single-endedforward channel	channel 1reverse channel	N/Adate	2019/09/10time	21:36:11forward acquisition time	60.00reverse acquisition time	0.00gamma	496.2192k internal	0.2330k external	0.2330temperature offset calibration	0.9941default loss term (dB/km)	0.3790temperature slope calibration	1.0000multiplexer offset coefficient	1.0000multiplexer slope coefficient	1.0000fibre end	0.00T internal ref (°C)	31.02T ext. ref 1 (°C)	-0.30T ext. ref 2 (°C)	24.33length (m)	temperature (°C)	Stokes	anti-Stokes-747.200	-44.223	0.077	0.039
-746.185	-200.000	-0.002	-0.294
-745.171	-200.000	0.007	-0.159
-744.156	-39.903	0.127	-0.067
-743.142	50.820	0.182	0.174
-742.127	424.364	0.085	-0.183
-741.112	65.312	0.180	0.183
-740.098	-97.335	-0.314	-0.082
-739.083	-124.846	0.315	-0.049
-738.069	-139.524	0.257	0.028
-737.054	33.054	-0.142	-0.124
-736.039	800.000	-0.051	-0.186
-735.025	-200.000	-0.023	0.218
-734.010	-123.818	-0.558	0.089
-732.996	-29.814	-0.219	-0.126
-731.981	-138.906	0.144	0.016
-730.966	-200.000	-0.032	-0.142
-729.952	61.810	0.112	-0.112
-728.937	5.026	-0.138	-0.102
-727.923	672.376	-0.044	-0.115
-726.908	800.000	-0.034	-0.123
-725.894	5.986	-0.183	-0.137
-724.879	-50.721	0.276	-0.131
-723.864	82.422	-0.097	-0.106
-722.850	-89.897	-0.164	0.048
-721.835	16.953	0.124	-0.099
-720.821	-124.110	0.022	-0.003
-719.806	-32.086	-0.391	-0.220
-718.791	110.502	-0.138	-0.166
-717.777	-105.548	-0.516	0.118
-716.762	273.109	-0.184	0.327
-715.748	600.209	0.067	0.166
-714.733	-46.845	0.190	0.093
-713.718	-200.000	0.000	-0.021
-712.704	43.168	-0.190	0.174
-711.689	18.446	-0.273	0.220
-710.675	-200.000	0.011	-0.148
-709.660	-123.419	0.202	-0.032
-708.645	-200.000	0.029	-0.328
-707.631	385.818	0.057	-0.118
-706.616	-200.000	0.060	0.277
-705.602	-34.850	-0.225	-0.124
-704.587	-104.798	0.172	-0.040
-703.572	800.000	-0.057	-0.170
-702.558	645.222	0.080	0.205
-701.543	-141.283	0.154	0.016
-700.529	-200.000	-0.038	0.252
-699.514	-72.330	-0.327	-0.122
-698.499	44.659	-0.076	0.070
-697.485	-134.339	-0.296	0.037
-696.470	-200.000	-0.006	-0.113
-695.456	192.560	-0.059	0.089
-694.441	-74.842	-0.166	0.060
-693.426	217.157	-0.243	0.389
-692.412	-131.094	-0.211	0.028
-691.397	800.000	-0.102	0.331
-690.383	120.597	0.164	-0.204
-689.368	275.866	-0.113	0.201
-688.354	137.472	0.190	-0.250
-687.339	-200.000	0.006	0.230
-686.324	36.040	0.195	0.173
-685.310	156.007	-0.211	-0.292
-684.295	-151.925	-0.215	0.016
-683.281	43.994	0.049	0.045
-682.266	548.557	-0.128	-0.309
-681.251	-200.000	0.002	-0.046
-680.237	180.044	0.096	0.142
-679.222	-55.714	-0.371	-0.167
-678.208	-105.227	-0.283	0.065
-677.193	54.198	0.244	0.235
-676.178	-126.686	-0.231	0.034
-675.164	22.774	-0.172	-0.142
-674.149	351.002	0.058	-0.115
-673.135	137.373	0.049	0.065
-672.120	45.392	0.156	-0.144
-671.105	49.959	-0.210	0.199
-670.091	-121.537	0.207	-0.035
-669.076	-200.000	-0.019	-0.083
-668.062	539.722	-0.102	-0.243
-667.047	134.693	-0.181	-0.236
-666.032	800.000	0.071	-0.279
-665.018	-101.208	-0.208	0.051
-664.003	-67.516	0.012	0.005
-662.989	41.922	0.183	0.166
-661.974	-112.413	0.067	0.014
-660.959	-79.822	0.216	0.073
-659.945	292.276	0.238	-0.435
-658.930	16.949	-0.347	-0.276
-657.916	121.954	0.148	0.186
-656.901	-37.989	-0.349	-0.186
-655.886	242.754	-0.049	-0.083
-654.872	-200.000	-0.274	0.001
-653.857	-36.390	0.516	0.279
-652.843	79.563	-0.248	-0.267
-651.828	151.451	0.188	-0.256
-650.814	256.583	0.138	0.237
-649.799	105.583	0.141	-0.168
-648.784	-144.664	0.226	-0.021
-647.770	70.580	-0.210	0.218
-646.755	-200.000	0.015	0.435
-645.741	97.100	-0.294	0.338
-644.726	165.190	-0.149	-0.211
-643.711	-84.966	0.305	0.096
-642.697	130.543	0.099	-0.128
-641.682	-87.905	0.380	-0.115
-640.668	-72.869	0.155	0.057
-639.653	365.853	-0.099	0.200
-638.638	-200.000	0.015	-0.210
-637.624	94.359	0.180	-0.205
-636.609	-200.000	-0.001	-0.075
-635.595	183.037	-0.046	-0.069
-634.580	-200.000	0.032	-0.228
-633.565	-53.812	-0.360	0.165
-632.551	-85.218	-0.210	-0.066
-631.536	-31.297	0.166	0.094
-630.522	-96.115	0.154	-0.041
-629.507	-82.751	-0.175	-0.057
-628.492	197.264	0.142	-0.217
-627.478	226.170	-0.052	-0.085
-626.463	-54.511	-0.244	0.111
-625.449	21.321	0.136	-0.111
-624.434	116.729	-0.133	-0.164
-623.419	655.911	-0.026	-0.066
-622.405	571.066	0.127	0.310
-621.390	321.130	0.058	-0.111
-620.376	-200.000	-0.002	0.227
-619.361	20.241	-0.142	-0.115
-618.346	-133.687	-0.151	-0.019
-617.332	79.471	-0.084	0.090
-616.317	-4.658	0.106	-0.074
-615.303	-22.293	0.346	-0.210
-614.288	-112.144	-0.087	-0.018
-613.273	661.383	0.097	-0.250
-612.259	800.000	-0.040	-0.174
-611.244	-200.000	0.003	-0.184
-610.230	-56.665	-0.170	0.076
-609.215	-105.214	-0.155	-0.035
-608.201	-137.826	0.212	-0.024
-607.186	-200.000	-0.004	-0.075
-606.171	800.000	0.088	0.306
-605.157	101.628	0.041	-0.047
-604.142	-200.000	0.025	0.146
-603.128	-133.867	0.501	-0.062
-602.113	-92.529	0.136	-0.038
-601.098	-200.000	0.012	-0.202
-600.084	-12.575	-0.282	-0.184
-599.069	-185.691	0.267	0.004
-598.055	-11.559	-0.039	-0.026
-597.040	-145.896	0.224	-0.020
-596.025	22.624	-0.188	0.154
-595.011	-98.489	-0.386	0.099
-593.996	-51.528	-0.163	0.076
-592.982	309.212	-0.053	0.099
-591.967	175.268	0.119	0.172
-590.952	-150.240	0.284	-0.022
-589.938	-78.238	-0.481	-0.165
-588.923	62.172	0.105	-0.104
-587.909	-148.856	-0.147	-0.012
-586.894	-36.633	-0.248	0.134
-585.879	89.771	0.113	0.126
-584.865	-40.381	-0.069	-0.036
-583.850	800.000	-0.048	-0.134
-582.836	-91.118	0.097	-0.028
-581.821	-12.363	-0.145	0.095
-580.806	-121.796	-0.157	0.026
-579.792	287.504	-0.165	-0.298
-578.777	194.446	-0.096	-0.145
-577.763	-200.000	0.016	0.378
-576.748	-58.572	0.028	-0.012
-575.733	-47.198	0.209	0.102
-574.719	333.943	0.111	-0.214
-573.704	-4.814	0.292	-0.201
-572.690	-80.488	-0.156	-0.052
-571.675	-132.693	0.070	-0.009
-570.661	257.187	0.104	-0.179
-569.646	518.616	0.060	0.141
-568.631	-48.999	0.120	-0.058
-567.617	-200.000	0.023	-0.194
-566.602	291.593	-0.086	0.157
-565.588	428.005	-0.091	0.196
-564.573	-27.712	-0.091	-0.053
-563.558	8.151	-0.039	0.029
-562.544	-63.391	-0.317	0.130
-561.529	-200.000	0.028	-0.278
-560.515	1.255	0.238	-0.171
-559.500	744.860	0.004	0.010
-558.485	247.389	0.127	-0.214
-557.471	20.101	-0.198	0.159
-556.456	-51.007	0.330	-0.155
-555.442	333.416	-0.167	-0.322
-554.427	800.000	0.138	-0.423
-553.412	-61.212	-0.304	-0.128
-552.398	177.233	0.239	0.348
-551.383	-104.791	-0.161	0.037
-550.369	-8.059	-0.267	0.180
-549.354	266.400	-0.070	0.122
-548.339	-46.600	0.152	0.074
-547.325	-200.000	-0.089	-0.449
-546.310	-127.042	-0.166	0.024
-545.296	-200.000	0.021	-0.119
-544.281	-200.000	-0.025	0.114
-543.266	79.834	-0.155	0.166
-542.252	-200.000	-0.021	0.155
-541.237	15.468	-0.180	0.141
-540.223	-166.831	0.216	-0.009
-539.208	-151.928	0.124	0.009
-538.193	327.245	-0.098	-0.188
-537.179	-47.159	0.184	-0.090
-536.164	-167.356	0.056	0.002
-535.150	-142.978	-0.192	0.019
-534.135	391.441	0.044	0.092
-533.121	-186.896	-0.172	0.002
-532.106	103.999	0.101	-0.118
-531.091	167.456	0.235	-0.334
-530.077	-49.660	-0.319	-0.151
-529.062	672.706	-0.118	0.304
-528.048	146.944	0.182	0.244
-527.033	-57.934	0.141	-0.061
-526.018	-200.000	-0.027	0.224
-525.004	-131.285	-0.274	-0.036
-523.989	168.023	-0.071	0.100
-522.975	370.694	0.079	0.160
-521.960	65.165	-0.068	0.069
-520.945	-200.000	0.030	-0.222
-519.931	-181.171	-0.313	-0.006
-518.916	-11.575	-0.193	0.127
-517.902	186.608	-0.076	-0.113
-516.887	-200.000	-0.013	0.165
-515.872	274.949	0.033	0.059
-514.858	-10.179	0.284	-0.188
-513.843	307.377	0.063	-0.117
-512.829	-102.010	0.299	0.072
-511.814	-46.402	-0.264	-0.129
-510.799	-200.000	-0.007	0.107
-509.785	-159.989	-0.084	-0.005
-508.770	800.000	0.066	-0.244
-507.756	-200.000	0.024	-0.149
-506.741	38.793	0.080	0.072
-505.726	31.113	-0.103	0.088
-504.712	-200.000	-0.019	-0.169
-503.697	352.221	-0.140	0.276
-502.683	-61.283	0.308	-0.129
-501.668	800.000	0.091	0.258
-500.653	368.227	0.006	0.013
-499.639	559.579	0.213	0.513
-498.624	-80.951	0.318	0.105
-497.610	-22.775	-0.336	-0.202
-496.595	149.041	-0.178	0.239
-495.581	91.965	0.118	0.132
-494.566	-141.417	-0.182	-0.018
-493.551	188.316	-0.081	-0.121
-492.537	-57.518	-0.146	-0.064
-491.522	-200.000	0.012	-0.059
-490.508	643.467	-0.119	-0.303
-489.493	234.811	-0.227	-0.373
-488.478	-14.796	0.219	-0.140
-487.464	692.253	0.075	0.197
-486.449	-54.512	-0.353	-0.159
-485.435	171.049	-0.099	0.142
-484.420	-114.454	0.396	0.076
-483.405	-4.410	0.173	-0.119
-482.391	279.954	-0.157	-0.279
-481.376	50.356	-0.143	-0.135
-480.362	-65.984	0.233	-0.093
-479.347	377.479	0.154	-0.313
-478.332	-200.000	-0.083	0.573
-477.318	98.149	0.217	0.249
-476.303	23.013	0.188	-0.154
-475.289	428.654	-0.109	0.235
-474.274	-200.000	0.014	0.352
-473.259	-177.540	0.189	-0.005
-472.245	-105.276	0.232	0.053
-471.230	800.000	0.122	0.429
-470.216	-122.832	-0.246	-0.039
-469.201	-162.705	0.237	-0.012
-468.186	-14.957	0.177	0.113
-467.172	-25.435	0.157	0.093
-466.157	30.390	0.117	0.099
-465.143	124.052	0.044	0.055
-464.128	-46.402	0.158	0.077
-463.113	-17.237	0.214	-0.134
-462.099	-60.994	-0.047	0.020
-461.084	44.653	-0.149	0.137
-460.070	-200.000	-0.001	0.133
-459.055	-40.571	-0.068	0.035
-458.040	-139.793	0.098	0.010
-457.026	-200.000	-0.033	-0.211
-456.011	-200.000	-0.048	-0.480
-454.997	-28.594	0.335	-0.192
-453.982	70.138	0.132	-0.136
-452.968	29.717	-0.115	0.097
-451.953	23.521	-0.248	-0.203
-450.938	305.121	-0.119	-0.220
-449.924	-82.170	0.336	0.109
-448.909	-113.742	-0.204	0.040
-447.895	36.221	0.215	-0.189
-446.880	-68.438	-0.059	0.023
-445.865	546.527	0.113	0.270
-444.851	418.072	0.109	0.231
-443.836	800.000	-0.021	-0.070
-442.822	-41.457	-0.081	0.041
-441.807	-200.000	-0.071	-0.423
-440.792	442.287	0.087	-0.190
-439.778	-200.000	-0.045	0.244
-438.763	196.780	-0.122	0.185
-437.749	-4.307	-0.263	0.181
-436.734	157.031	0.211	-0.290
-435.719	51.265	0.200	-0.189
-434.705	56.566	0.165	0.160
-433.690	800.000	0.018	-0.074
-432.676	358.456	-0.091	-0.180
-431.661	-169.720	-0.079	0.003
-430.646	-200.000	0.018	0.112
-429.632	610.113	-0.060	-0.149
-428.617	-200.000	-0.039	-0.378
-427.603	660.103	-0.028	0.072
-426.588	-116.776	-0.303	-0.055
-425.573	-200.000	-0.047	0.220
-424.559	-88.504	0.210	-0.062
-423.544	-200.000	-0.012	-0.266
-422.530	-27.738	-0.153	0.088
-421.515	-135.975	-0.112	-0.013
-420.500	800.000	-0.075	0.241
-419.486	-177.346	-0.109	0.003
-418.471	173.789	-0.274	0.393
-417.457	476.439	-0.182	0.409
-416.442	596.023	0.128	-0.315
-415.428	-129.454	0.099	-0.014
-414.413	-71.584	-0.245	0.091
-413.398	45.008	-0.283	-0.259
-412.384	-61.325	-0.122	0.051
-411.369	-200.000	-0.015	0.258
-410.355	-60.023	-0.114	0.048
-409.340	-105.585	0.524	0.118
-408.325	-200.000	-0.005	-0.203
-407.311	67.449	-0.126	-0.127
-406.296	213.202	-0.101	-0.159
-405.282	-51.362	0.051	-0.024
-404.267	-24.328	0.158	0.094
-403.252	-111.011	-0.287	-0.058
-402.238	294.585	0.167	0.303
-401.223	-138.267	0.189	-0.021
-400.209	19.494	-0.194	-0.155
-399.194	-194.977	0.157	0.001
-398.179	-200.000	-0.024	-0.145
-397.165	-1.725	-0.251	-0.175
-396.150	-200.000	-0.007	0.263
-395.136	-91.207	-0.139	0.039
-394.121	-34.949	-0.244	-0.132
-393.106	-12.639	0.111	-0.072
-392.092	265.620	0.193	-0.335
-391.077	37.591	0.169	0.149
-390.063	-200.000	0.039	0.209
-389.048	-100.001	-0.033	-0.008
-388.033	-81.452	-0.481	0.157
-387.019	40.067	0.231	-0.206
-386.004	122.876	-0.079	-0.098
-384.990	-41.637	0.423	-0.216
-383.975	-200.000	-0.103	-0.479
-382.960	22.825	0.241	-0.196
-381.946	800.000	0.175	0.537
-380.931	-103.399	0.090	0.021
-379.917	800.000	-0.026	-0.084
-378.902	204.874	-0.056	-0.086
-377.888	107.609	0.220	0.260
-376.873	-114.380	-0.183	0.035
-375.858	-200.000	0.019	0.087
-374.844	-164.511	-0.131	-0.006
-373.829	96.259	0.123	0.140
-372.815	-147.366	0.159	0.013
-371.800	-57.122	0.064	-0.028
-370.785	-125.033	-0.364	-0.056
-369.771	800.000	-0.090	0.258
-368.756	27.215	0.184	0.153
-367.742	-151.721	0.242	-0.018
-366.727	800.000	-0.111	-0.336
-365.712	-179.248	-0.161	-0.004
-364.698	-200.000	-0.030	0.192
-363.683	-34.467	-0.248	-0.135
-362.669	-179.515	0.348	-0.008
-361.654	556.482	-0.043	-0.102
-360.639	247.267	0.061	0.102
-359.625	51.615	0.169	0.159
-358.610	-119.797	0.364	-0.062
-357.596	-24.490	-0.380	-0.225
-356.581	565.116	0.076	-0.182
-355.566	309.730	-0.066	0.123
-354.552	108.836	0.035	-0.042
-353.537	598.002	0.016	0.038
-352.523	800.000	-0.095	-0.286
-351.508	-29.389	-0.130	-0.074
-350.493	-200.000	-0.008	-0.163
-349.479	-33.631	0.254	-0.139
-348.464	226.706	-0.057	0.091
-347.450	800.000	0.094	-0.294
-346.435	687.549	-0.080	-0.208
-345.420	800.000	0.048	0.149
-344.406	800.000	-0.013	0.049
-343.391	57.324	-0.165	0.159
-342.377	113.332	0.197	-0.238
-341.362	73.784	0.118	-0.122
-340.348	67.337	0.038	0.038
-339.333	-105.171	0.115	-0.026
-338.318	73.456	0.134	-0.139
-337.304	-97.652	-0.309	0.079
-336.289	-41.257	0.094	0.048
-335.275	7.311	-0.324	-0.240
-334.260	800.000	0.036	0.146
-333.245	-35.690	0.428	0.230
-332.231	-200.000	0.050	0.261
-331.216	140.060	-0.216	-0.282
-330.202	-83.339	0.401	-0.127
-329.187	-24.965	-0.106	-0.062
-328.172	-102.460	-0.045	0.011
-327.158	80.806	0.134	-0.144
-326.143	-200.000	-0.001	0.370
-325.129	84.742	0.168	0.182
-324.114	800.000	-0.047	-0.135
-323.099	-80.035	-0.352	-0.117
-322.085	-149.595	0.250	-0.020
-321.070	-54.825	-0.101	-0.045
-320.056	-26.115	0.160	-0.093
-319.041	800.000	-0.083	-0.242
-318.026	-200.000	-0.041	-0.242
-317.012	-176.568	0.286	0.007
-315.997	-123.911	-0.070	-0.011
-314.983	800.000	-0.031	-0.120
-313.968	-62.773	0.295	0.121
-312.953	14.117	-0.089	-0.069
-311.939	-200.000	0.017	0.134
-310.924	-166.163	-0.135	0.006
-309.910	-116.359	0.329	0.060
-308.895	800.000	0.050	-0.215
-307.880	-93.543	-0.332	0.091
-306.866	373.026	0.086	0.173
-305.851	140.322	-0.138	0.181
-304.837	276.535	-0.113	-0.199
-303.822	-45.940	-0.150	0.073
-302.807	108.709	0.094	0.111
-301.793	3.478	-0.254	0.183
-300.778	-93.897	-0.217	0.059
-299.764	-11.328	-0.141	-0.092
-298.749	-137.490	-0.305	-0.034
-297.735	689.307	-0.057	-0.146
-296.720	2.013	0.294	-0.210
-295.705	180.049	0.050	0.073
-294.691	800.000	0.060	0.181
-293.676	-200.000	-0.035	0.156
-292.662	-50.970	0.274	-0.128
-291.647	800.000	-0.057	0.164
-290.632	-60.197	0.334	0.141
-289.618	-101.102	0.257	-0.062
-288.603	-200.000	0.017	-0.245
-287.589	-200.000	-0.013	0.338
-286.574	29.422	-0.155	0.130
-285.559	196.133	0.219	0.329
-284.545	361.641	0.130	0.258
-283.530	-54.401	-0.165	-0.074
-282.516	-200.000	0.048	0.321
-281.501	378.599	0.111	-0.224
-280.486	-188.814	0.368	-0.004
-279.472	-96.624	0.069	-0.018
-278.457	-55.129	0.365	-0.163
-277.443	-58.219	0.065	-0.028
-276.428	-200.000	0.012	0.089
-275.413	15.264	-0.100	-0.078
-274.399	186.358	0.281	-0.413
-273.384	800.000	-0.110	0.398
-272.370	373.337	0.059	0.119
-271.355	14.269	-0.167	0.129
-270.340	-112.813	-0.240	0.047
-269.326	-88.061	-0.124	0.037
-268.311	65.518	0.033	0.033
-267.297	310.021	-0.051	-0.094
-266.282	-85.893	0.187	-0.057
-265.267	-200.000	-0.061	0.359
-264.253	-200.000	0.004	-0.106
-263.238	170.610	-0.132	0.186
-262.224	-200.000	0.140	0.001
-261.209	-200.000	-0.017	-0.268
-260.195	-157.067	-0.306	0.018
-259.180	538.069	0.199	0.468
-258.165	-61.543	0.033	0.014
-257.151	-200.000	0.006	0.377
-256.136	-150.047	-0.315	0.024
-255.122	-66.115	0.191	0.075
-254.107	127.370	-0.034	-0.043
-253.092	-123.574	-0.170	0.027
-252.078	-116.678	0.089	0.016
-251.063	-31.754	-0.102	0.057
-250.049	-46.344	-0.199	-0.096
-249.034	24.520	-0.118	-0.096
-248.019	-200.000	0.028	0.176
-247.005	-66.571	-0.164	-0.064
-245.990	304.175	-0.104	0.191
-244.976	121.949	-0.333	0.410
-243.961	-10.341	0.203	0.133
-242.946	800.000	0.053	-0.159
-241.932	-69.007	-0.366	0.139
-240.917	89.390	-0.080	-0.088
-239.903	-200.000	-0.025	-0.285
-238.888	76.275	0.055	0.058
-237.873	131.705	-0.065	-0.082
-236.859	156.313	0.054	0.074
-235.844	-31.296	-0.121	0.067
-234.830	-200.000	-0.049	-0.364
-233.815	-200.000	0.001	-0.107
-232.800	149.007	-0.204	-0.273
-231.786	-12.210	-0.132	0.085
-230.771	219.718	0.101	-0.159
-229.757	190.003	0.259	0.383
-228.742	-164.309	0.275	-0.012
-227.727	389.439	0.106	-0.217
-226.713	-200.000	-0.029	-0.222
-225.698	-200.000	0.030	-0.231
-224.684	-24.686	-0.249	0.146
-223.669	-117.084	-0.136	0.025
-222.655	-200.000	-0.014	-0.213
-221.640	692.115	0.071	-0.184
-220.625	-18.338	-0.163	0.100
-219.611	-120.510	0.330	-0.055
-218.596	-200.000	-0.019	0.176
-217.582	160.826	-0.212	0.292
-216.567	10.554	-0.419	-0.315
-215.552	-114.309	-0.232	-0.044
-214.538	-200.000	-0.029	-0.171
-213.523	-200.000	0.030	-0.164
-212.509	-200.000	-0.041	0.245
-211.494	-200.000	-0.077	0.414
-210.479	373.621	0.162	0.325
-209.465	206.718	0.221	-0.339
-208.450	124.607	0.029	-0.036
-207.436	36.951	0.109	0.095
-206.421	607.900	0.007	0.017
-205.406	-66.748	-0.279	0.109
-204.392	-200.000	0.003	0.097
-203.377	301.115	-0.068	0.123
-202.363	-100.834	0.191	-0.046
-201.348	-95.647	-0.093	-0.024
-200.333	-50.862	-0.232	0.108
-199.319	148.482	-0.086	0.115
-198.304	271.391	0.071	-0.124
-197.290	-178.337	-0.239	0.006
-196.275	27.809	-0.239	0.198
-195.260	423.387	0.102	-0.216
-194.246	-56.822	0.103	-0.045
-193.231	35.397	-0.107	0.093
-192.217	-4.654	-0.046	0.031
-191.202	114.109	0.061	0.073
-190.187	171.939	-0.090	-0.127
-189.173	-86.892	0.181	-0.054
-188.158	236.840	0.144	-0.235
-187.144	-52.773	-0.202	0.092
-186.129	-13.812	0.146	0.093
-185.114	-84.200	-0.162	0.050
-184.100	435.685	0.122	0.261
-183.085	-200.000	-0.007	-0.101
-182.071	-200.000	-0.060	-0.494
-181.056	367.792	-0.072	0.143
-180.042	-200.000	-0.031	0.238
-179.027	-38.375	-0.194	-0.101
-178.012	-132.210	0.038	-0.005
-176.998	-200.000	0.020	-0.112
-175.983	-93.733	-0.295	0.080
-174.969	-81.277	0.033	0.011
-173.954	-126.748	0.075	-0.011
-172.939	94.312	-0.155	0.173
-171.925	-73.757	0.233	0.083
-170.910	252.845	0.086	0.145
-169.896	-141.094	-0.037	-0.004
-168.881	90.009	0.145	0.160
-167.866	71.783	-0.255	0.261
-166.852	-161.118	0.084	0.004
-165.837	-72.926	-0.110	-0.040
-164.823	67.316	0.173	-0.174
-163.808	800.000	-0.020	-0.080
-162.793	335.538	0.169	0.322
-161.779	-200.000	-0.030	-0.136
-160.764	-200.000	0.076	0.396
-159.750	331.037	0.156	0.295
-158.735	800.000	0.023	0.062
-157.720	800.000	0.094	0.354
-156.706	108.605	0.217	-0.255
-155.691	96.559	0.112	-0.127
-154.677	-200.000	0.015	0.127
-153.662	0.720	0.152	-0.107
-152.647	-158.325	0.127	-0.007
-151.633	-1.234	-0.229	-0.159
-150.618	207.106	-0.057	0.088
-149.604	1.179	-0.192	0.136
-148.589	33.495	0.140	0.119
-147.574	-176.507	-0.234	-0.006
-146.560	-128.520	-0.139	0.019
-145.545	-200.000	-0.042	0.260
-144.531	152.812	0.118	0.159
-143.516	-200.000	-0.036	0.318
-142.502	-104.466	-0.152	0.035
-141.487	-101.695	-0.266	0.064
-140.472	23.210	0.275	0.222
-139.458	-24.268	-0.180	0.106
-138.443	-200.000	-0.004	-0.196
-137.429	-42.348	0.266	-0.134
-136.414	-200.000	0.029	-0.261
-135.399	-61.767	0.131	-0.054
-134.385	-200.000	-0.047	0.424
-133.370	800.000	0.014	0.045
-132.356	187.983	0.066	0.096
-131.341	314.812	0.163	0.302
-130.326	-1.655	0.254	-0.176
-129.312	-200.000	-0.019	-0.118
-128.297	-200.000	-0.010	-0.144
-127.283	118.343	0.040	-0.048
-126.268	-32.805	0.249	-0.136
-125.253	-60.231	0.264	0.111
-124.239	-99.154	-0.257	0.064
-123.224	-200.000	-0.013	-0.236
-122.210	109.351	-0.177	0.209
-121.195	421.740	-0.040	-0.085
-120.180	83.238	-0.134	-0.143
-119.166	-10.510	-0.109	-0.071
-118.151	800.000	0.041	-0.145
-117.137	-200.000	-0.011	0.136
-116.122	-200.000	0.045	0.220
-115.107	-140.487	-0.301	-0.031
-114.093	-49.333	-0.267	0.125
-113.078	-72.365	0.476	0.173
-112.064	800.000	-0.059	-0.222
-111.049	21.771	0.141	0.113
-110.034	-94.196	0.439	-0.118
-109.020	34.855	0.168	0.144
-108.005	-60.734	-0.118	0.049
-106.991	-72.048	-0.215	0.079
-105.976	-2.501	0.425	0.292
-104.962	205.994	-0.101	0.155
-103.947	-200.000	0.177	0.001
-102.932	460.326	0.137	-0.299
-101.918	31.700	0.183	-0.155
-100.903	144.943	-0.242	-0.317
-99.889	-72.253	0.097	-0.035
-98.874	-200.000	0.057	-0.359
-97.859	67.481	0.138	0.139
-96.845	-51.328	-0.403	-0.185
-95.830	199.291	-0.153	-0.231
-94.816	-200.000	0.239	0.001
-93.801	-200.000	0.021	-0.178
-92.786	800.000	-0.127	-0.371
-91.772	-124.467	-0.192	0.029
-90.757	12.898	-0.213	0.162
-89.743	-82.040	-0.088	0.028
-88.728	139.698	0.142	0.183
-87.713	-200.000	-0.068	0.312
-86.699	47.876	-0.153	0.140
-85.684	261.611	-0.227	-0.385
-84.670	577.908	-0.067	-0.161
-83.655	-63.924	0.204	-0.082
-82.640	-200.000	0.026	-0.172
-81.626	800.000	0.034	-0.103
-80.611	-84.618	-0.252	-0.078
-79.597	-96.413	0.412	0.107
-78.582	-200.000	0.009	-0.108
-77.567	-36.421	0.369	0.195
-76.553	64.692	0.045	-0.045
-75.538	-200.000	-0.034	0.151
-74.524	-80.957	0.245	0.080
-73.509	-16.797	-0.266	-0.165
-72.494	-136.144	-0.099	-0.011
-71.480	-72.298	0.084	-0.030
-70.465	-119.694	-0.334	0.057
-69.451	-78.619	-0.556	0.186
-68.436	-200.000	0.006	0.309
-67.422	-200.000	-0.018	-0.083
-66.407	-200.000	-0.000	0.069
-65.392	155.094	0.139	-0.187
-64.378	-53.091	0.338	0.152
-63.363	-77.425	0.221	-0.075
-62.349	-200.000	0.010	0.359
-61.334	24.690	-1.148	-0.932
-60.319	-104.240	0.646	0.147
-59.305	-200.000	-0.078	-1.248
-58.290	236.487	0.605	0.981
-57.276	800.000	0.473	1.490
-56.261	-200.000	99.446	616.342
-55.246	575.797	1424.922	3410.866
-54.232	189.125	2618.580	3844.046
-53.217	118.252	2143.845	2591.100
-52.203	43.316	1592.333	1425.383
-51.188	34.615	1327.969	1137.145
-50.173	31.364	1286.771	1083.021
-49.159	55.029	1336.240	1264.840
-48.144	56.440	1352.727	1288.706
-47.130	34.817	1309.976	1122.747
-46.115	31.201	1292.861	1087.022
-45.100	31.050	1287.351	1081.470
-44.086	30.943	1285.404	1079.176
-43.071	31.014	1282.512	1077.112
-42.057	30.817	1281.151	1074.789
-41.042	30.981	1279.369	1074.199
-40.027	30.998	1278.228	1073.298
-39.013	30.950	1276.209	1071.279
-37.998	30.937	1274.126	1069.415
-36.984	31.029	1272.690	1068.698
-35.969	31.080	1270.484	1067.092
-34.954	31.048	1269.568	1066.096
-33.940	31.040	1268.548	1065.156
-32.925	31.040	1267.233	1064.005
-31.911	31.131	1265.297	1062.860
-30.896	31.086	1263.930	1061.414
-29.881	31.170	1262.640	1060.764
-28.867	31.057	1261.308	1058.962
-27.852	31.143	1259.406	1057.810
-26.838	31.226	1258.010	1057.067
-25.823	31.078	1257.058	1055.387
-24.809	31.149	1255.668	1054.576
-23.794	31.061	1254.454	1053.021
-22.779	31.111	1253.162	1052.176
-21.765	31.054	1252.409	1051.178
-20.750	31.017	1250.765	1049.553
-19.736	31.064	1249.088	1048.366
-18.721	30.948	1248.148	1046.882
-17.706	31.009	1246.779	1046.036
-16.692	31.018	1245.541	1045.007
-15.677	30.958	1244.625	1043.858
-14.663	30.995	1243.655	1043.215
-13.648	30.944	1242.533	1041.944
-12.633	30.956	1241.329	1040.961
-11.619	30.860	1241.183	1040.260
-10.604	30.940	1240.307	1039.929
-9.590	30.920	1239.148	1038.808
-8.575	30.962	1237.733	1037.816
-7.560	30.878	1237.098	1036.771
-6.546	31.047	1235.841	1036.620
-5.531	30.856	1235.478	1035.209
-4.517	30.950	1234.258	1034.669
-3.502	30.913	1233.786	1034.029
-2.487	30.867	1232.715	1032.831
-1.473	30.875	1228.427	1029.244
-0.458	29.313	1213.673	1008.307
0.556	23.562	1195.712	969.474
1.571	19.859	1200.472	952.893
2.586	18.981	1215.156	959.566
3.600	18.676	1204.930	949.719
4.615	13.494	1134.023	866.693
5.629	4.281	1059.267	764.267
6.644	-0.019	1039.232	728.926
7.659	-0.279	1036.745	725.863
8.673	-0.519	1035.716	723.915
9.688	-0.382	1033.993	723.309
10.702	-0.078	1032.643	723.763
11.717	5.887	1040.580	758.151
12.731	14.985	1053.284	811.657
13.746	18.761	1058.086	833.654
14.761	19.189	1057.942	835.540
15.775	19.075	1057.596	834.644
16.790	18.819	1056.582	832.526
17.804	18.801	1055.779	831.731
18.819	18.939	1055.972	832.481
19.834	18.985	1054.897	831.783
20.848	19.010	1054.261	831.325
21.863	19.009	1054.192	831.192
22.877	18.808	1053.599	829.683
23.892	18.909	1052.704	829.393
24.907	18.950	1052.071	829.015
25.921	18.954	1050.842	827.994
26.936	18.848	1049.673	826.491
27.950	18.914	1048.026	825.438
28.965	18.810	1045.888	823.184
29.980	19.017	1043.958	822.580
30.994	19.100	1043.270	822.360
32.009	18.975	1042.152	820.813
33.023	18.853	1041.084	819.315
34.038	18.852	1040.353	818.661
35.053	19.064	1038.830	818.401
36.067	19.075	1038.423	818.061
37.082	19.199	1037.718	818.019
38.096	19.257	1036.624	817.361
39.111	19.306	1036.065	817.083
40.126	19.098	1034.965	815.158
41.140	18.853	1032.709	812.152
42.155	18.704	1031.854	810.703
43.169	18.661	1030.722	809.536
44.184	18.769	1029.614	809.105
45.199	18.578	1028.598	807.334
46.213	18.717	1027.323	806.915
47.228	18.809	1026.505	806.636
48.242	18.777	1025.336	805.495
49.257	18.947	1024.225	805.345
50.271	18.950	1023.729	804.899
51.286	19.095	1022.109	804.234
52.301	19.071	1021.667	803.703
53.315	18.968	1020.954	802.589
54.330	19.017	1019.659	801.730
55.344	19.060	1018.883	801.246
56.359	18.853	1017.965	799.490
57.374	18.740	1016.857	798.024
58.388	18.850	1016.217	797.966
59.403	18.703	1015.369	796.544
60.417	18.733	1014.240	795.731
61.432	18.698	1013.987	795.299
62.447	18.816	1012.984	794.987
63.461	18.901	1012.343	794.806
64.476	18.788	1011.349	793.434
65.490	18.718	1010.318	792.233
66.505	18.888	1009.511	792.313
67.520	18.931	1008.903	791.961
68.534	18.632	1007.791	789.643
69.549	18.494	1006.716	788.098
70.563	18.325	1006.188	786.836
71.578	18.514	1005.090	786.776
72.593	18.305	1004.404	785.212
73.607	18.487	1003.972	785.637
74.622	18.706	1003.713	786.369
75.636	18.862	1002.431	786.008
76.651	18.647	1002.042	784.651
77.666	18.453	1001.391	783.188
78.680	18.656	1000.141	783.065
79.695	18.729	999.800	783.064
80.709	18.788	998.814	782.489
81.724	18.685	998.196	781.467
82.739	18.765	997.313	781.070
83.753	18.969	997.178	781.825
84.768	19.155	996.029	781.696
85.782	19.297	994.911	781.395
86.797	19.182	993.751	779.895
87.812	19.042	992.770	778.420
88.826	19.185	991.522	778.022
89.841	19.241	990.978	777.777
90.855	19.226	989.825	776.738
91.870	19.106	989.036	775.507
92.884	19.087	987.836	774.411
93.899	19.116	987.110	773.905
94.914	19.254	986.094	773.660
95.928	19.012	985.151	771.767
96.943	18.814	984.452	770.262
97.957	18.692	982.750	768.317
98.972	18.408	981.889	766.305
99.987	18.760	981.117	767.208
101.001	18.927	980.387	767.313
102.016	18.883	979.547	766.393
103.030	18.774	978.621	765.118
104.045	18.660	977.248	763.466
105.060	18.456	976.382	761.815
106.074	18.566	975.852	761.823
107.089	19.139	975.660	764.150
108.103	19.107	973.990	762.632
109.118	18.824	972.724	760.324
110.133	18.859	972.099	759.921
111.147	18.674	970.752	757.984
112.162	18.637	969.579	756.839
113.176	18.828	969.308	757.404
114.191	18.703	967.938	755.715
115.206	18.501	966.942	753.980
116.220	18.493	965.997	753.143
117.235	18.619	965.455	753.205
118.249	18.612	964.118	752.066
119.264	18.453	963.731	751.001
120.279	18.454	962.945	750.328
121.293	18.675	961.722	750.273
122.308	18.669	961.293	749.847
123.322	18.602	959.930	748.426
124.337	18.504	958.405	746.744
125.352	18.137	956.521	743.615
126.366	17.976	955.571	742.107
127.381	18.660	955.538	744.987
128.395	19.011	954.664	745.764
129.410	19.164	954.034	745.868
130.424	19.092	953.105	744.765
131.439	19.045	952.006	743.637
132.454	19.085	950.902	742.879
133.468	18.943	950.150	741.616
134.483	19.036	949.698	741.598
135.497	19.258	948.681	741.691
136.512	19.277	947.915	741.111
137.527	19.226	946.904	740.035
138.541	19.189	946.319	739.352
139.556	19.172	945.398	738.495
140.570	19.367	944.108	738.257
141.585	19.237	943.088	736.841
142.600	19.248	941.988	735.962
143.614	19.343	941.880	736.216
144.629	19.370	941.227	735.759
145.643	19.417	939.490	734.535
146.658	19.350	938.543	733.443
147.673	19.292	937.288	732.153
148.687	19.102	936.617	730.756
149.702	18.902	935.783	729.195
150.716	19.089	934.749	729.116
151.731	19.144	934.037	728.728
152.746	19.278	934.126	729.300
153.760	19.492	932.884	729.169
154.775	19.378	932.588	728.393
155.789	19.457	931.009	727.430
156.804	19.419	930.113	726.505
157.819	19.498	929.622	726.388
158.833	19.578	928.825	726.036
159.848	19.526	927.926	725.051
160.862	19.232	927.213	723.196
161.877	19.367	926.358	723.032
162.892	19.472	925.542	722.771
163.906	19.379	924.086	721.183
164.921	19.382	923.428	720.615
165.935	19.437	922.129	719.768
166.950	19.412	921.354	718.996
167.964	19.458	920.532	718.483
168.979	19.338	919.084	716.791
169.994	19.366	918.560	716.433
171.008	19.412	918.129	716.227
172.023	19.381	917.279	715.372
173.037	19.141	916.156	713.438
174.052	19.077	914.845	712.087
175.067	19.200	914.521	712.281
176.081	19.390	914.207	712.761
177.096	19.310	913.215	711.594
178.110	19.035	912.441	709.794
179.125	18.818	911.937	708.445
180.140	18.908	911.190	708.170
181.154	19.071	910.966	708.606
182.169	19.301	910.534	709.151
183.183	19.370	910.591	709.419
184.198	19.416	909.073	708.361
185.213	19.273	908.655	707.386
186.227	19.343	908.003	707.102
187.242	19.506	906.950	706.889
188.256	19.434	906.498	706.178
189.271	19.364	905.772	705.265
190.286	19.263	904.480	703.784
191.300	18.653	903.147	700.194
192.315	18.073	902.059	696.928
193.329	18.025	901.523	696.255
194.344	19.061	901.293	700.234
195.359	19.216	901.884	701.260
196.373	19.426	900.453	700.940
197.388	19.213	899.806	699.510
198.402	19.280	899.418	699.418
199.417	19.198	898.687	698.456
200.432	18.965	897.611	696.613
201.446	18.963	896.822	695.933
202.461	18.755	896.433	694.728
203.475	18.061	894.179	690.117
204.490	17.495	893.015	686.875
205.504	18.339	893.690	690.741
206.519	19.005	893.508	693.223
207.534	19.037	893.341	693.160
208.548	19.495	892.881	694.586
209.563	19.124	891.996	692.344
210.577	19.173	891.288	691.929
211.592	19.355	890.930	692.322
212.607	19.382	890.057	691.691
213.621	19.401	889.703	691.431
214.636	19.356	889.187	690.789
215.650	19.354	888.040	689.830
216.665	19.511	887.208	689.746
217.680	19.441	886.406	688.785
218.694	18.972	885.255	685.959
219.709	18.870	884.816	685.150
220.723	19.260	884.462	686.371
221.738	19.383	883.687	686.199
222.753	19.394	883.146	685.758
223.767	19.428	882.430	685.280
224.782	19.573	882.205	685.618
225.796	19.471	881.702	684.761
226.811	18.863	879.758	680.785
227.826	18.322	879.362	678.275
228.840	18.533	878.667	678.515
229.855	18.783	877.245	678.344
230.869	18.323	876.679	676.030
231.884	18.745	876.679	677.636
232.899	19.457	876.679	680.387
233.913	19.428	875.721	679.469
234.928	19.322	875.204	678.590
235.942	19.218	874.777	677.789
236.957	19.018	873.456	675.919
237.972	19.011	873.309	675.718
238.986	19.168	872.468	675.625
240.001	19.241	871.843	675.364
241.015	19.187	871.567	674.880
242.030	19.392	870.470	674.772
243.045	19.425	870.157	674.599
244.059	19.521	869.960	674.761
245.074	19.265	868.927	672.902
246.088	18.958	868.088	670.995
247.103	19.259	867.503	671.657
248.117	19.765	867.167	673.310
249.132	19.794	866.466	672.817
250.147	19.791	866.116	672.473
251.161	19.956	865.563	672.626
252.176	19.927	865.001	672.018
253.190	20.244	864.162	672.537
254.205	20.244	863.627	672.058
255.220	20.291	863.144	671.805
256.234	19.891	862.942	670.040
257.249	20.012	861.815	669.573
258.263	20.057	860.933	669.006
259.278	20.195	860.376	669.043
260.293	20.171	859.440	668.167
261.307	20.040	859.230	667.439
262.322	19.895	858.066	665.918
263.336	19.044	856.036	661.015
264.351	18.057	854.413	655.916
265.366	18.141	854.253	656.059
266.380	19.368	854.567	660.947
267.395	19.750	854.007	661.921
268.409	19.654	853.971	661.466
269.424	19.954	853.079	661.861
270.439	20.034	852.200	661.429
271.453	20.154	852.093	661.745
272.468	20.248	851.731	661.764
273.482	20.086	851.583	660.971
274.497	19.845	849.997	658.765
275.512	19.426	849.351	656.611
276.526	19.927	848.704	657.959
277.541	20.147	848.465	658.548
278.555	19.822	847.441	656.463
279.570	19.706	846.627	655.336
280.585	19.800	846.152	655.264
281.599	19.878	845.363	654.891
282.614	19.262	844.001	651.449
283.628	19.244	843.882	651.231
284.643	19.854	843.470	653.162
285.657	19.354	842.466	650.440
286.672	19.023	841.622	648.483
287.687	19.609	842.067	650.978
288.701	19.622	841.064	650.196
289.716	19.388	839.915	648.370
290.730	19.186	839.270	647.053
291.745	19.113	838.357	646.020
292.760	19.350	838.341	646.839
293.774	20.203	838.919	650.430
294.789	20.534	838.525	651.305
295.803	20.539	837.779	650.686
296.818	20.606	837.127	650.374
297.833	20.146	836.219	647.892
298.847	20.050	835.061	646.580
299.862	20.392	835.152	647.868
300.876	20.683	834.331	648.259
301.891	20.367	833.756	646.579
302.906	19.974	833.095	644.546
303.920	20.172	832.385	644.678
304.935	20.463	832.331	645.659
305.949	20.384	831.586	644.732
306.964	20.243	830.585	643.375
307.979	20.377	830.322	643.611
308.993	20.628	830.377	644.525
310.008	20.537	829.724	643.626
311.022	20.452	828.390	642.219
312.037	20.452	827.755	641.669
313.052	20.043	827.235	639.700
314.066	19.401	825.747	636.126
315.081	18.912	825.463	634.047
316.095	19.940	825.495	637.806
317.110	20.350	825.061	638.923
318.125	19.595	823.626	634.983
319.139	18.624	822.619	630.583
320.154	18.772	821.971	630.571
321.168	19.359	822.161	632.816
322.183	20.023	822.378	635.366
323.197	20.174	821.904	635.497
324.212	20.375	821.546	635.899
325.227	20.416	820.976	635.550
326.241	20.321	820.438	634.732
327.256	20.316	819.557	633.975
328.270	20.221	819.060	633.188
329.285	20.007	818.105	631.614
330.300	19.869	817.469	630.565
331.314	20.072	816.948	630.846
332.329	20.335	816.814	631.645
333.343	20.383	816.603	631.599
334.358	20.581	815.995	631.791
335.373	20.636	815.572	631.609
336.387	20.878	815.361	632.269
337.402	20.921	815.232	632.268
338.416	20.617	815.138	631.036
339.431	20.753	814.776	631.191
340.446	20.928	814.361	631.451
341.460	20.699	814.011	630.293
342.475	20.637	813.263	629.435
343.489	20.710	812.763	629.255
344.504	20.899	812.532	629.702
345.519	21.031	812.408	630.027
346.533	21.025	811.936	629.586
347.548	21.185	811.125	629.478
348.562	21.067	810.708	628.674
349.577	21.176	809.804	628.307
350.592	21.249	809.289	628.117
351.606	21.247	808.736	627.625
352.621	21.214	807.630	626.593
353.635	20.953	807.189	625.258
354.650	20.411	805.478	621.938
355.665	19.501	804.223	617.660
356.679	19.959	804.083	619.136
357.694	20.170	803.494	619.380
358.708	20.101	803.003	618.700
359.723	20.533	803.270	620.392
360.738	20.856	802.335	620.769
361.752	21.110	801.583	621.036
362.767	21.363	801.640	621.925
363.781	21.376	801.541	621.838
364.796	21.612	800.671	621.948
365.810	21.422	800.524	621.103
366.825	21.391	800.029	620.554
367.840	21.205	799.209	619.203
368.854	20.829	798.796	617.498
369.869	20.991	797.928	617.344
370.883	20.928	797.543	616.767
371.898	20.804	797.171	615.987
372.913	20.881	796.526	615.707
373.927	21.143	796.282	616.388
374.942	21.143	796.134	616.221
375.956	21.254	795.604	616.148
376.971	21.292	795.590	616.215
377.986	21.384	795.166	616.156
379.000	21.505	794.319	615.873
380.015	21.247	793.895	614.581
381.029	21.391	793.238	614.523
382.044	21.392	792.615	613.992
383.059	21.441	792.350	613.903
384.073	21.573	791.855	613.929
385.088	21.552	791.219	613.307
386.102	21.404	790.394	612.096
387.117	21.320	789.754	611.251
388.132	21.108	788.347	609.369
389.146	20.545	787.968	607.055
390.161	20.826	788.082	608.073
391.175	21.162	787.649	608.856
392.190	20.914	786.907	607.363
393.205	19.654	784.964	601.426
394.219	18.499	783.432	596.187
395.234	18.418	783.439	595.857
396.248	19.865	784.874	601.933
397.263	21.334	785.075	607.141
398.278	21.234	784.413	606.229
399.292	20.896	784.103	604.764
400.307	21.065	783.480	604.814
401.321	21.120	783.291	604.806
402.336	21.510	782.790	605.716
403.350	21.903	782.772	607.008
404.365	21.946	782.638	606.998
405.380	22.061	782.403	607.160
406.394	22.174	781.843	607.064
407.409	22.151	780.937	606.228
408.423	21.819	781.190	605.222
409.438	22.030	780.567	605.415
410.453	21.981	779.990	604.746
411.467	22.164	779.408	604.870
412.482	22.172	778.984	604.514
413.496	22.119	779.078	604.352
414.511	22.151	778.418	603.896
415.526	22.195	777.954	603.634
416.540	21.983	777.352	602.388
417.555	21.887	776.395	601.263
418.569	21.897	776.039	600.967
419.584	21.760	775.721	600.197
420.599	21.542	774.967	598.816
421.613	158.765	1362.208	1797.021
422.628	137.062	1447.757	1797.083
