DTS Sentinel unit serial number:	SN413079Multiplexer serial number:	ORYXHardware model number:	OX4-SRSoftware version number:	ORYX F/W v4.00 Oryx Data Collector v3.7.2.0data status	okinstallation	princeton_trtdifferential loss correction	single-endedforward channel	channel 1reverse channel	N/Adate	2019/09/12time	18:05:34forward acquisition time	15.00reverse acquisition time	0.00gamma	496.2192k internal	0.2316k external	0.2316temperature offset calibration	1.0106default loss term (dB/km)	0.3790temperature slope calibration	1.0000multiplexer offset coefficient	1.0000multiplexer slope coefficient	1.0000fibre end	0.00T internal ref (°C)	33.69T ext. ref 1 (°C)	2.98T ext. ref 2 (°C)	28.20length (m)	temperature (°C)	Stokes	anti-Stokes-747.200	300.474	-0.259	0.485
-746.185	-200.000	-0.119	0.758
-745.171	-95.478	-1.155	0.314
-744.156	65.343	0.550	0.564
-743.142	44.104	-0.277	-0.258
-742.127	-41.293	0.502	0.262
-741.112	194.228	0.451	-0.693
-740.098	-140.310	-0.412	-0.044
-739.083	110.964	-0.332	-0.405
-738.069	-12.110	-0.317	0.210
-737.054	-157.212	0.464	-0.029
-736.039	-36.796	-0.623	0.338
-735.025	800.000	-0.125	0.426
-734.010	-200.000	-0.016	-0.780
-732.996	-30.454	-0.273	-0.157
-731.981	-54.943	0.535	-0.244
-730.966	-35.332	0.939	0.517
-729.952	-200.000	0.067	-0.533
-728.937	-0.900	-0.641	0.459
-727.923	-147.367	-0.555	-0.048
-726.908	-9.951	0.284	0.191
-725.894	-155.007	0.653	-0.043
-724.879	-146.062	0.293	-0.026
-723.864	-40.968	0.141	0.074
-722.850	260.901	0.187	-0.328
-721.835	-200.000	0.135	-0.632
-720.821	119.742	-0.271	-0.339
-719.806	-120.152	-0.323	0.056
-718.791	800.000	0.309	-0.981
-717.777	52.890	-0.693	0.670
-716.762	138.973	-0.161	0.214
-715.748	-200.000	-0.028	0.186
-714.733	-168.705	-0.706	-0.027
-713.718	473.933	0.227	-0.518
-712.704	-38.475	0.316	-0.169
-711.689	153.296	0.064	0.089
-710.675	19.523	-0.279	0.227
-709.660	-170.083	0.403	-0.014
-708.645	96.716	-0.539	-0.624
-707.631	101.748	-0.491	-0.580
-706.616	-200.000	0.007	-0.205
-705.602	-98.283	0.359	-0.093
-704.587	-88.344	0.363	-0.110
-703.572	-20.500	0.318	-0.198
-702.558	-200.000	0.033	0.213
-701.543	301.825	0.459	-0.857
-700.529	-49.446	0.766	-0.369
-699.514	65.709	-0.411	-0.422
-698.499	220.886	0.502	-0.814
-697.485	25.404	-0.473	-0.398
-696.470	-138.639	0.968	0.107
-695.456	49.164	0.232	0.220
-694.441	-109.475	-0.218	0.047
-693.426	-97.225	0.381	-0.101
-692.412	-107.633	-0.231	0.051
-691.397	-200.000	-0.053	-0.408
-690.383	-140.880	-0.419	-0.044
-689.368	-16.541	-0.603	0.386
-688.354	-200.000	0.079	0.839
-687.339	-144.081	-0.458	-0.043
-686.324	-30.652	-0.395	-0.226
-685.310	139.823	0.547	-0.728
-684.295	42.280	-0.730	-0.670
-683.281	-200.000	0.091	-0.656
-682.266	-161.684	0.822	-0.042
-681.251	-200.000	0.005	-0.309
-680.237	-135.365	-0.595	0.072
-679.222	30.375	0.445	-0.384
-678.208	-200.000	-0.004	0.157
-677.193	-103.293	0.367	-0.088
-676.178	271.427	0.079	-0.141
-675.164	-155.313	-0.360	-0.024
-674.149	30.393	-0.233	-0.201
-673.135	-200.000	-0.045	0.258
-672.120	129.608	0.444	0.573
-671.105	-200.000	-0.088	-1.023
-670.091	-70.385	-0.821	-0.314
-669.076	336.415	-0.219	-0.430
-668.062	92.667	-0.115	0.132
-667.047	165.440	-0.192	-0.274
-666.032	5.417	0.747	0.557
-665.018	219.561	-0.116	0.187
-664.003	-11.207	-0.331	0.220
-662.989	65.850	-0.435	-0.446
-661.974	133.414	-0.181	-0.236
-660.959	800.000	0.191	-0.766
-659.945	-154.738	0.076	-0.005
-658.930	-200.000	0.005	-0.117
-657.916	-23.433	-0.578	-0.350
-656.901	104.436	0.606	-0.720
-655.886	-200.000	-0.051	-0.804
-654.872	-59.010	-0.368	-0.160
-653.857	96.414	0.149	-0.172
-652.843	-200.000	0.105	0.518
-651.828	-137.675	-0.564	-0.064
-650.814	131.419	0.481	0.624
-649.799	-200.000	-0.035	0.489
-648.784	57.350	0.489	0.482
-647.770	-65.948	-1.011	-0.407
-646.755	-200.000	0.064	-0.329
-645.741	86.441	-0.222	-0.247
-644.726	-57.904	0.773	-0.341
-643.711	-200.000	-0.033	-0.270
-642.697	8.431	-0.174	0.132
-641.682	41.898	0.287	-0.263
-640.668	750.260	0.228	0.621
-639.653	-13.813	-0.333	-0.217
-638.638	-200.000	0.001	0.238
-637.624	-54.414	0.202	-0.092
-636.609	-200.000	-0.109	0.704
-635.595	-96.078	0.431	-0.116
-634.580	-121.635	0.426	0.071
-633.565	-109.030	0.514	-0.111
-632.551	72.098	0.197	-0.207
-631.536	105.255	-0.435	0.518
-630.522	74.254	-0.244	-0.258
-629.507	-143.354	0.235	-0.023
-628.492	-126.577	0.513	0.077
-627.478	-3.159	-0.672	-0.473
-626.463	-168.410	-0.240	0.009
-625.449	-155.614	0.330	0.021
-624.434	-119.255	0.161	-0.028
-623.419	-88.411	-0.509	0.153
-622.405	345.856	0.371	0.736
-621.390	-200.000	0.025	-0.774
-620.376	-200.000	-0.217	1.566
-619.361	-59.603	-0.542	0.234
-618.346	800.000	-0.147	-0.417
-617.332	662.039	-0.268	-0.697
-616.317	-82.320	-0.790	0.259
-615.303	800.000	0.061	-0.201
-614.288	-200.000	0.002	-0.189
-613.273	110.821	-0.065	0.079
-612.259	61.548	0.242	0.242
-611.244	141.177	-0.179	-0.238
-610.230	-31.820	-0.720	-0.407
-609.215	-87.450	0.134	-0.041
-608.201	-8.949	0.254	-0.171
-607.186	69.282	-0.309	-0.321
-606.171	-166.431	-0.151	0.006
-605.157	-195.294	-0.420	-0.003
-604.142	78.229	0.134	-0.144
-603.128	172.570	-0.248	0.360
-602.113	800.000	0.361	-1.343
-601.098	800.000	0.136	-0.495
-600.084	133.569	0.220	-0.287
-599.069	199.866	-0.217	-0.335
-598.055	-134.725	0.688	0.084
-597.040	217.632	-0.235	-0.378
-596.025	376.681	0.316	-0.650
-595.011	-65.932	-0.220	0.089
-593.996	-12.392	-0.200	-0.132
-592.982	-200.000	0.056	0.414
-591.967	-200.000	0.053	-0.459
-590.952	165.016	-0.642	-0.913
-589.938	560.342	-0.177	0.431
-588.923	-118.545	-0.445	-0.079
-587.909	-200.000	0.033	0.152
-586.894	800.000	-0.188	0.815
-585.879	-123.922	-0.402	0.064
-584.865	-30.025	0.510	0.292
-583.850	81.075	-0.425	0.462
-582.836	-107.298	-0.993	-0.220
-581.821	-200.000	-0.069	-0.356
-580.806	-200.000	0.103	-0.786
-579.792	-118.809	1.118	-0.198
-578.777	-97.492	-1.035	-0.271
-577.763	383.072	-0.222	-0.460
-576.748	292.171	0.335	0.613
-575.733	-200.000	0.030	-0.690
-574.719	800.000	-0.222	-0.823
-573.704	587.377	-0.222	-0.549
-572.690	-78.064	0.482	0.167
-571.675	-200.000	-0.064	-0.523
-570.661	185.661	-0.161	0.240
-569.646	446.653	0.167	-0.370
-568.631	328.652	-0.255	-0.493
-567.617	166.394	0.330	0.470
-566.602	359.670	0.116	0.234
-565.588	-200.000	0.336	-0.001
-564.573	-200.000	0.108	-0.543
-563.558	-82.539	-0.305	0.099
-562.544	179.312	0.143	-0.211
-561.529	58.869	-0.368	0.364
-560.515	800.000	0.096	0.362
-559.500	108.451	-0.182	0.218
-558.485	153.280	0.243	-0.335
-557.471	293.376	-0.151	-0.277
-556.456	-20.054	0.574	0.356
-555.442	800.000	0.115	-0.439
-554.427	-110.506	-0.645	0.134
-553.412	-72.540	0.442	0.164
-552.398	-100.157	0.220	-0.055
-551.383	-77.622	0.619	0.216
-550.369	544.340	-0.120	0.287
-549.354	-200.000	0.026	0.604
-548.339	21.584	-0.462	-0.378
-547.325	-200.000	0.019	0.208
-546.310	-103.407	-0.349	-0.083
-545.296	-123.203	-0.271	0.044
-544.281	206.949	-0.285	-0.447
-543.266	-200.000	0.023	-0.126
-542.252	-200.000	0.097	-0.722
-541.237	74.775	-0.272	0.288
-540.223	499.573	0.141	0.327
-539.208	-80.872	-0.560	-0.187
-538.193	-5.449	0.269	-0.185
-537.179	0.589	0.244	0.175
-536.164	-200.000	0.098	0.485
-535.150	-115.767	0.260	-0.049
-534.135	-34.066	-0.249	0.138
-533.121	78.217	-0.298	-0.320
-532.106	-131.197	0.305	-0.041
-531.091	-94.004	-0.558	0.154
-530.077	-200.000	0.055	-1.517
-529.062	-200.000	-0.035	0.702
-528.048	175.739	0.338	0.492
-527.033	-49.697	-0.492	-0.235
-526.018	-175.005	-0.571	-0.016
-525.004	800.000	-0.226	0.819
-523.989	545.156	-0.199	-0.477
-522.975	-200.000	-0.020	-0.878
-521.960	287.681	0.272	0.494
-520.945	12.078	0.469	-0.363
-519.931	-142.171	-1.398	-0.139
-518.916	-37.057	0.711	0.383
-517.902	-167.109	-0.904	0.037
-516.887	-200.000	-0.035	-0.469
-515.872	145.376	0.402	0.541
-514.858	43.821	-0.223	0.205
-513.843	800.000	0.228	-0.876
-512.829	-70.880	0.308	-0.117
-511.814	-124.425	0.352	-0.055
-510.799	800.000	0.058	-0.216
-509.785	-14.508	-0.356	0.230
-508.770	-110.248	-0.615	-0.129
-507.756	-126.297	-0.441	-0.066
-506.741	-200.000	-0.060	0.353
-505.726	800.000	-0.054	-0.166
-504.712	133.658	0.147	-0.191
-503.697	-44.933	-0.318	0.159
-502.683	-54.644	-0.667	0.303
-501.668	36.488	0.329	0.291
-500.653	367.336	-0.259	0.525
-499.639	60.811	0.359	0.357
-498.624	-52.407	-0.555	-0.258
-497.610	-35.550	-0.171	0.093
-496.595	253.299	-0.423	-0.724
-495.581	-200.000	-0.054	0.552
-494.566	-118.742	-0.912	-0.161
-493.551	-200.000	-0.052	0.261
-492.537	800.000	0.325	0.976
-491.522	-80.464	0.735	0.246
-490.508	-200.000	-0.008	-0.068
-489.493	-158.658	0.189	-0.011
-488.478	-18.570	-1.008	0.631
-487.464	158.673	0.293	-0.408
-486.449	142.858	-0.384	0.512
-485.435	-100.300	0.668	-0.166
-484.420	287.373	-0.141	-0.255
-483.405	-107.251	-1.060	-0.234
-482.391	3.648	0.573	0.419
-481.376	12.701	0.490	-0.379
-480.362	-200.000	0.051	-0.476
-479.347	-102.929	-0.360	-0.086
-478.332	-105.596	0.905	0.206
-477.318	-200.000	0.017	0.448
-476.303	-200.000	0.021	-0.493
-475.289	-122.044	-0.592	0.098
-474.274	20.397	-0.917	-0.742
-473.259	-94.603	0.104	0.028
-472.245	-41.051	-0.670	-0.347
-471.230	-63.635	-0.472	0.194
-470.216	800.000	-0.059	-0.181
-469.201	140.424	-0.043	0.057
-468.186	-200.000	-0.056	0.512
-467.172	170.880	0.107	-0.153
-466.157	106.844	0.346	-0.411
-465.143	78.154	-0.363	-0.388
-464.128	-18.365	-0.141	0.088
-463.113	95.427	-0.228	-0.260
-462.099	144.234	0.409	0.547
-461.084	660.134	-0.260	0.671
-460.070	8.670	-0.688	-0.519
-459.055	-200.000	-0.041	-0.545
-458.040	-200.000	-0.093	1.427
-457.026	520.612	0.373	0.876
-456.011	-17.899	0.074	0.046
-454.997	-71.150	-1.029	0.387
-453.982	417.033	0.586	-1.254
-452.968	602.324	0.049	-0.122
-451.953	-174.129	0.167	-0.005
-450.938	285.144	-0.223	0.402
-449.924	-15.341	0.420	0.269
-448.909	421.752	0.188	-0.405
-447.895	-148.209	-0.193	-0.016
-446.880	26.424	0.754	-0.631
-445.865	-83.485	-0.575	-0.184
-444.851	800.000	-0.314	-1.375
-443.836	115.673	0.494	0.605
-442.822	59.139	-0.733	0.722
-441.807	800.000	0.150	-0.427
-440.792	-28.470	0.758	-0.438
-439.778	-81.835	0.850	0.279
-438.763	777.070	0.143	0.390
-437.749	258.014	-0.638	1.100
-436.734	24.127	0.399	-0.330
-435.719	-23.166	0.710	-0.428
-434.705	800.000	-0.195	-0.691
-433.690	-76.010	0.504	-0.178
-432.676	60.787	0.549	0.545
-431.661	277.081	0.217	-0.386
-430.646	-121.803	-0.633	-0.105
-429.632	-14.364	-0.554	-0.357
-428.617	800.000	-0.042	-0.163
-427.603	196.541	-0.423	-0.644
-426.588	-200.000	-0.077	0.913
-425.573	-186.714	-0.699	0.010
-424.559	-30.367	-0.338	0.192
-423.544	-200.000	0.017	-0.421
-422.530	-130.394	0.213	0.029
-421.515	-6.800	0.226	-0.154
-420.500	-71.159	0.467	0.176
-419.486	519.487	-0.264	0.619
-418.471	-133.903	0.193	-0.024
-417.457	-117.132	-1.073	0.195
-416.442	-96.872	0.383	0.101
-415.428	-189.393	0.326	0.004
-414.413	-200.000	-0.073	0.997
-413.398	-67.563	0.342	0.134
-412.384	525.329	0.065	-0.153
-411.369	-200.000	0.043	-0.367
-410.355	-166.156	-0.934	0.040
-409.340	-82.061	0.130	-0.042
-408.325	-200.000	-0.075	-0.692
-407.311	384.551	-0.200	0.411
-406.296	-29.682	0.405	0.231
-405.282	40.368	0.211	0.190
-404.267	29.843	0.301	-0.257
-403.252	-78.421	0.221	0.076
-402.238	-7.974	0.812	-0.547
-401.223	800.000	-0.341	-1.010
-400.209	-134.567	0.368	-0.045
-399.194	593.561	-0.270	0.666
-398.179	-200.000	-0.091	0.415
-397.165	-55.945	0.366	-0.163
-396.150	-200.000	0.104	-0.529
-395.136	115.104	-0.163	0.199
-394.121	189.891	0.094	-0.141
-393.106	800.000	-0.163	0.654
-392.092	-8.477	-0.742	0.498
-391.077	-151.640	-0.059	0.004
-390.063	46.806	0.443	-0.411
-389.048	-200.000	0.051	0.392
-388.033	514.467	0.238	-0.555
-387.019	-35.093	-0.360	-0.196
-386.004	-154.175	-0.179	-0.012
-384.990	145.290	0.360	-0.481
-383.975	149.609	0.247	0.335
-382.960	-102.401	0.483	0.116
-381.946	-200.000	0.008	-0.056
-380.931	-105.468	0.386	-0.088
-379.917	800.000	0.287	1.174
-378.902	-200.000	0.019	-0.846
-377.888	193.142	-0.335	-0.506
-376.873	-152.130	0.436	-0.032
-375.858	-33.977	-0.899	0.494
-374.844	800.000	-0.048	-0.134
-373.829	-200.000	0.137	-1.210
-372.815	-122.398	0.336	0.055
-371.800	-176.766	-0.573	-0.015
-370.785	45.321	-0.376	0.346
-369.771	682.086	0.048	0.125
-368.756	-200.000	-0.170	0.923
-367.742	-48.377	-0.312	0.150
-366.727	175.625	0.436	0.632
-365.712	-100.492	0.135	-0.033
-364.698	178.513	0.554	-0.807
-363.683	-62.023	0.085	-0.036
-362.669	-79.996	0.310	-0.104
-361.654	35.503	0.590	-0.517
-360.639	-35.885	-0.105	-0.057
-359.625	-115.086	-0.633	0.120
-358.610	782.845	0.153	-0.418
-357.596	800.000	0.131	0.362
-356.581	67.607	0.126	0.129
-355.566	-89.224	0.983	0.289
-354.552	-62.840	0.335	-0.139
-353.537	-65.847	0.371	0.148
-352.523	54.955	-0.242	-0.233
-351.508	-159.259	0.864	0.048
-350.493	-76.705	0.568	0.199
-349.479	796.803	-0.273	0.751
-348.464	-11.863	0.550	-0.360
-347.450	-200.000	0.052	-0.860
-346.435	605.933	-0.264	-0.656
-345.420	323.283	-0.306	-0.583
-344.406	246.977	0.329	-0.553
-343.391	61.653	0.395	0.392
-342.377	55.367	0.280	0.270
-341.362	92.176	0.816	0.917
-340.348	125.344	0.305	-0.384
-339.333	65.364	0.795	0.802
-338.318	225.399	-0.349	-0.564
-337.304	148.065	0.039	0.053
-336.289	15.618	-0.058	0.045
-335.275	-200.000	-0.004	-0.624
-334.260	800.000	0.088	-0.369
-333.245	-10.107	0.699	0.463
-332.231	-200.000	0.034	-0.569
-331.216	-200.000	0.177	0.801
-330.202	800.000	-0.047	-0.160
-329.187	-200.000	0.036	-0.242
-328.172	-8.996	0.246	0.164
-327.158	49.080	0.287	0.269
-326.143	-30.158	-1.326	-0.751
-325.129	177.884	0.375	0.545
-324.114	800.000	0.085	-0.325
-323.099	-138.929	0.301	0.033
-322.085	143.031	-0.296	-0.393
-321.070	3.293	-0.187	0.135
-320.056	167.602	0.458	0.648
-319.041	-121.035	1.140	-0.191
-318.026	71.680	-0.458	0.475
-317.012	75.436	0.900	-0.946
-315.997	-200.000	-0.230	-1.037
-314.983	28.199	0.136	0.114
-313.968	-161.979	-0.583	-0.029
-312.953	190.220	0.329	0.493
-311.939	800.000	-0.184	-0.520
-310.924	-139.304	0.287	0.031
-309.910	-200.000	-0.454	-0.001
-308.895	93.116	0.167	0.188
-307.880	798.299	0.180	-0.495
-306.866	46.493	0.351	0.324
-305.851	-134.259	-0.303	0.037
-304.837	-200.000	0.091	-0.447
-303.822	-200.000	-0.044	0.529
-302.807	-72.996	0.172	-0.063
-301.793	11.424	0.298	0.227
-300.778	-200.000	-0.001	0.562
-299.764	800.000	-0.169	-0.682
-298.749	23.274	0.681	-0.557
-297.735	30.844	0.417	-0.356
-296.720	-99.574	0.481	-0.120
-295.705	352.634	-0.239	0.472
-294.691	-0.786	0.367	0.259
-293.676	-157.670	1.335	-0.079
-292.662	800.000	0.140	-0.515
-291.647	20.760	-0.206	0.166
-290.632	129.288	0.203	-0.258
-289.618	-129.212	-0.733	-0.102
-288.603	-60.211	-0.401	-0.170
-287.589	-107.479	-0.523	0.114
-286.574	-62.334	1.131	0.469
-285.559	38.150	0.065	0.057
-284.545	-177.824	-0.711	-0.017
-283.530	-157.176	-0.515	-0.031
-282.516	762.641	-0.327	0.882
-281.501	160.032	-0.657	0.911
-280.486	-22.731	-0.359	0.216
-279.472	-87.775	-0.434	-0.130
-278.457	-49.344	0.116	0.055
-277.443	165.940	0.304	0.428
-276.428	-129.648	-0.989	0.136
-275.413	-6.369	0.817	0.554
-274.399	-48.807	-0.946	-0.452
-273.384	285.836	0.309	0.555
-272.370	-132.799	-0.670	0.085
-271.355	218.321	-0.318	-0.504
-270.340	175.564	0.395	0.570
-269.326	-200.000	-0.057	0.722
-268.311	800.000	-0.290	0.887
-267.297	-200.000	0.647	0.000
-266.282	-78.787	0.251	-0.085
-265.267	794.362	0.084	-0.230
-264.253	-105.334	0.299	0.068
-263.238	800.000	0.119	0.477
-262.224	-118.727	0.349	-0.061
-261.209	800.000	0.080	0.235
-260.195	52.223	0.276	0.262
-259.180	137.116	0.568	0.738
-258.165	800.000	-0.026	-0.082
-257.151	141.551	-0.183	-0.240
-256.136	800.000	-0.057	0.238
-255.122	165.349	0.149	0.209
-254.107	-59.599	-0.334	0.142
-253.092	800.000	0.195	0.569
-252.078	28.363	-0.706	-0.593
-251.063	-114.666	0.619	-0.118
-250.049	-148.279	-0.559	0.046
-249.034	76.920	-0.379	-0.399
-248.019	433.812	-0.134	0.288
-247.005	-177.456	-0.123	-0.003
-245.990	800.000	-0.175	-0.616
-244.976	800.000	-0.047	-0.169
-243.961	77.586	0.424	0.448
-242.946	393.325	0.123	0.254
-241.932	334.137	-0.244	-0.470
-240.917	800.000	-0.273	0.811
-239.903	-200.000	0.022	0.622
-238.888	-191.401	-0.413	0.004
-237.873	270.852	0.243	0.424
-236.859	-15.759	-0.412	-0.261
-235.844	-84.510	0.408	-0.128
-234.830	113.864	0.294	-0.355
-233.815	-200.000	-0.060	-0.571
-232.800	304.075	-0.677	1.247
-231.786	108.147	0.165	-0.195
-230.771	800.000	0.133	-0.388
-229.757	88.679	-0.403	-0.445
-228.742	614.867	-0.127	0.316
-227.727	-113.695	0.328	0.063
-226.713	285.868	-0.151	0.270
-225.698	-200.000	0.041	-0.211
-224.684	-102.129	0.541	-0.129
-223.669	468.689	-0.150	0.334
-222.655	47.227	0.448	-0.414
-221.640	75.079	0.646	0.675
-220.625	-50.531	1.108	-0.519
-219.611	800.000	-0.239	-0.813
-218.596	33.035	0.385	0.331
-217.582	515.355	-0.031	-0.072
-216.567	-200.000	-0.035	0.157
-215.552	-15.786	-0.392	-0.248
-214.538	-200.000	-0.045	0.235
-213.523	800.000	-0.126	0.469
-212.509	40.729	-0.285	0.255
-211.494	-36.078	-0.847	-0.454
-210.479	-171.746	0.360	0.012
-209.465	-13.487	0.508	0.327
-208.450	-65.096	-0.454	0.182
-207.436	-40.678	-0.538	-0.277
-206.421	0.932	-0.423	0.300
-205.406	65.407	0.272	0.273
-204.392	328.853	0.286	-0.545
-203.377	9.825	-0.262	-0.197
-202.363	800.000	-0.213	-0.839
-201.348	200.183	-0.366	-0.557
-200.333	-200.000	0.247	-1.112
-199.319	261.861	-0.389	0.669
-198.304	235.443	-0.387	0.633
-197.290	-138.840	0.231	-0.025
-196.275	800.000	-0.111	0.323
-195.260	-157.511	0.833	0.050
-194.246	137.177	-0.119	-0.154
-193.231	-164.764	-0.479	0.021
-192.217	113.425	0.503	0.605
-191.202	-34.600	-0.607	-0.329
-190.187	-160.564	0.314	-0.017
-189.173	41.826	0.244	-0.219
-188.158	-56.508	-0.724	-0.318
-187.144	148.545	0.600	0.804
-186.129	32.929	-0.349	-0.299
-185.114	-69.491	0.994	0.378
-184.100	-42.363	-0.515	-0.261
-183.085	239.679	0.198	0.327
-182.071	142.574	0.073	0.096
-181.056	101.554	0.303	-0.350
-180.042	800.000	0.036	0.100
-179.027	800.000	0.165	0.620
-178.012	473.420	-0.179	0.399
-176.998	-30.870	-0.258	0.145
-175.983	163.745	-0.239	-0.333
-174.969	-61.775	-0.710	-0.295
-173.954	130.597	0.293	0.373
-172.939	424.850	-0.311	0.663
-171.925	218.869	-0.503	0.796
-170.910	-90.590	-1.016	0.291
-169.896	-200.000	0.037	0.975
-168.881	-87.256	0.897	0.270
-167.866	-37.155	-0.155	-0.082
-166.852	-102.714	0.379	0.089
-165.837	67.878	0.418	0.423
-164.823	800.000	-0.180	-0.593
-163.808	-200.000	-0.036	-0.666
-162.793	114.834	0.315	-0.380
-161.779	-200.000	0.026	-0.212
-160.764	-86.799	0.671	0.203
-159.750	-54.831	0.649	-0.290
-158.735	-200.000	-0.676	0.003
-157.720	-200.000	0.057	-0.265
-156.706	-127.813	0.802	0.114
-155.691	-77.555	0.577	0.198
-154.677	349.665	0.155	0.304
-153.662	592.973	-0.102	0.248
-152.647	12.841	-0.342	0.261
-151.633	-151.069	-0.411	0.031
-150.618	800.000	-0.144	0.511
-149.604	141.215	0.439	0.574
-148.589	-85.598	0.894	-0.275
-147.574	467.372	-0.355	0.789
-146.560	70.527	-0.509	0.521
-145.545	66.139	-0.349	0.350
-144.531	-142.109	0.569	0.056
-143.516	243.665	0.434	0.720
-142.502	107.343	0.184	0.216
-141.487	313.397	-0.208	0.386
-140.472	-89.746	-0.478	0.138
-139.458	365.281	0.104	0.208
-138.443	-162.286	1.139	-0.056
-137.429	75.874	-0.324	-0.339
-136.414	800.000	-0.103	0.328
-135.399	-101.091	-0.588	0.142
-134.385	232.805	0.318	0.516
-133.370	55.292	-0.438	0.419
-132.356	74.076	0.057	-0.059
-131.341	-101.310	0.867	-0.209
-130.326	303.278	-0.237	-0.433
-129.312	-200.000	-0.053	0.235
-128.297	-18.149	-0.598	-0.370
-127.283	800.000	0.215	0.748
-126.268	16.551	-0.385	-0.301
-125.253	-200.000	0.020	-0.468
-124.239	131.834	-0.296	0.377
-123.224	418.047	-0.281	-0.594
-122.210	-200.000	-0.085	-0.779
-121.195	-134.788	0.595	-0.071
-120.180	-61.825	-0.413	0.171
-119.166	13.245	-0.552	-0.423
-118.151	-85.329	0.117	-0.036
-117.137	-101.291	0.415	0.100
-116.122	9.997	0.231	0.174
-115.107	-70.501	0.162	-0.061
-114.093	800.000	0.133	-0.462
-113.078	-92.154	-0.073	-0.021
-112.064	168.083	0.186	0.261
-111.049	-26.734	0.580	0.335
-110.034	-67.146	-0.379	-0.147
-109.020	-133.055	-0.922	0.116
-108.005	271.090	0.210	0.366
-106.991	-156.618	-0.242	-0.015
-105.976	-58.766	-0.294	0.126
-104.962	-200.000	-0.018	0.315
-103.947	109.777	-0.116	-0.137
-102.932	800.000	0.173	0.513
-101.918	-31.098	0.267	-0.149
-100.903	800.000	0.131	-0.558
-99.889	-200.000	-0.071	-1.075
-98.874	-145.911	-0.047	0.004
-97.859	800.000	-0.094	-0.370
-96.845	24.261	-0.487	-0.398
-95.830	-189.449	0.646	0.007
-94.816	-24.907	-0.613	-0.359
-93.801	282.702	-0.225	0.399
-92.786	-109.771	-0.711	-0.148
-91.772	22.543	0.813	-0.657
-90.757	-50.572	-0.665	0.310
-89.743	800.000	-0.052	0.147
-88.728	-42.415	-0.618	-0.311
-87.713	454.750	-0.223	-0.488
-86.699	-200.000	-0.081	0.708
-85.684	315.912	-0.145	0.269
-84.670	-200.000	0.057	0.519
-83.655	21.487	-0.379	0.304
-82.640	-86.080	-0.386	0.118
-81.626	-133.943	-0.540	-0.066
-80.611	-117.715	0.915	-0.163
-79.597	-6.125	-0.406	-0.274
-78.582	453.681	0.139	-0.304
-77.567	-68.203	0.580	-0.223
-76.553	8.956	0.542	0.404
-75.538	-168.045	-0.682	-0.026
-74.524	204.110	0.461	-0.705
-73.509	800.000	0.185	0.690
-72.494	430.821	0.286	0.612
-71.480	800.000	0.156	0.465
-70.465	-25.762	0.325	-0.189
-69.451	-101.434	0.692	0.166
-68.436	800.000	0.177	0.723
-67.422	-200.000	-0.026	0.432
-66.407	-22.213	0.195	0.116
-65.392	-3.504	0.380	0.261
-64.378	-200.000	-0.024	-0.238
-63.363	270.357	0.419	0.726
-62.349	-142.339	0.936	0.091
-61.334	-110.848	-1.213	-0.246
-60.319	141.975	0.417	0.545
-59.305	-200.000	0.039	0.431
-58.290	661.589	0.376	0.956
-57.276	-200.000	0.237	1.592
-56.261	-200.000	96.106	572.255
-55.246	627.829	1376.348	3428.284
-54.232	196.959	2553.202	3838.764
-53.217	118.313	2137.057	2599.006
-52.203	45.084	1602.592	1455.855
-51.188	37.126	1342.004	1171.289
-50.173	33.953	1300.073	1116.054
-49.159	57.732	1348.885	1300.483
-48.144	58.961	1366.613	1324.853
-47.130	37.217	1322.832	1154.912
-46.115	33.855	1305.951	1120.338
-45.100	33.634	1302.154	1115.738
-44.086	33.499	1298.994	1112.197
-43.071	33.277	1297.113	1109.240
-42.057	33.554	1293.526	1107.745
-41.042	33.528	1292.743	1106.883
-40.027	33.417	1291.308	1104.961
-39.013	33.365	1289.850	1103.365
-37.998	33.590	1287.905	1102.969
-36.984	33.654	1285.057	1100.856
-35.969	33.645	1284.469	1100.259
-34.954	33.680	1283.357	1099.465
-33.940	33.513	1282.417	1097.646
-32.925	33.984	1280.094	1098.340
-31.911	33.652	1279.464	1095.835
-30.896	34.011	1276.492	1095.315
-29.881	33.567	1276.055	1092.342
-28.867	33.949	1273.784	1092.551
-27.852	33.883	1272.963	1091.421
-26.838	33.866	1271.393	1089.934
-25.823	33.974	1269.310	1088.722
-24.809	33.801	1269.426	1087.793
-23.794	33.679	1267.390	1085.302
-22.779	33.786	1265.672	1084.403
-21.765	33.728	1265.184	1083.612
-20.750	33.620	1264.790	1082.613
-19.736	33.601	1262.000	1080.074
-18.721	33.509	1261.655	1079.209
-17.706	33.844	1258.910	1078.725
-16.692	33.684	1258.294	1077.246
-15.677	33.398	1258.696	1075.923
-14.663	33.596	1256.902	1075.470
-13.648	33.399	1256.434	1073.907
-12.633	33.769	1254.594	1074.388
-11.619	33.599	1254.205	1073.050
-10.604	33.780	1253.004	1073.004
-9.590	33.707	1252.645	1072.239
-8.575	33.803	1251.275	1071.568
-7.560	33.678	1251.337	1070.873
-6.546	33.506	1250.025	1068.736
-5.531	33.784	1248.251	1068.744
-4.517	33.718	1247.298	1067.512
-3.502	33.750	1247.197	1067.562
-2.487	33.376	1247.355	1065.552
-1.473	33.220	1242.519	1060.504
-0.458	32.008	1225.556	1039.278
0.556	29.516	1207.834	1001.541
1.571	25.329	1213.512	983.285
2.586	24.031	1228.699	988.296
3.600	23.580	1217.651	976.842
4.615	17.292	1145.946	886.552
5.629	7.461	1069.730	779.434
6.644	3.361	1048.817	744.353
7.659	3.198	1045.547	741.183
8.673	2.686	1045.239	738.433
9.688	2.679	1043.911	737.396
10.702	3.052	1042.211	737.922
11.717	9.031	1050.338	772.465
12.731	18.985	1064.459	831.116
13.746	24.825	1071.984	865.248
14.761	26.087	1073.835	872.773
15.775	26.216	1072.970	872.617
16.790	26.183	1071.422	871.118
17.804	26.017	1071.805	870.551
18.819	26.170	1070.551	870.197
19.834	26.405	1070.932	871.562
20.848	26.465	1070.396	871.337
21.863	26.561	1070.215	871.574
22.877	26.438	1069.476	870.302
23.892	26.457	1068.360	869.410
24.907	26.180	1068.174	867.848
25.921	26.496	1066.487	867.920
26.936	26.244	1065.584	865.901
27.950	26.502	1063.396	865.280
28.965	26.405	1061.781	863.424
29.980	26.358	1060.980	862.474
30.994	26.365	1060.565	862.094
32.009	26.314	1058.809	860.346
33.023	26.035	1058.104	858.371
34.038	26.357	1057.329	859.195
35.053	26.498	1056.335	858.982
36.067	26.189	1056.382	857.475
37.082	26.656	1054.104	857.763
38.096	26.679	1054.215	857.886
39.111	26.985	1053.237	858.463
40.126	26.683	1051.609	855.636
41.140	26.105	1050.403	851.848
42.155	25.746	1049.694	849.506
43.169	26.006	1048.071	849.340
44.184	25.548	1048.293	847.288
45.199	25.775	1046.455	846.796
46.213	25.913	1046.460	847.373
47.228	26.297	1044.708	847.683
48.242	26.294	1044.823	847.685
49.257	26.288	1043.147	846.225
50.271	26.546	1043.052	847.279
51.286	26.691	1041.457	846.587
52.301	26.320	1041.172	844.545
53.315	25.995	1040.525	842.427
54.330	26.308	1039.120	842.675
55.344	26.220	1038.551	841.731
56.359	26.095	1038.235	840.817
57.374	25.939	1037.284	839.244
58.388	26.235	1035.210	838.868
59.403	25.981	1035.551	837.893
60.417	26.067	1034.356	837.247
61.432	25.781	1034.619	836.061
62.447	25.861	1034.105	835.941
63.461	26.260	1031.748	835.811
64.476	26.243	1031.003	835.056
65.490	25.794	1031.136	833.010
66.505	26.161	1028.864	832.795
67.520	26.190	1028.135	832.264
68.534	25.738	1028.978	830.789
69.549	25.481	1026.946	827.890
70.563	25.790	1025.536	828.100
71.578	25.762	1025.713	828.045
72.593	25.453	1024.877	825.874
73.607	25.714	1024.080	826.356
74.622	26.014	1023.394	827.107
75.636	25.978	1022.812	826.397
76.651	25.743	1022.062	824.642
77.666	25.555	1021.634	823.366
78.680	25.786	1020.764	823.647
79.695	25.990	1019.922	823.827
80.709	25.887	1020.089	823.419
81.724	26.150	1018.861	823.555
82.739	25.653	1018.645	821.039
83.753	26.151	1017.180	822.052
84.768	26.505	1016.896	823.362
85.782	26.800	1015.779	823.725
86.797	26.705	1015.289	822.826
87.812	26.515	1013.463	820.410
88.826	26.637	1012.774	820.331
89.841	26.825	1012.139	820.596
90.855	26.509	1011.428	818.519
91.870	26.459	1011.137	817.986
92.884	26.557	1009.192	816.780
93.899	26.482	1009.142	816.330
94.914	26.569	1007.280	815.144
95.928	26.502	1006.305	813.980
96.943	26.125	1005.622	811.660
97.957	25.924	1004.634	809.892
98.972	25.816	1003.191	808.171
99.987	25.988	1003.654	809.244
101.001	26.376	1001.635	809.280
102.016	26.276	1000.441	807.800
103.030	26.131	1000.982	807.514
104.045	26.295	998.854	806.456
105.060	26.026	998.866	805.196
106.074	26.247	997.756	805.213
107.089	26.090	998.168	804.778
108.103	26.448	996.356	804.837
109.118	26.222	994.769	802.481
110.133	26.175	993.983	801.565
111.147	25.961	992.379	799.256
112.162	25.595	992.446	797.614
113.176	26.077	990.653	798.237
114.191	25.907	990.630	797.396
115.206	25.593	990.640	795.944
116.220	25.755	987.793	794.299
117.235	25.848	988.667	795.344
118.249	25.863	987.429	794.341
119.264	25.374	986.736	791.560
120.279	25.762	985.732	792.390
121.293	25.889	984.496	791.887
122.308	25.881	984.507	791.790
123.322	25.907	982.122	789.917
124.337	25.679	981.986	788.739
125.352	25.069	980.438	784.755
126.366	24.930	979.342	783.198
127.381	25.531	980.010	786.292
128.395	26.318	979.328	789.116
129.410	26.155	979.256	788.278
130.424	26.350	977.181	787.384
131.439	26.018	976.854	785.606
132.454	26.342	975.596	785.933
133.468	25.970	974.938	783.716
134.483	26.237	974.310	784.303
135.497	26.391	974.136	784.760
136.512	26.461	972.669	783.813
137.527	26.525	971.006	782.679
138.541	26.658	970.176	782.517
139.556	26.246	971.075	781.391
140.570	26.300	970.244	780.888
141.585	26.649	969.560	781.774
142.600	26.554	967.908	779.963
143.614	26.745	967.504	780.394
144.629	26.865	966.205	779.792
145.643	26.323	965.666	776.957
146.658	26.502	964.270	776.535
147.673	26.266	962.515	774.041
148.687	26.293	961.814	773.526
149.702	26.395	960.411	772.763
150.716	26.115	960.271	771.388
151.731	26.304	960.091	771.983
152.746	26.571	958.885	772.082
153.760	26.664	958.559	772.147
154.775	26.607	958.045	771.421
155.789	26.714	956.807	770.813
156.804	26.911	956.132	771.036
157.819	26.726	955.450	769.635
158.833	26.679	954.159	768.328
159.848	26.980	953.730	769.188
160.862	26.801	952.443	767.327
161.877	26.734	951.622	766.313
162.892	26.811	949.974	765.244
163.906	26.907	948.768	764.610
164.921	26.526	947.943	762.270
165.935	26.832	947.223	762.914
166.950	26.934	945.746	762.082
167.964	26.582	945.954	760.704
168.979	26.519	944.877	759.510
169.994	26.616	943.795	758.977
171.008	26.532	943.578	758.383
172.023	26.724	942.159	757.980
173.037	26.579	941.298	756.614
174.052	26.310	940.559	754.830
175.067	26.376	940.600	755.071
176.081	26.640	939.503	755.225
177.096	26.649	938.257	754.193
178.110	25.996	937.570	750.857
179.125	26.137	937.396	751.240
180.140	26.117	936.837	750.642
181.154	26.106	936.384	750.164
182.169	26.709	936.028	752.319
183.183	26.799	935.654	752.324
184.198	26.612	934.645	750.669
185.213	26.720	933.038	749.760
186.227	26.655	933.830	750.060
187.242	26.817	933.058	750.045
188.256	26.718	932.899	749.444
189.271	26.875	931.453	748.863
190.286	26.606	929.754	746.322
191.300	25.859	928.404	742.098
192.315	24.843	927.575	737.187
193.329	25.088	926.487	737.264
194.344	25.542	928.100	740.351
195.359	26.723	927.126	744.362
196.373	26.618	927.164	743.897
197.388	26.660	925.628	742.770
198.402	26.458	925.983	742.160
199.417	26.335	925.445	741.159
200.432	26.205	924.840	740.077
201.446	26.212	923.588	739.039
202.461	26.301	923.165	739.000
203.475	25.364	921.441	733.725
204.490	24.781	919.078	729.405
205.504	25.614	920.369	733.763
206.519	26.186	920.448	736.093
207.534	26.014	919.917	734.903
208.548	26.530	920.018	737.021
209.563	26.555	917.605	735.123
210.577	26.516	917.369	734.713
211.592	27.277	916.820	737.293
212.607	26.793	917.201	735.570
213.621	26.644	915.902	733.859
214.636	26.803	915.395	734.033
215.650	26.581	915.397	733.071
216.665	26.591	915.152	732.849
217.680	27.139	913.172	733.414
218.694	26.476	911.817	729.588
219.709	26.003	912.589	728.232
220.723	26.501	911.642	729.419
221.738	26.374	910.832	728.195
222.753	26.500	910.331	728.236
223.767	26.720	910.550	729.234
224.782	26.813	909.513	728.711
225.796	27.063	909.056	729.285
226.811	26.276	907.845	725.091
227.826	25.738	906.168	721.532
228.840	25.658	906.186	721.164
229.855	25.846	904.323	720.367
230.869	25.666	904.263	719.539
231.884	26.278	903.582	721.374
232.899	26.640	903.803	722.933
233.913	26.350	904.213	722.040
234.928	26.597	903.254	722.194
235.942	26.395	902.630	720.827
236.957	26.178	901.097	718.676
237.972	25.868	901.458	717.663
238.986	26.002	900.996	717.767
240.001	26.011	900.248	717.143
241.015	26.393	899.110	717.690
242.030	26.454	898.987	717.771
243.045	26.820	898.483	718.754
244.059	26.703	898.770	718.459
245.074	26.356	897.904	716.328
246.088	26.243	895.665	714.032
247.103	26.238	896.353	714.495
248.117	26.736	895.593	715.795
249.132	27.217	895.557	717.602
250.147	26.947	895.951	716.788
251.161	27.459	894.484	717.569
252.176	27.089	894.555	716.104
253.190	27.618	893.097	716.956
254.205	27.453	893.595	716.642
255.220	27.617	892.768	716.560
256.234	27.502	891.987	715.418
257.249	27.140	890.868	713.038
258.263	27.667	889.543	713.978
259.278	27.867	888.295	713.692
260.293	27.821	889.588	714.489
261.307	27.604	888.179	712.446
262.322	27.133	886.890	709.513
263.336	26.357	886.320	705.962
264.351	25.307	884.181	700.106
265.366	25.455	884.711	701.042
266.380	26.417	884.119	704.259
267.395	26.746	884.851	706.061
268.409	27.324	883.328	707.029
269.424	27.406	882.744	706.819
270.439	27.430	881.849	706.132
271.453	27.511	881.688	706.252
272.468	27.753	881.242	706.771
273.482	27.578	882.078	706.702
274.497	27.055	880.427	703.293
275.512	26.643	879.597	700.971
276.526	27.215	879.278	702.867
277.541	27.563	878.056	703.173
278.555	27.346	877.258	701.633
279.570	26.873	877.048	699.578
280.585	27.352	875.673	700.264
281.599	27.351	874.497	699.261
282.614	26.482	874.094	695.536
283.628	26.502	873.841	695.350
284.643	26.636	873.650	695.652
285.657	26.189	873.056	693.399
286.672	26.326	871.751	692.829
287.687	26.588	872.314	694.218
288.701	26.557	871.432	693.338
289.716	26.269	871.300	692.066
290.730	26.472	870.193	691.905
291.745	26.365	868.859	690.374
292.760	26.807	869.151	692.231
293.774	27.537	868.928	694.779
294.789	28.113	868.396	696.486
295.803	27.975	867.407	695.105
296.818	27.985	867.207	694.922
297.833	27.405	866.734	692.274
298.847	27.585	865.194	691.667
299.862	27.483	866.365	692.153
300.876	27.602	864.924	691.392
301.891	27.674	864.182	691.013
302.906	27.269	863.963	689.242
303.920	27.182	864.661	689.406
304.935	28.066	862.261	690.775
305.949	27.440	863.512	689.345
306.964	27.110	862.693	687.383
307.979	27.520	861.510	687.929
308.993	28.004	861.506	689.690
310.008	27.956	860.795	688.881
311.022	27.657	859.419	686.591
312.037	27.618	859.425	686.388
313.052	27.205	857.815	683.489
314.066	26.275	856.719	679.065
315.081	26.037	855.937	677.489
316.095	26.641	856.770	680.358
317.110	27.362	856.525	682.811
318.125	26.734	854.118	678.479
319.139	25.750	852.977	673.835
320.154	25.360	852.878	672.237
321.168	26.275	853.211	675.864
322.183	26.888	853.797	678.563
323.197	27.303	852.441	678.975
324.212	27.580	852.776	680.214
325.227	27.667	851.250	679.262
326.241	27.374	851.844	678.583
327.256	27.132	851.353	677.230
328.270	27.524	849.530	677.175
329.285	26.863	849.270	674.454
330.300	26.757	848.518	673.403
331.314	26.948	847.951	673.601
332.329	27.347	848.338	675.331
333.343	27.624	848.019	676.045
334.358	27.462	847.060	674.620
335.373	27.296	846.566	673.553
336.387	28.091	846.872	676.679
337.402	28.190	845.166	675.621
338.416	28.122	846.184	676.125
339.431	28.052	845.995	675.654
340.446	28.166	846.653	676.542
341.460	28.218	845.700	675.911
342.475	28.243	844.390	674.897
343.489	28.401	843.816	674.962
344.504	28.233	843.724	674.211
345.519	28.543	843.527	675.132
346.533	28.409	843.204	674.322
347.548	28.347	842.866	673.762
348.562	28.257	841.739	672.471
349.577	28.664	840.677	673.059
350.592	28.205	840.304	671.018
351.606	28.466	839.982	671.655
352.621	28.671	839.401	671.883
353.635	28.420	838.644	670.301
354.650	27.571	836.200	665.192
355.665	26.665	835.370	661.167
356.679	27.194	835.543	663.176
357.694	27.450	835.610	664.102
358.708	27.353	834.163	662.543
359.723	27.840	834.439	664.473
360.738	28.196	834.503	665.761
361.752	28.126	833.029	664.274
362.767	28.671	832.695	665.925
363.781	28.647	833.061	666.073
364.796	28.934	832.218	666.378
365.810	28.983	831.567	665.979
366.825	28.850	831.648	665.501
367.840	28.464	830.967	663.502
368.854	27.800	830.599	660.745
369.869	27.999	829.530	660.558
370.883	28.256	828.692	660.756
371.898	27.814	828.693	659.104
372.913	28.584	827.855	661.156
373.927	28.554	827.725	660.885
374.942	28.530	827.520	660.578
375.956	28.580	827.647	660.798
376.971	28.762	826.571	660.535
377.986	28.880	827.096	661.323
379.000	28.542	826.593	659.646
380.015	28.817	824.894	659.221
381.029	28.867	824.081	658.690
382.044	28.865	824.959	659.327
383.059	28.817	823.899	658.247
384.073	28.768	822.942	657.251
385.088	28.685	822.091	656.215
386.102	28.419	822.052	655.177
387.117	28.789	820.693	655.355
388.132	28.524	819.282	653.225
389.146	27.542	818.917	649.379
390.161	27.903	819.139	650.784
391.175	28.314	818.993	652.075
392.190	28.164	817.701	650.455
393.205	26.696	816.112	643.922
394.219	25.275	813.968	637.132
395.234	24.984	813.946	636.025
396.248	26.745	815.158	643.171
397.263	28.238	816.146	649.193
398.278	28.211	815.973	648.901
399.292	27.814	814.773	646.487
400.307	28.045	814.058	646.678
401.321	28.232	814.211	647.405
402.336	29.011	812.833	649.002
403.350	29.183	812.901	649.603
404.365	29.150	814.377	650.610
405.380	29.707	813.427	651.759
406.394	29.769	813.172	651.714
407.409	29.252	812.867	649.590
408.423	29.327	812.355	649.389
409.438	30.025	811.434	651.047
410.453	29.322	811.684	648.718
411.467	29.518	811.137	648.911
412.482	29.378	810.337	647.725
413.496	29.918	809.370	648.788
414.511	29.273	810.123	647.069
415.526	29.288	809.592	646.641
416.540	29.148	808.599	645.301
417.555	29.284	807.136	644.552
418.569	28.946	807.779	643.825
419.584	28.778	807.032	642.583
420.599	28.842	806.057	641.977
421.613	159.343	1371.198	1792.835
422.628	138.459	1453.562	1792.887
