DTS Sentinel unit serial number:	SN413079Multiplexer serial number:	ORYXHardware model number:	OX4-SRSoftware version number:	ORYX F/W v4.00 Oryx Data Collector v3.7.2.0data status	okinstallation	princeton_trtdifferential loss correction	single-endedforward channel	channel 1reverse channel	N/Adate	2019/09/19time	05:30:35forward acquisition time	60.00reverse acquisition time	0.00gamma	496.2192k internal	0.2343k external	0.2343temperature offset calibration	1.0021default loss term (dB/km)	0.3790temperature slope calibration	1.0000multiplexer offset coefficient	1.0000multiplexer slope coefficient	1.0000fibre end	0.00T internal ref (°C)	19.37T ext. ref 1 (°C)	0.60T ext. ref 2 (°C)	13.05length (m)	temperature (°C)	Stokes	anti-Stokes-747.200	-178.919	0.076	0.002
-746.185	720.740	-0.101	0.270
-745.171	38.618	-0.118	0.106
-744.156	-200.000	-0.031	0.180
-743.142	142.334	-0.137	-0.182
-742.127	107.651	-0.155	0.185
-741.112	-108.763	-0.314	0.067
-740.098	168.157	0.207	0.295
-739.083	60.960	0.398	-0.395
-738.069	3.436	-0.331	-0.242
-737.054	-19.688	-0.208	-0.128
-736.039	-11.022	-0.378	0.250
-735.025	433.701	0.086	0.186
-734.010	-80.211	-0.201	0.067
-732.996	-56.482	-0.389	-0.173
-731.981	41.184	0.186	0.168
-730.966	-73.737	-0.147	-0.053
-729.952	-118.032	-0.216	0.039
-728.937	-89.629	-0.188	0.055
-727.923	-112.448	-0.283	0.057
-726.908	603.974	0.030	-0.076
-725.894	118.962	-0.181	0.224
-724.879	-8.814	-0.286	0.192
-723.864	-141.831	0.337	-0.034
-722.850	-200.000	0.020	0.246
-721.835	130.296	0.062	0.079
-720.821	-57.373	-0.188	0.083
-719.806	-98.260	0.481	-0.123
-718.791	382.557	-0.095	-0.196
-717.777	68.367	0.118	-0.121
-716.762	-91.289	0.119	0.034
-715.748	-105.053	-0.311	0.071
-714.733	255.122	0.015	-0.026
-713.718	-47.011	-0.247	0.121
-712.704	80.329	-0.194	-0.209
-711.689	-4.047	-0.213	-0.147
-710.675	-200.000	-0.031	0.238
-709.660	-39.128	0.162	-0.085
-708.645	64.797	-0.211	-0.213
-707.631	19.251	-0.243	-0.195
-706.616	800.000	-0.024	-0.069
-705.602	-26.660	0.160	0.094
-704.587	-70.497	0.083	-0.031
-703.572	-28.014	0.247	-0.143
-702.558	-200.000	-0.012	-0.146
-701.543	461.468	0.020	0.045
-700.529	350.402	0.069	0.136
-699.514	-200.000	0.022	0.144
-698.499	-88.277	0.145	0.043
-697.485	113.361	-0.188	0.228
-696.470	800.000	-0.072	0.209
-695.456	-166.185	0.171	0.007
-694.441	169.788	-0.049	-0.070
-693.426	105.127	0.098	-0.115
-692.412	100.028	0.252	0.292
-691.397	-68.414	-0.201	0.078
-690.383	-178.996	0.321	0.007
-689.368	333.723	0.121	0.234
-688.354	77.893	0.089	-0.095
-687.339	73.101	0.112	0.117
-686.324	549.816	0.037	0.089
-685.310	-165.522	-0.171	-0.007
-684.295	279.422	-0.073	-0.130
-683.281	-106.502	0.420	-0.094
-682.266	573.141	0.038	-0.092
-681.251	648.594	0.089	-0.228
-680.237	83.414	0.135	-0.147
-679.222	65.564	-0.109	0.110
-678.208	247.683	-0.040	-0.067
-677.193	44.838	0.069	0.063
-676.178	800.000	-0.101	-0.313
-675.164	-200.000	-0.059	-0.263
-674.149	-200.000	-0.053	0.325
-673.135	162.568	-0.154	-0.215
-672.120	-5.133	-0.151	-0.104
-671.105	-125.355	0.434	0.066
-670.091	-63.186	-0.225	0.092
-669.076	181.538	0.108	0.159
-668.062	328.830	-0.104	0.200
-667.047	800.000	0.078	-0.281
-666.032	-200.000	-0.008	-0.426
-665.018	265.944	-0.114	-0.199
-664.003	-103.298	-0.103	0.024
-662.989	-90.924	-0.205	0.059
-661.974	178.345	-0.159	-0.232
-660.959	-200.000	0.006	0.245
-659.945	-200.000	0.003	0.036
-658.930	301.419	0.153	-0.283
-657.916	64.607	0.201	0.202
-656.901	53.270	-0.228	-0.218
-655.886	159.996	0.172	-0.240
-654.872	474.918	-0.087	0.196
-653.857	476.892	0.191	-0.431
-652.843	30.937	-0.133	-0.114
-651.828	-67.600	-0.237	0.093
-650.814	219.979	0.218	-0.348
-649.799	309.370	0.103	0.193
-648.784	-142.749	0.198	0.019
-647.770	-59.699	-0.121	0.052
-646.755	-200.000	0.013	-0.169
-645.741	415.573	-0.067	-0.143
-644.726	-124.250	-0.447	-0.070
-643.711	35.680	0.110	0.096
-642.697	-200.000	-0.038	0.194
-641.682	-200.000	-0.045	-0.298
-640.668	-200.000	-0.038	-0.194
-639.653	-46.151	0.341	-0.168
-638.638	-7.822	-0.268	-0.181
-637.624	800.000	-0.017	0.050
-636.609	-53.157	0.144	-0.066
-635.595	-30.717	0.113	0.064
-634.580	-84.127	-0.341	-0.108
-633.565	85.163	0.146	0.160
-632.551	647.398	-0.095	-0.243
-631.536	57.563	0.121	-0.117
-630.522	230.224	-0.149	-0.243
-629.507	-101.624	-0.111	0.027
-628.492	2.768	-0.249	-0.180
-627.478	-129.841	-0.107	0.015
-626.463	211.621	0.050	-0.078
-625.449	-102.188	-0.091	-0.022
-624.434	-43.833	0.326	-0.164
-623.419	-200.000	-0.012	-0.173
-622.405	-110.389	-0.187	0.039
-621.390	398.281	0.151	-0.315
-620.376	-200.000	0.038	-0.289
-619.361	109.622	0.205	0.245
-618.346	-96.238	-0.281	-0.074
-617.332	-94.905	-0.148	0.040
-616.317	40.321	0.343	0.308
-615.303	-28.990	-0.303	0.173
-614.288	72.513	0.243	0.252
-613.273	-15.803	-0.221	0.141
-612.259	-200.000	0.067	-0.429
-611.244	-200.000	0.012	-0.290
-610.230	-149.097	0.177	-0.014
-609.215	-56.060	0.314	0.140
-608.201	343.968	0.112	-0.218
-607.186	142.167	-0.035	0.046
-606.171	61.600	0.141	0.140
-605.157	286.588	0.046	0.082
-604.142	148.219	0.066	-0.089
-603.128	800.000	0.032	0.121
-602.113	-34.308	0.032	-0.018
-601.098	35.404	-0.047	-0.041
-600.084	-200.000	0.072	-0.329
-599.069	-112.304	-0.245	0.049
-598.055	57.306	0.071	0.069
-597.040	-200.000	0.060	-0.265
-596.025	-49.335	-0.060	-0.029
-595.011	-35.727	0.348	0.188
-593.996	-50.491	-0.081	-0.038
-592.982	97.181	0.064	-0.073
-591.967	-200.000	-0.018	-0.123
-590.952	7.074	-0.220	0.163
-589.938	-68.788	-0.182	-0.070
-588.923	143.528	-0.102	-0.135
-587.909	-124.987	-0.171	0.026
-586.894	-59.764	-0.127	-0.054
-585.879	-200.000	-0.064	0.346
-584.865	-20.338	-0.299	-0.183
-583.850	-30.401	-0.107	-0.060
-582.836	42.436	-0.058	-0.053
-581.821	-200.000	0.006	0.159
-580.806	-181.945	-0.136	-0.003
-579.792	-66.290	-0.089	0.035
-578.777	67.052	-0.152	0.155
-577.763	-32.516	-0.108	0.060
-576.748	-5.353	-0.211	-0.144
-575.733	-21.602	-0.159	0.097
-574.719	-87.123	0.158	-0.048
-573.704	35.512	-0.252	-0.220
-572.690	469.129	-0.087	-0.194
-571.675	97.648	-0.287	-0.328
-570.661	265.329	0.145	0.251
-569.646	800.000	0.073	0.211
-568.631	405.509	-0.067	-0.141
-567.617	305.402	0.102	-0.189
-566.602	-19.236	0.213	0.131
-565.588	-8.776	-0.057	0.038
-564.573	88.718	-0.363	0.401
-563.558	800.000	-0.061	-0.184
-562.544	93.544	0.108	-0.121
-561.529	-6.493	0.169	-0.115
-560.515	299.286	-0.113	-0.207
-559.500	116.470	-0.193	-0.235
-558.485	-82.803	0.255	-0.082
-557.471	111.645	0.056	-0.067
-556.456	-200.000	-0.033	0.237
-555.442	-111.947	-0.197	0.039
-554.427	-78.454	0.435	-0.148
-553.412	-167.161	-0.089	-0.004
-552.398	10.660	0.159	0.120
-551.383	71.265	-0.218	0.224
-550.369	-128.928	0.328	0.046
-549.354	378.334	0.064	0.129
-548.339	21.438	-0.194	0.157
-547.325	93.772	0.078	0.088
-546.310	-200.000	-0.010	0.281
-545.296	470.570	-0.179	-0.399
-544.281	30.434	-0.063	0.053
-543.266	-200.000	0.037	-0.344
-542.252	-42.991	-0.069	0.035
-541.237	800.000	-0.199	-0.570
-540.223	800.000	-0.043	0.130
-539.208	-28.238	0.071	0.040
-538.193	239.892	0.143	0.237
-537.179	747.717	-0.070	-0.189
-536.164	-200.000	-0.026	-0.142
-535.150	-151.224	-0.151	0.011
-534.135	315.854	0.065	0.121
-533.121	66.936	0.129	-0.130
-532.106	269.868	0.118	-0.206
-531.091	7.068	-0.038	0.028
-530.077	261.981	0.140	0.241
-529.062	-153.310	-0.266	-0.018
-528.048	47.271	0.079	-0.073
-527.033	-100.762	0.254	0.062
-526.018	-200.000	-0.006	0.113
-525.004	241.306	0.088	0.145
-523.989	800.000	-0.055	-0.218
-522.975	444.132	0.225	0.490
-521.960	-73.778	0.123	0.044
-520.945	-200.000	-0.028	0.131
-519.931	-113.595	-0.066	0.013
-518.916	629.583	0.073	-0.183
-517.902	-87.172	-0.190	-0.057
-516.887	134.637	-0.115	0.148
-515.872	-131.840	0.381	-0.049
-514.858	40.258	-0.202	0.180
-513.843	425.373	0.096	-0.206
-512.829	56.251	0.247	-0.238
-511.814	-155.655	0.118	0.008
-510.799	19.630	0.294	-0.235
-509.785	139.002	0.123	-0.160
-508.770	-200.000	0.022	-0.192
-507.756	316.489	0.117	0.220
-506.741	800.000	0.126	0.367
-505.726	63.805	-0.177	0.176
-504.712	345.365	-0.147	-0.286
-503.697	26.683	0.207	0.172
-502.683	49.335	0.080	-0.075
-501.668	33.732	-0.171	0.147
-500.653	387.236	-0.036	-0.074
-499.639	-200.000	0.037	-0.246
-498.624	413.904	-0.138	0.292
-497.610	-200.000	0.010	0.406
-496.595	138.488	0.155	-0.202
-495.581	-193.792	0.136	0.001
-494.566	-200.000	-0.082	0.375
-493.551	-186.246	-0.285	0.004
-492.537	-200.000	-0.011	0.110
-491.522	27.522	0.339	0.283
-490.508	-20.729	-0.147	0.090
-489.493	-200.000	0.023	0.118
-488.478	375.220	-0.142	0.288
-487.464	121.395	-0.104	0.128
-486.449	196.244	0.235	-0.354
-485.435	-38.052	0.052	-0.027
-484.420	800.000	0.096	0.272
-483.405	6.531	0.118	-0.087
-482.391	-25.600	0.044	-0.026
-481.376	11.506	0.121	0.092
-480.362	-76.235	-0.148	-0.052
-479.347	64.897	0.112	0.112
-478.332	-200.000	-0.041	0.391
-477.318	354.302	-0.131	0.257
-476.303	-200.000	0.014	0.275
-475.289	181.019	-0.052	-0.076
-474.274	51.717	0.125	0.118
-473.259	243.016	0.085	-0.141
-472.245	387.869	0.162	-0.332
-471.230	28.469	0.141	-0.118
-470.216	-200.000	-0.028	-0.193
-469.201	113.482	-0.069	-0.083
-468.186	-120.582	-0.264	-0.044
-467.172	47.126	-0.263	0.243
-466.157	-108.950	0.232	0.049
-465.143	-5.790	-0.235	-0.159
-464.128	-191.757	0.346	0.003
-463.113	136.750	0.044	0.057
-462.099	73.494	0.143	0.148
-461.084	18.937	-0.204	-0.162
-460.070	106.900	-0.111	0.130
-459.055	191.320	-0.255	0.380
-458.040	-200.000	0.005	0.209
-457.026	260.730	0.034	0.058
-456.011	-105.998	-0.451	-0.100
-454.997	-89.241	-0.178	-0.052
-453.982	800.000	-0.027	0.090
-452.968	-112.261	-0.314	-0.062
-451.953	81.086	0.107	0.114
-450.938	2.205	0.092	0.066
-449.924	-68.073	0.049	-0.019
-448.909	-77.091	-0.174	0.060
-447.895	-200.000	0.015	0.278
-446.880	25.133	0.237	0.195
-445.865	360.935	-0.140	0.277
-444.851	33.830	-0.090	0.077
-443.836	-66.384	-0.346	0.136
-442.822	87.405	0.070	-0.077
-441.807	-120.428	-0.247	-0.042
-440.792	-182.757	-0.393	-0.007
-439.778	31.935	0.145	-0.124
-438.763	-66.027	-0.015	-0.006
-437.749	175.147	0.099	-0.142
-436.734	-165.883	-0.155	-0.007
-435.719	-200.000	-0.091	0.426
-434.705	-184.507	0.068	-0.001
-433.690	-10.690	0.018	0.012
-432.676	-103.795	0.188	-0.043
-431.661	-13.879	0.182	-0.117
-430.646	117.260	-0.206	-0.250
-429.632	-200.000	0.010	0.085
-428.617	-133.709	-0.167	0.021
-427.603	282.346	0.187	0.331
-426.588	-4.022	0.124	0.085
-425.573	-143.116	-0.326	-0.031
-424.559	-122.622	0.303	0.049
-423.544	-86.653	0.217	-0.066
-422.530	615.019	0.104	-0.258
-421.515	-59.917	-0.412	-0.174
-420.500	383.353	-0.065	-0.133
-419.486	341.782	-0.102	-0.196
-418.471	198.471	0.099	-0.149
-417.457	-66.739	0.257	0.100
-416.442	-86.837	-0.258	-0.078
-415.428	-200.000	0.018	0.179
-414.413	-161.655	0.213	0.011
-413.398	-200.000	-0.021	0.193
-412.384	131.581	0.228	-0.290
-411.369	-200.000	-0.059	-0.428
-410.355	9.292	0.252	0.189
-409.340	-51.594	0.343	-0.158
-408.325	400.850	0.025	-0.053
-407.311	326.396	-0.028	-0.052
-406.296	-200.000	-0.007	-0.262
-405.282	99.851	0.102	0.117
-404.267	336.486	0.079	-0.151
-403.252	800.000	0.077	-0.260
-402.238	40.885	-0.173	-0.154
-401.223	-114.932	-0.215	0.040
-400.209	-200.000	0.012	-0.083
-399.194	-30.956	-0.196	-0.109
-398.179	8.694	-0.186	0.138
-397.165	800.000	-0.077	0.309
-396.150	210.013	-0.213	0.330
-395.136	449.169	-0.106	0.231
-394.121	-173.906	0.105	0.003
-393.106	258.062	0.123	0.209
-392.092	-200.000	0.018	0.087
-391.077	34.034	0.160	-0.137
-390.063	800.000	-0.074	0.235
-389.048	83.797	-0.149	-0.160
-388.033	-57.312	0.059	0.025
-387.019	-200.000	0.018	0.208
-386.004	799.851	0.126	0.342
-384.990	-97.197	0.198	-0.051
-383.975	-200.000	-0.001	0.069
-382.960	-94.192	-0.217	-0.059
-381.946	-22.208	-0.235	-0.141
-380.931	143.836	-0.188	-0.247
-379.917	-37.152	-0.157	0.083
-378.902	78.995	-0.317	0.335
-377.888	477.255	-0.106	-0.236
-376.873	-200.000	-0.010	-0.259
-375.858	-143.227	0.200	0.019
-374.844	25.798	0.407	0.335
-373.829	-115.766	-0.207	0.038
-372.815	-132.558	-0.185	0.023
-371.800	-1.993	0.196	0.136
-370.785	246.521	0.094	-0.157
-369.771	246.477	0.213	-0.354
-368.756	-101.182	-0.191	-0.046
-367.742	-14.739	0.125	-0.079
-366.727	-130.144	-0.135	-0.018
-365.712	-1.985	-0.246	0.170
-364.698	44.224	0.237	0.215
-363.683	-115.008	-0.245	0.046
-362.669	-161.035	0.350	0.018
-361.654	-200.000	-0.040	-0.204
-360.639	106.153	0.130	-0.151
-359.625	-200.000	-0.032	0.165
-358.610	-68.451	-0.146	0.056
-357.596	-60.047	-0.300	-0.126
-356.581	-200.000	-0.029	-0.256
-355.566	-133.641	-0.292	0.036
-354.552	-69.711	0.142	-0.054
-353.537	-154.349	0.032	-0.002
-352.523	218.950	-0.113	0.178
-351.508	-200.000	0.005	0.174
-350.493	-200.000	0.031	0.267
-349.479	-123.074	0.279	-0.044
-348.464	-125.401	0.123	0.019
-347.450	-200.000	-0.113	0.541
-346.435	-200.000	0.053	-0.398
-345.420	-200.000	-0.011	0.239
-344.406	427.369	-0.096	-0.204
-343.391	-165.842	-0.190	-0.008
-342.377	167.560	-0.028	0.039
-341.362	-51.452	0.109	0.050
-340.348	800.000	0.101	-0.330
-339.333	328.272	0.124	0.235
-338.318	202.141	0.127	0.194
-337.304	-51.836	-0.100	-0.046
-336.289	800.000	-0.088	-0.268
-335.275	0.423	0.135	-0.095
-334.260	558.973	0.094	-0.224
-333.245	363.811	0.042	-0.083
-332.231	55.570	-0.108	-0.103
-331.216	-200.000	-0.027	0.117
-330.202	262.872	0.174	0.297
-329.187	-169.953	0.191	-0.007
-328.172	48.939	-0.187	0.173
-327.158	167.001	-0.071	0.099
-326.143	-113.677	0.078	0.015
-325.129	-45.081	-0.250	-0.123
-324.114	-175.805	0.204	-0.005
-323.099	-2.523	0.093	-0.064
-322.085	-200.000	0.019	-0.365
-321.070	35.272	0.132	0.114
-320.056	77.699	0.057	-0.060
-319.041	82.909	0.073	-0.079
-318.026	141.391	0.094	-0.122
-317.012	-10.087	-0.005	-0.003
-315.997	-25.098	-0.177	-0.103
-314.983	-60.472	0.338	0.142
-313.968	800.000	-0.081	0.270
-312.953	81.882	-0.067	0.072
-311.939	61.468	0.150	-0.147
-310.924	174.451	0.170	-0.242
-309.910	498.742	-0.053	-0.121
-308.895	-120.863	0.189	0.031
-307.880	65.910	0.089	-0.089
-306.866	777.781	0.059	-0.158
-305.851	169.308	-0.064	0.090
-304.837	-176.188	0.082	-0.002
-303.822	188.151	-0.130	0.191
-302.807	800.000	-0.086	0.368
-301.793	-44.824	0.191	-0.094
-300.778	189.585	0.188	-0.278
-299.764	-144.678	0.083	0.008
-298.749	-61.893	0.418	0.172
-297.735	800.000	0.088	-0.268
-296.720	240.343	-0.079	0.129
-295.705	-35.141	0.358	-0.192
-294.691	-200.000	-0.002	0.080
-293.676	45.181	0.086	-0.078
-292.662	140.825	0.061	-0.080
-291.647	-76.436	-0.117	0.040
-290.632	-200.000	0.004	-0.320
-289.618	-108.699	0.171	0.036
-288.603	800.000	-0.057	-0.230
-287.589	-200.000	-0.069	-0.363
-286.574	800.000	-0.041	0.127
-285.559	-105.972	-0.178	0.039
-284.545	79.084	0.115	0.121
-283.530	68.566	-0.247	0.249
-282.516	-169.180	-0.278	-0.010
-281.501	-51.819	0.154	0.071
-280.486	-88.485	-0.138	-0.040
-279.472	-95.871	0.370	0.097
-278.457	-80.195	-0.492	0.162
-277.443	771.707	0.042	-0.113
-276.428	-200.000	0.092	-0.494
-275.413	800.000	-0.124	0.371
-274.399	328.112	-0.098	-0.186
-273.384	800.000	-0.111	0.342
-272.370	347.479	-0.125	-0.242
-271.355	-14.176	0.263	0.167
-270.340	-128.910	-0.323	-0.045
-269.326	-74.961	0.145	0.051
-268.311	143.938	-0.051	0.066
-267.297	98.088	-0.179	-0.203
-266.282	800.000	0.054	0.213
-265.267	-85.911	0.175	0.053
-264.253	-116.257	-0.202	0.037
-263.238	68.125	0.251	-0.252
-262.224	-101.106	0.471	0.113
-261.209	-85.061	-0.100	-0.031
-260.195	640.773	-0.142	0.354
-259.180	-200.000	-0.008	-0.086
-258.165	-200.000	0.036	0.193
-257.151	-108.738	-0.231	0.049
-256.136	31.270	-0.135	-0.114
-255.122	-90.367	-0.111	0.032
-254.107	-143.917	-0.227	-0.021
-253.092	-32.671	0.237	-0.130
-252.078	-135.918	0.216	0.025
-251.063	458.447	0.061	-0.133
-250.049	646.314	-0.121	-0.303
-249.034	32.071	-0.208	0.176
-248.019	-200.000	-0.042	-0.230
-247.005	-146.692	0.280	-0.024
-245.990	-89.357	0.102	-0.030
-244.976	-200.000	-0.001	0.427
-243.961	-130.472	0.048	-0.006
-242.946	-200.000	-0.045	0.206
-241.932	800.000	-0.155	-0.442
-240.917	-89.192	0.278	-0.081
-239.903	26.738	0.277	-0.228
-238.888	279.229	0.100	0.176
-237.873	-109.230	0.241	0.050
-236.859	800.000	0.130	0.396
-235.844	16.883	-0.113	0.088
-234.830	-102.683	0.143	0.033
-233.815	-132.386	-0.310	-0.039
-232.800	-68.428	0.163	-0.062
-231.786	403.462	0.127	0.263
-230.771	-135.409	-0.197	-0.023
-229.757	569.842	0.139	-0.331
-228.742	-134.335	-0.154	0.019
-227.727	716.176	0.067	-0.175
-226.713	-200.000	0.052	0.469
-225.698	114.751	0.127	-0.152
-224.684	-200.000	-0.031	0.273
-223.669	-147.858	-0.229	-0.019
-222.655	-125.150	0.302	0.045
-221.640	-125.598	-0.335	-0.050
-220.625	-44.495	0.214	-0.105
-219.611	45.703	-0.086	-0.078
-218.596	43.121	0.241	0.216
-217.582	552.509	0.112	-0.263
-216.567	307.640	0.053	-0.098
-215.552	167.867	0.206	-0.288
-214.538	106.704	-0.197	-0.229
-213.523	120.536	0.168	0.204
-212.509	-200.000	0.026	-0.220
-211.494	-200.000	0.013	-0.092
-210.479	-115.134	0.370	0.069
-209.465	103.438	0.175	0.201
-208.450	-0.821	-0.472	0.328
-207.436	109.309	0.141	0.166
-206.421	-50.052	-0.547	0.254
-205.406	-20.013	0.156	-0.094
-204.392	25.680	-0.365	-0.298
-203.377	11.483	0.208	0.156
-202.363	-200.000	0.029	0.140
-201.348	-78.940	-0.209	0.070
-200.333	-200.000	-0.003	0.237
-199.319	171.127	-0.228	-0.320
-198.304	119.540	-0.125	0.151
-197.290	379.716	0.035	0.071
-196.275	-87.011	-0.318	0.095
-195.260	185.524	-0.048	0.069
-194.246	20.640	0.092	0.073
-193.231	-62.003	-0.079	0.032
-192.217	800.000	-0.045	-0.162
-191.202	-18.880	0.145	0.089
-190.187	29.244	0.380	-0.316
-189.173	223.720	0.247	0.390
-188.158	-132.864	0.199	0.025
-187.144	-69.956	-0.057	-0.021
-186.129	-137.176	-0.172	-0.019
-185.114	101.646	-0.066	-0.075
-184.100	-84.313	-0.066	0.021
-183.085	800.000	0.068	-0.186
-182.071	76.366	0.138	-0.143
-181.056	62.136	-0.182	-0.177
-180.042	113.220	0.159	-0.188
-179.027	-73.544	0.061	0.022
-178.012	147.060	0.112	0.148
-176.998	-141.616	-0.133	0.013
-175.983	649.855	0.043	0.107
-174.969	277.877	-0.135	-0.235
-173.954	-121.048	-0.044	-0.007
-172.939	-26.577	-0.410	0.235
-171.925	-103.559	0.045	0.010
-170.910	-200.000	0.024	-0.199
-169.896	342.025	0.127	0.243
-168.881	-200.000	0.027	-0.326
-167.866	226.870	-0.144	0.229
-166.852	63.308	0.311	-0.305
-165.837	-172.643	-0.202	0.006
-164.823	-8.922	-0.123	-0.081
-163.808	-142.749	0.057	0.005
-162.793	-200.000	0.059	0.318
-161.779	-110.055	-0.099	0.020
-160.764	-17.198	-0.168	-0.103
-159.750	800.000	0.032	0.134
-158.735	-200.000	0.245	0.000
-157.720	800.000	-0.032	0.118
-156.706	-200.000	0.030	0.204
-155.691	-164.613	-0.111	-0.005
-154.677	143.660	-0.120	0.157
-153.662	639.630	0.092	-0.228
-152.647	-200.000	0.058	-0.373
-151.633	-44.249	0.163	-0.080
-150.618	-200.000	-0.012	-0.146
-149.604	-200.000	0.050	0.279
-148.589	174.756	-0.141	-0.199
-147.574	-200.000	0.043	-0.200
-146.560	-80.193	-0.443	0.145
-145.545	-95.410	0.325	-0.085
-144.531	191.003	-0.171	-0.251
-143.516	-25.768	-0.201	-0.116
-142.502	-56.221	0.120	-0.052
-141.487	344.200	0.082	-0.158
-140.472	-10.690	-0.246	0.159
-139.458	435.196	0.145	-0.308
-138.443	-200.000	0.006	-0.449
-137.429	-200.000	0.001	-0.129
-136.414	-200.000	-0.025	-0.181
-135.399	-30.063	0.302	0.168
-134.385	-92.162	0.166	-0.046
-133.370	-165.857	0.149	-0.006
-132.356	-110.657	-0.209	0.042
-131.341	111.190	0.116	0.137
-130.326	-200.000	-0.005	0.051
-129.312	-80.927	0.224	0.073
-128.297	-200.000	-0.013	0.319
-127.283	800.000	0.067	0.217
-126.268	-36.128	-0.152	0.080
-125.253	-90.602	-0.200	0.057
-124.239	-200.000	0.010	-0.221
-123.224	-55.160	-0.082	0.036
-122.210	9.821	-0.160	0.118
-121.195	-72.707	0.276	-0.099
-120.180	-169.042	0.046	-0.002
-119.166	-59.649	0.209	0.087
-118.151	211.179	0.049	0.075
-117.137	-200.000	0.013	-0.258
-116.122	-142.101	0.105	0.010
-115.107	-161.925	0.062	0.003
-114.093	69.552	-0.190	-0.191
-113.078	353.615	0.117	0.227
-112.064	-79.024	-0.149	0.050
-111.049	-200.000	0.004	0.039
-110.034	-200.000	0.004	0.163
-109.020	51.694	-0.114	-0.105
-108.005	800.000	0.086	0.234
-106.991	-42.419	-0.120	0.060
-105.976	-200.000	-0.022	0.132
-104.962	800.000	0.123	0.438
-103.947	800.000	-0.098	-0.409
-102.932	-132.783	0.317	-0.040
-101.918	-101.413	-0.176	-0.042
-100.903	-163.156	-0.257	-0.012
-99.889	75.983	0.059	-0.061
-98.874	800.000	-0.028	0.080
-97.859	-85.844	0.363	0.110
-96.845	414.492	0.141	-0.292
-95.830	-76.243	-0.406	-0.140
-94.816	-146.111	-0.050	-0.004
-93.801	227.026	0.194	0.308
-92.786	-165.476	0.260	0.011
-91.772	-113.005	0.288	-0.056
-90.757	42.399	0.045	-0.040
-89.743	347.634	0.286	0.550
-88.728	-200.000	-0.008	0.057
-87.713	60.217	-0.132	0.127
-86.699	-97.622	0.272	-0.069
-85.684	800.000	-0.069	-0.199
-84.670	-65.969	0.254	0.099
-83.655	599.488	0.032	0.078
-82.640	207.974	-0.289	0.441
-81.626	105.710	0.184	0.212
-80.611	392.163	0.032	0.065
-79.597	483.866	-0.123	0.273
-78.582	-113.180	0.245	0.047
-77.567	411.170	0.091	0.189
-76.553	-60.611	0.125	-0.052
-75.538	-200.000	0.052	-0.253
-74.524	-200.000	0.016	-0.161
-73.509	-116.499	0.304	-0.055
-72.494	734.021	-0.069	-0.181
-71.480	51.265	-0.040	0.037
-70.465	-200.000	0.020	0.288
-69.451	-200.000	0.025	0.143
-68.436	18.161	-0.343	0.267
-67.422	104.515	0.227	0.260
-66.407	800.000	0.042	0.116
-65.392	-200.000	0.070	-0.323
-64.378	475.769	0.035	0.076
-63.363	281.333	-0.209	-0.365
-62.349	-108.934	0.091	-0.019
-61.334	145.689	-1.171	-1.529
-60.319	-1.543	0.726	0.499
-59.305	467.844	-0.691	-1.511
-58.290	249.259	0.907	1.499
-57.276	800.000	0.522	1.518
-56.261	-200.000	136.509	628.282
-55.246	341.498	1640.982	3125.669
-54.232	137.394	2773.026	3535.617
-53.217	81.874	2154.879	2274.192
-52.203	29.847	1591.474	1321.162
-51.188	22.395	1344.195	1070.705
-50.173	20.570	1309.161	1031.935
-49.159	47.413	1383.715	1256.396
-48.144	42.694	1392.748	1235.640
-47.130	22.388	1341.193	1068.099
-46.115	19.491	1322.288	1035.641
-45.100	19.373	1317.004	1030.758
-44.086	19.328	1314.709	1028.654
-43.071	19.317	1312.124	1026.522
-42.057	19.237	1310.344	1024.618
-41.042	19.192	1308.782	1023.083
-40.027	19.299	1306.942	1022.240
-39.013	19.229	1305.267	1020.476
-37.998	19.365	1303.274	1019.684
-36.984	19.531	1301.409	1019.164
-35.969	19.421	1300.331	1017.629
-34.954	19.334	1298.579	1015.707
-33.940	19.376	1296.968	1014.654
-32.925	19.469	1295.575	1014.068
-31.911	19.424	1294.579	1012.985
-30.896	19.519	1292.781	1012.092
-29.881	19.547	1291.191	1010.973
-28.867	19.498	1290.139	1009.824
-27.852	19.533	1288.633	1008.809
-26.838	19.397	1286.940	1006.652
-25.823	19.403	1286.003	1005.913
-24.809	19.503	1284.288	1005.115
-23.794	19.465	1283.294	1004.075
-22.779	19.496	1281.698	1002.968
-21.765	19.479	1280.234	1001.679
-20.750	19.503	1279.190	1000.965
-19.736	19.418	1278.080	999.565
-18.721	19.186	1277.260	997.538
-17.706	19.322	1275.850	997.186
-16.692	19.302	1274.755	996.171
-15.677	19.273	1273.746	995.179
-14.663	19.269	1272.370	994.042
-13.648	19.257	1271.321	993.113
-12.633	19.400	1270.079	992.927
-11.619	19.318	1269.580	992.024
-10.604	19.333	1268.465	991.198
-9.590	19.334	1267.620	990.503
-8.575	19.291	1266.395	989.264
-7.560	19.176	1266.257	988.454
-6.546	19.269	1265.543	988.391
-5.531	19.323	1264.005	987.459
-4.517	19.346	1263.326	987.022
-3.502	19.425	1262.057	986.445
-2.487	19.367	1261.387	985.551
-1.473	19.241	1257.320	981.616
-0.458	17.526	1242.116	960.046
0.556	13.233	1226.677	923.649
1.571	9.616	1234.805	909.304
2.586	8.984	1250.448	917.133
3.600	9.326	1237.762	909.679
4.615	7.060	1166.538	845.165
5.629	2.698	1098.563	773.873
6.644	0.763	1083.229	753.369
7.659	0.573	1081.389	751.076
8.673	0.469	1080.866	750.128
9.688	0.585	1079.450	749.656
10.702	0.719	1076.573	748.256
11.717	3.406	1079.433	763.497
12.731	9.477	1086.928	798.938
13.746	15.021	1095.212	832.611
14.761	17.109	1097.354	844.565
15.775	16.512	1095.834	840.354
16.790	15.527	1093.502	833.605
17.804	14.778	1092.092	828.742
18.819	14.513	1090.821	826.388
19.834	14.329	1090.378	825.070
20.848	14.081	1089.605	823.182
21.863	13.833	1088.236	820.852
22.877	13.677	1087.138	819.179
23.892	13.567	1086.624	818.175
24.907	13.559	1085.983	817.583
25.921	13.664	1085.546	817.699
26.936	13.665	1084.608	816.923
27.950	13.788	1083.218	816.412
28.965	13.829	1082.233	815.800
29.980	13.987	1080.592	815.262
30.994	13.845	1080.041	814.080
32.009	13.850	1079.530	813.647
33.023	13.815	1078.094	812.320
34.038	13.820	1076.969	811.424
35.053	13.840	1076.110	810.804
36.067	13.873	1075.072	810.110
37.082	13.837	1074.520	809.447
38.096	13.805	1073.544	808.487
39.111	13.914	1072.876	808.444
40.126	13.805	1071.446	806.761
41.140	13.722	1069.897	805.124
42.155	13.715	1068.696	804.116
43.169	13.677	1067.939	803.289
44.184	13.754	1066.784	802.721
45.199	13.732	1066.200	802.104
46.213	13.708	1064.549	800.675
47.228	13.752	1063.697	800.176
48.242	13.710	1062.460	798.971
49.257	13.718	1061.575	798.275
50.271	13.771	1060.735	797.829
51.286	13.770	1059.719	796.988
52.301	13.709	1058.758	795.900
53.315	13.699	1057.787	795.053
54.330	13.728	1056.641	794.260
55.344	13.657	1056.074	793.423
56.359	13.806	1055.047	793.297
57.374	13.519	1054.246	791.251
58.388	13.595	1053.330	790.858
59.403	13.650	1052.706	790.582
60.417	13.750	1051.695	790.228
61.432	13.560	1050.649	788.467
62.447	13.569	1049.832	787.828
63.461	13.562	1049.089	787.167
64.476	13.648	1047.857	786.583
65.490	13.596	1047.152	785.736
66.505	13.691	1046.525	785.648
67.520	13.600	1046.063	784.798
68.534	13.725	1045.315	784.758
69.549	13.687	1044.181	783.657
70.563	13.636	1043.277	782.669
71.578	13.572	1042.884	782.003
72.593	13.564	1042.006	781.238
73.607	13.583	1041.150	780.619
74.622	13.625	1040.852	780.522
75.636	13.689	1039.797	779.963
76.651	13.536	1039.469	778.931
77.666	13.573	1038.664	778.433
78.680	13.621	1037.616	777.804
79.695	13.589	1037.011	777.128
80.709	13.593	1036.706	776.850
81.724	13.639	1035.822	776.336
82.739	13.605	1035.320	775.732
83.753	13.691	1034.214	775.234
84.768	13.784	1033.197	774.840
85.782	13.738	1032.647	774.143
86.797	13.650	1031.644	772.912
87.812	13.833	1030.506	772.845
88.826	13.801	1029.586	771.938
89.841	13.836	1028.269	771.044
90.855	13.822	1027.704	770.488
91.870	13.724	1026.882	769.349
92.884	13.744	1026.657	769.203
93.899	13.738	1025.531	768.266
94.914	13.886	1024.336	767.989
95.928	13.834	1023.381	766.961
96.943	13.783	1022.717	766.160
97.957	13.913	1021.632	765.879
98.972	13.839	1020.697	764.770
99.987	13.882	1019.908	764.310
101.001	13.874	1019.109	763.608
102.016	13.821	1018.326	762.709
103.030	13.895	1017.688	762.502
104.045	13.934	1016.379	761.635
105.060	13.739	1016.028	760.407
106.074	13.716	1015.383	759.754
107.089	13.781	1013.894	758.871
108.103	13.703	1013.072	757.833
109.118	13.825	1012.065	757.570
110.133	13.734	1011.071	756.342
111.147	13.875	1010.290	756.332
112.162	13.822	1009.289	755.274
113.176	13.853	1008.425	754.703
114.191	13.934	1007.966	754.660
115.206	13.704	1007.318	753.065
116.220	13.808	1006.250	752.671
117.235	13.741	1005.608	751.822
118.249	13.835	1004.215	751.138
119.264	13.737	1003.655	750.208
120.279	13.811	1002.821	749.855
121.293	13.687	1002.232	748.787
122.308	13.776	1001.196	748.348
123.322	13.791	1000.358	747.726
124.337	13.744	999.249	746.618
125.352	13.759	998.119	745.775
126.366	13.756	997.044	744.891
127.381	13.665	996.132	743.735
128.395	13.652	995.244	742.948
129.410	13.743	993.917	742.301
130.424	13.792	993.233	741.943
131.439	13.877	992.313	741.570
132.454	13.698	991.827	740.343
133.468	13.879	990.573	740.148
134.483	13.819	989.742	739.193
135.497	13.672	989.214	738.081
136.512	13.722	988.274	737.536
137.527	13.829	987.166	737.116
138.541	13.806	986.566	736.505
139.556	13.703	986.396	735.852
140.570	13.740	985.090	734.980
141.585	13.971	984.491	735.490
142.600	14.018	983.280	734.729
143.614	13.896	982.917	733.852
144.629	13.996	982.103	733.620
145.643	14.084	980.760	732.939
146.658	13.978	979.902	731.766
147.673	14.012	978.935	731.130
148.687	13.990	978.082	730.333
149.702	13.853	977.550	729.267
150.716	13.798	976.501	728.181
151.731	14.000	975.505	728.258
152.746	14.028	974.873	727.844
153.760	14.031	974.229	727.312
154.775	13.942	974.067	726.739
155.789	14.020	973.547	726.626
156.804	14.162	972.257	726.217
157.819	14.072	971.883	725.482
158.833	13.981	971.386	724.651
159.848	14.162	970.077	724.397
160.862	14.155	969.042	723.532
161.877	14.146	968.312	722.885
162.892	14.048	967.403	721.713
163.906	14.066	966.490	721.048
164.921	14.158	965.952	720.981
165.935	14.211	964.967	720.412
166.950	14.014	964.368	719.050
167.964	14.125	963.274	718.650
168.979	14.093	962.224	717.664
169.994	14.156	961.271	717.164
171.008	14.057	961.038	716.496
172.023	14.309	959.710	716.529
173.037	14.277	959.334	716.047
174.052	14.161	958.890	715.151
175.067	14.115	958.050	714.267
176.081	14.216	957.627	714.321
177.096	14.203	956.855	713.628
178.110	14.229	956.019	713.051
179.125	14.276	955.778	713.010
180.140	14.313	954.963	712.497
181.154	14.363	954.310	712.158
182.169	14.363	953.820	711.730
183.183	14.446	953.227	711.579
184.198	14.403	952.555	710.830
185.213	14.332	952.124	710.144
186.227	14.353	950.904	709.263
187.242	14.476	950.530	709.445
188.256	14.468	949.760	708.771
189.271	14.503	948.886	708.205
190.286	14.411	948.367	707.365
191.300	14.359	947.690	706.578
192.315	14.279	947.092	705.728
193.329	14.259	946.844	705.398
194.344	14.378	945.827	705.080
195.359	14.428	945.270	704.814
196.373	14.475	944.260	704.200
197.388	14.502	944.346	704.314
198.402	14.589	943.663	704.108
199.417	14.471	942.984	703.045
200.432	14.586	942.265	702.927
201.446	14.553	942.107	702.612
202.461	14.696	941.189	702.466
203.475	14.720	940.589	702.054
204.490	14.696	939.721	701.245
205.504	14.574	939.180	700.269
206.519	14.627	938.291	699.764
207.534	14.695	937.776	699.603
208.548	14.649	936.931	698.717
209.563	14.590	936.315	697.951
210.577	14.723	935.480	697.823
211.592	14.707	934.924	697.280
212.607	14.849	933.916	697.057
213.621	14.807	933.190	696.280
214.636	14.841	932.542	695.875
215.650	14.914	931.522	695.355
216.665	14.873	931.247	694.922
217.680	14.896	930.342	694.279
218.694	14.986	929.561	694.009
219.709	14.943	929.069	693.401
220.723	14.926	928.130	692.568
221.738	14.787	928.038	691.863
222.753	14.871	927.204	691.528
223.767	14.789	926.972	690.954
224.782	14.947	926.088	690.885
225.796	14.994	925.599	690.654
226.811	14.912	924.976	689.790
227.826	14.994	923.975	689.322
228.840	15.021	923.410	688.949
229.855	15.042	922.422	688.238
230.869	14.860	922.062	687.160
231.884	14.985	921.178	686.954
232.899	14.900	920.199	685.815
233.913	14.995	919.376	685.527
234.928	14.997	918.984	685.183
235.942	14.973	918.547	684.701
236.957	15.071	917.845	684.516
237.972	14.907	917.428	683.475
238.986	15.202	916.185	683.694
240.001	15.090	915.900	682.963
241.015	15.276	914.938	682.941
242.030	15.273	914.439	682.495
243.045	15.149	914.337	681.856
244.059	15.148	913.543	681.198
245.074	15.064	913.070	680.443
246.088	15.212	912.066	680.238
247.103	15.193	911.357	679.572
248.117	15.355	910.513	679.540
249.132	15.132	910.553	678.606
250.147	15.325	909.716	678.700
251.161	15.391	908.665	678.126
252.176	15.330	908.620	677.784
253.190	15.452	907.614	677.467
254.205	15.602	906.680	677.314
255.220	15.443	906.106	676.186
256.234	15.366	905.615	675.446
257.249	15.569	904.979	675.730
258.263	15.418	904.391	674.627
259.278	15.402	903.560	673.880
260.293	15.616	902.439	673.844
261.307	15.547	902.523	673.570
262.322	15.730	901.352	673.370
263.336	15.756	900.497	672.773
264.351	15.742	900.108	672.370
265.366	15.710	899.430	671.676
266.380	15.662	899.215	671.264
267.395	15.706	898.050	670.512
268.409	15.664	897.597	669.947
269.424	15.626	896.846	669.176
270.439	15.723	896.038	668.897
271.453	15.780	895.271	668.494
272.468	15.733	894.724	667.836
273.482	15.779	894.210	667.578
274.497	15.773	893.709	667.120
275.512	15.804	893.361	666.927
276.526	15.786	893.310	666.758
277.541	15.818	892.031	665.872
278.555	15.720	891.805	665.253
279.570	15.981	890.764	665.448
280.585	15.945	889.776	664.510
281.599	15.947	888.803	663.735
282.614	15.913	888.259	663.135
283.628	15.940	887.793	662.834
284.643	15.934	887.550	662.572
285.657	15.828	886.916	661.622
286.672	15.903	886.092	661.242
287.687	15.914	885.537	660.812
288.701	15.910	884.861	660.233
289.716	15.882	884.414	659.734
290.730	15.902	883.954	659.411
291.745	16.107	882.833	659.319
292.760	16.216	882.289	659.279
293.774	16.032	882.114	658.371
294.789	16.130	881.199	658.013
295.803	16.114	880.285	657.210
296.818	16.058	879.563	656.395
297.833	16.072	879.016	655.981
298.847	16.124	878.438	655.696
299.862	16.078	877.905	655.059
300.876	16.167	877.417	654.982
301.891	16.227	876.780	654.682
302.906	16.321	876.202	654.558
303.920	16.284	875.425	653.775
304.935	16.265	875.039	653.358
305.949	16.336	874.148	652.909
306.964	16.365	873.876	652.759
307.979	16.381	873.396	652.403
308.993	16.412	872.516	651.808
310.008	16.424	871.739	651.217
311.022	16.291	871.499	650.466
312.037	16.341	870.853	650.120
313.052	16.169	870.435	649.088
314.066	16.358	869.550	649.100
315.081	16.438	869.176	649.069
316.095	16.410	868.392	648.319
317.110	16.284	867.921	647.426
318.125	16.374	867.463	647.372
319.139	16.430	867.099	647.257
320.154	16.349	866.513	646.453
321.168	16.307	866.413	646.161
322.183	16.548	865.123	646.064
323.197	16.423	864.863	645.334
324.212	16.577	864.292	645.438
325.227	16.491	863.575	644.519
326.241	16.597	863.099	644.508
327.256	16.478	862.358	643.446
328.270	16.443	861.857	642.884
329.285	16.593	861.373	643.033
330.300	16.456	860.851	642.066
331.314	16.589	859.938	641.834
332.329	16.622	859.355	641.467
333.343	16.580	859.605	641.437
334.358	16.631	858.999	641.122
335.373	16.673	858.725	641.020
336.387	16.591	858.147	640.222
337.402	16.723	857.954	640.520
338.416	16.810	857.308	640.312
339.431	16.812	856.833	639.905
340.446	16.828	856.443	639.617
341.460	16.781	856.393	639.346
342.475	16.824	855.658	638.903
343.489	16.740	855.203	638.192
344.504	16.985	854.857	638.800
345.519	17.054	854.340	638.615
346.533	16.900	853.964	637.701
347.548	16.943	853.111	637.166
348.562	16.927	852.491	636.588
349.577	16.805	852.249	635.892
350.592	16.915	851.281	635.527
351.606	16.879	850.739	634.933
352.621	16.898	850.128	634.491
353.635	17.056	849.404	634.486
354.650	16.830	848.801	633.135
355.665	16.874	848.265	632.841
356.679	16.966	847.731	632.732
357.694	17.095	846.899	632.534
358.708	17.061	846.371	631.958
359.723	17.063	845.698	631.407
360.738	16.942	845.400	630.678
361.752	17.039	844.825	630.552
362.767	17.066	844.173	630.111
363.781	17.098	843.368	629.574
364.796	17.267	842.858	629.762
365.810	17.275	842.699	629.620
366.825	17.164	842.600	629.077
367.840	17.261	841.685	628.698
368.854	17.228	841.071	628.063
369.869	17.425	840.497	628.306
370.883	17.281	840.148	627.457
371.898	17.313	840.319	627.649
372.913	17.445	839.256	627.285
373.927	17.327	839.182	626.738
374.942	17.444	838.633	626.704
375.956	17.259	838.804	626.093
376.971	17.481	837.715	626.043
377.986	17.522	837.545	626.012
379.000	17.459	836.739	625.122
380.015	17.467	836.232	624.719
381.029	17.517	835.774	624.503
382.044	17.450	835.350	623.885
383.059	17.533	834.406	623.431
384.073	17.580	833.719	623.034
385.088	17.569	833.109	622.483
386.102	17.593	832.627	622.154
387.117	17.595	831.785	621.477
388.132	17.594	831.167	620.958
389.146	17.627	831.094	620.967
390.161	17.562	830.749	620.416
391.175	17.631	830.324	620.296
392.190	17.564	829.929	619.704
393.205	17.625	829.133	619.277
394.219	17.508	828.869	618.598
395.234	17.441	828.553	618.065
396.248	17.531	828.273	618.127
397.263	17.556	827.488	617.580
398.278	17.627	827.306	617.644
399.292	17.582	826.551	616.864
400.307	17.698	825.902	616.746
401.321	17.740	825.391	616.462
402.336	17.774	825.231	616.409
403.350	17.843	824.879	616.340
404.365	17.707	824.590	615.580
405.380	17.829	823.982	615.510
406.394	17.959	823.112	615.276
407.409	17.872	822.751	614.638
408.423	17.883	822.251	614.248
409.438	18.015	821.902	614.411
410.453	18.019	821.717	614.229
411.467	18.024	821.344	613.917
412.482	17.926	820.937	613.207
413.496	18.025	820.288	613.020
414.511	17.867	820.392	612.479
415.526	18.165	819.260	612.647
416.540	18.224	818.664	612.358
417.555	18.087	818.410	611.622
418.569	18.150	818.144	611.595
419.584	18.055	817.681	610.856
420.599	18.054	817.320	610.529
421.613	115.821	1302.397	1492.893
422.628	100.393	1373.051	1492.969
