DTS Sentinel unit serial number:	SN413079Multiplexer serial number:	ORYXHardware model number:	OX4-SRSoftware version number:	ORYX F/W v4.00 Oryx Data Collector v3.7.2.0data status	okinstallation	princeton_trtdifferential loss correction	single-endedforward channel	channel 1reverse channel	N/Adate	2019/09/13time	05:42:35forward acquisition time	60.00reverse acquisition time	0.00gamma	496.2192k internal	0.2335k external	0.2335temperature offset calibration	1.0154default loss term (dB/km)	0.3790temperature slope calibration	1.0000multiplexer offset coefficient	1.0000multiplexer slope coefficient	1.0000fibre end	0.00T internal ref (°C)	26.19T ext. ref 1 (°C)	4.05T ext. ref 2 (°C)	20.88length (m)	temperature (°C)	Stokes	anti-Stokes-747.200	-80.580	-0.117	-0.039
-746.185	-39.748	-0.211	0.111
-745.171	-14.116	0.323	-0.210
-744.156	-15.780	-0.295	0.189
-743.142	-102.916	-0.076	0.018
-742.127	187.868	0.028	0.042
-741.112	-136.093	-0.124	-0.015
-740.098	-89.039	-0.248	0.074
-739.083	120.639	0.101	0.126
-738.069	-50.791	0.136	0.064
-737.054	-16.020	0.156	-0.100
-736.039	-44.196	-0.323	-0.163
-735.025	-200.000	-0.012	0.140
-734.010	-200.000	0.017	0.082
-732.996	22.381	-0.103	-0.084
-731.981	339.056	-0.108	0.210
-730.966	41.474	-0.157	-0.142
-729.952	362.663	0.024	-0.049
-728.937	83.874	-0.300	-0.329
-727.923	800.000	0.027	-0.080
-726.908	8.582	-0.111	-0.084
-725.894	800.000	-0.026	0.077
-724.879	217.778	0.115	0.184
-723.864	-200.000	-0.046	-0.407
-722.850	16.817	-0.058	-0.046
-721.835	-200.000	0.034	0.274
-720.821	-95.393	0.061	-0.016
-719.806	-89.280	-0.122	-0.036
-718.791	-69.414	-0.241	0.093
-717.777	-69.400	-0.025	0.010
-716.762	-200.000	-0.035	0.427
-715.748	39.523	0.084	-0.075
-714.733	-63.443	-0.078	-0.032
-713.718	-171.298	0.419	0.014
-712.704	-37.763	-0.129	0.069
-711.689	-200.000	0.013	-0.122
-710.675	-136.763	0.265	-0.031
-709.660	-20.416	0.276	0.170
-708.645	32.356	0.061	0.053
-707.631	365.825	-0.131	0.265
-706.616	-188.245	0.044	0.001
-705.602	-200.000	-0.004	0.142
-704.587	509.721	-0.057	0.133
-703.572	-124.930	-0.195	-0.030
-702.558	800.000	-0.073	0.291
-701.543	-164.157	-0.343	-0.016
-700.529	-81.813	0.165	-0.054
-699.514	-200.000	0.048	-0.238
-698.499	-1.207	0.103	-0.073
-697.485	-36.426	0.054	0.029
-696.470	-87.877	-0.107	0.032
-695.456	-200.000	0.014	-0.084
-694.441	297.377	-0.109	-0.201
-693.426	10.592	-0.224	-0.172
-692.412	446.817	0.038	0.084
-691.397	222.984	-0.032	-0.052
-690.383	-125.382	-0.275	-0.042
-689.368	275.730	-0.126	-0.224
-688.354	156.974	0.102	0.141
-687.339	16.711	0.073	0.058
-686.324	-117.951	-0.159	0.028
-685.310	11.528	-0.080	-0.061
-684.295	-200.000	0.002	0.258
-683.281	-93.395	0.139	0.039
-682.266	207.910	0.187	-0.292
-681.251	-41.090	0.205	0.106
-680.237	-198.144	0.172	0.001
-679.222	516.933	-0.129	-0.301
-678.208	-79.862	-0.287	-0.097
-677.193	-200.000	0.009	0.065
-676.178	-0.113	-0.035	-0.025
-675.164	-78.143	-0.143	0.049
-674.149	-171.246	0.233	0.008
-673.135	22.831	-0.212	0.174
-672.120	636.586	-0.118	-0.300
-671.105	119.792	0.223	-0.277
-670.091	404.732	0.139	0.293
-669.076	800.000	0.050	0.149
-668.062	45.850	0.252	0.233
-667.047	101.947	-0.189	0.220
-666.032	352.928	-0.023	0.046
-665.018	235.463	-0.135	-0.224
-664.003	-200.000	-0.023	0.172
-662.989	-75.420	-0.228	0.081
-661.974	800.000	0.105	-0.348
-660.959	800.000	-0.049	0.143
-659.945	-67.274	-0.132	0.052
-658.930	-176.155	0.068	0.002
-657.916	-75.615	0.125	0.045
-656.901	-143.322	0.212	0.020
-655.886	-142.947	0.053	0.005
-654.872	-48.800	0.184	0.088
-653.857	800.000	-0.094	-0.334
-652.843	568.337	-0.141	0.343
-651.828	-200.000	-0.078	0.519
-650.814	61.227	0.150	0.149
-649.799	-48.192	-0.167	-0.081
-648.784	281.479	0.113	-0.203
-647.770	2.006	0.170	0.123
-646.755	118.495	0.189	0.233
-645.741	-150.825	0.067	-0.005
-644.726	38.609	-0.154	-0.138
-643.711	168.500	0.160	-0.228
-642.697	-200.000	0.051	-0.369
-641.682	-33.686	-0.084	0.047
-640.668	10.667	-0.073	-0.056
-639.653	-200.000	0.009	0.350
-638.638	800.000	0.090	-0.253
-637.624	-150.427	-0.281	0.022
-636.609	800.000	0.068	-0.226
-635.595	800.000	0.074	-0.230
-634.580	-200.000	-0.014	0.191
-633.565	-97.360	0.455	-0.119
-632.551	121.593	-0.106	-0.132
-631.536	38.742	-0.202	0.180
-630.522	-13.125	0.204	-0.133
-629.507	800.000	0.062	-0.192
-628.492	451.745	-0.089	-0.196
-627.478	-172.042	-0.070	-0.002
-626.463	10.977	0.155	0.119
-625.449	-158.623	0.203	0.012
-624.434	83.832	-0.154	-0.168
-623.419	-0.288	-0.079	0.056
-622.405	0.007	-0.046	0.033
-621.390	-30.553	0.135	-0.076
-620.376	705.922	0.031	-0.083
-619.361	-118.365	0.138	-0.025
-618.346	-4.167	-0.103	0.071
-617.332	800.000	0.015	-0.053
-616.317	-100.581	-0.167	-0.041
-615.303	4.064	-0.167	0.122
-614.288	49.439	-0.101	0.095
-613.273	-150.030	-0.168	-0.013
-612.259	-200.000	-0.051	-0.288
-611.244	-93.402	0.204	-0.056
-610.230	-200.000	-0.050	0.233
-609.215	-200.000	0.079	0.374
-608.201	-200.000	0.000	0.008
-607.186	-102.622	-0.150	0.036
-606.171	800.000	-0.095	0.408
-605.157	-176.795	-0.373	0.009
-604.142	249.103	-0.017	-0.029
-603.128	-200.000	-0.036	-0.222
-602.113	254.064	0.093	0.159
-601.098	56.056	-0.104	-0.101
-600.084	90.445	-0.145	-0.162
-599.069	-114.743	-0.109	0.021
-598.055	-37.306	0.362	-0.193
-597.040	102.746	-0.160	0.187
-596.025	-27.830	0.381	-0.220
-595.011	-200.000	-0.011	-0.098
-593.996	-82.597	0.164	-0.053
-592.982	435.143	0.111	0.241
-591.967	800.000	-0.096	-0.319
-590.952	-200.000	0.021	-0.236
-589.938	-116.346	-0.267	-0.049
-588.923	-135.721	-0.260	0.031
-587.909	-1.769	-0.215	-0.151
-586.894	230.086	-0.107	-0.174
-585.879	2.227	0.102	0.074
-584.865	-56.033	-0.231	-0.103
-583.850	800.000	0.125	-0.357
-582.836	501.176	-0.051	0.118
-581.821	125.579	-0.081	-0.102
-580.806	-127.832	-0.192	-0.028
-579.792	-52.410	-0.266	-0.123
-578.777	-25.016	0.174	0.103
-577.763	89.880	0.030	0.034
-576.748	186.541	-0.195	-0.290
-575.733	178.795	0.208	0.304
-574.719	-200.000	-0.007	-0.040
-573.704	-200.000	-0.007	-0.079
-572.690	-200.000	0.049	0.221
-571.675	16.435	-0.103	-0.081
-570.661	30.326	-0.128	-0.109
-569.646	637.789	-0.055	0.139
-568.631	13.497	0.075	-0.058
-567.617	-60.687	0.432	-0.183
-566.602	-69.361	-0.066	-0.025
-565.588	-113.673	0.156	-0.030
-564.573	-200.000	0.004	0.083
-563.558	-11.815	-0.093	-0.061
-562.544	-27.726	-0.020	0.012
-561.529	800.000	-0.084	-0.310
-560.515	-69.682	-0.453	-0.173
-559.500	-200.000	-0.018	-0.377
-558.485	-13.045	-0.220	0.143
-557.471	-48.070	0.402	0.194
-556.456	800.000	0.069	-0.269
-555.442	146.542	0.233	0.312
-554.427	-20.189	-0.038	0.024
-553.412	394.895	-0.055	0.115
-552.398	-200.000	0.021	-0.349
-551.383	41.615	0.487	0.439
-550.369	2.041	-0.187	-0.134
-549.354	800.000	0.070	0.284
-548.339	-200.000	-0.023	-0.104
-547.325	-200.000	-0.007	-0.149
-546.310	164.385	-0.079	0.111
-545.296	-14.225	-0.226	0.145
-544.281	232.985	-0.163	-0.268
-543.266	-143.763	-0.036	0.003
-542.252	-60.953	0.192	-0.081
-541.237	800.000	0.064	-0.191
-540.223	-105.884	0.151	-0.034
-539.208	124.095	-0.302	-0.378
-538.193	103.954	0.078	0.092
-537.179	-200.000	0.022	-0.112
-536.164	72.960	0.056	-0.059
-535.150	22.317	0.165	-0.134
-534.135	-80.879	0.074	0.025
-533.121	-95.227	-0.175	0.047
-532.106	-135.461	-0.340	0.040
-531.091	290.759	-0.028	0.051
-530.077	130.678	-0.016	0.021
-529.062	-200.000	0.013	-0.415
-528.048	-200.000	-0.040	0.319
-527.033	78.474	-0.175	0.186
-526.018	-129.540	0.169	-0.023
-525.004	-130.942	-0.072	0.010
-523.989	-200.000	0.026	-0.226
-522.975	-200.000	0.019	0.216
-521.960	227.533	0.161	0.261
-520.945	72.926	0.031	-0.032
-519.931	-200.000	0.015	-0.124
-518.916	-73.996	-0.291	0.105
-517.902	-12.774	-0.192	-0.125
-516.887	-3.510	-0.229	0.158
-515.872	-31.647	-0.098	-0.055
-514.858	-86.605	0.324	0.099
-513.843	-36.423	-0.129	0.069
-512.829	325.281	-0.075	0.143
-511.814	-200.000	0.017	-0.172
-510.799	783.119	0.133	-0.362
-509.785	-200.000	0.012	0.126
-508.770	239.429	0.109	0.181
-507.756	23.299	-0.166	-0.136
-506.741	-200.000	0.034	-0.305
-505.726	770.976	-0.114	-0.308
-504.712	-133.275	-0.138	-0.017
-503.697	-120.450	0.325	-0.055
-502.683	-155.938	0.190	0.012
-501.668	-97.253	0.068	0.018
-500.653	14.152	-0.128	-0.099
-499.639	217.463	0.064	0.101
-498.624	552.579	-0.129	0.307
-497.610	173.626	0.133	0.191
-496.595	50.060	0.335	-0.315
-495.581	-200.000	-0.011	0.087
-494.566	800.000	0.019	0.069
-493.551	800.000	0.084	0.263
-492.537	46.291	0.062	-0.057
-491.522	104.727	0.070	-0.082
-490.508	54.066	0.174	-0.166
-489.493	12.855	-0.228	0.176
-488.478	70.019	-0.385	-0.395
-487.464	2.564	0.154	-0.111
-486.449	800.000	-0.027	0.083
-485.435	112.146	-0.105	0.126
-484.420	-15.743	0.421	-0.267
-483.405	-113.114	-0.127	-0.025
-482.391	129.834	0.076	-0.096
-481.376	-200.000	-0.029	0.127
-480.362	800.000	0.011	0.034
-479.347	-185.828	-0.122	-0.002
-478.332	105.978	0.180	-0.212
-477.318	-69.530	0.265	0.101
-476.303	-150.124	0.094	0.007
-475.289	-38.586	-0.147	-0.077
-474.274	-141.213	0.021	0.002
-473.259	415.208	-0.105	-0.221
-472.245	-3.481	-0.238	0.165
-471.230	653.089	-0.063	-0.159
-470.216	103.756	-0.043	-0.050
-469.201	-106.391	-0.020	-0.004
-468.186	-74.442	0.180	0.065
-467.172	-94.080	-0.190	-0.052
-466.157	-78.540	0.053	-0.018
-465.143	59.740	-0.020	0.020
-464.128	-200.000	-0.021	0.239
-463.113	58.480	0.136	0.132
-462.099	345.814	-0.154	0.300
-461.084	-0.888	-0.227	-0.160
-460.070	-148.665	0.364	0.029
-459.055	-200.000	-0.049	0.307
-458.040	-152.723	0.099	0.007
-457.026	-200.000	0.058	-0.323
-456.011	-200.000	-0.048	0.235
-454.997	-8.693	-0.148	-0.099
-453.982	-200.000	-0.018	-0.305
-452.968	-3.571	0.134	0.093
-451.953	800.000	-0.043	-0.133
-450.938	-200.000	0.006	-0.262
-449.924	-93.677	0.193	-0.053
-448.909	400.454	0.039	0.081
-447.895	-85.509	0.303	0.094
-446.880	-101.542	0.402	-0.097
-445.865	650.298	-0.043	-0.108
-444.851	-123.472	0.004	-0.001
-443.836	-158.174	0.253	0.015
-442.822	461.932	-0.098	-0.216
-441.807	-116.571	0.241	-0.044
-440.792	800.000	0.056	-0.219
-439.778	-200.000	-0.024	0.194
-438.763	800.000	-0.058	0.216
-437.749	277.975	-0.127	0.224
-436.734	-13.483	-0.107	-0.069
-435.719	-79.904	0.087	0.029
-434.705	49.520	0.170	-0.159
-433.690	122.174	0.034	-0.042
-432.676	107.418	0.068	-0.080
-431.661	22.383	0.313	0.254
-430.646	-136.989	0.124	-0.014
-429.632	-200.000	-0.025	0.223
-428.617	-21.799	-0.192	-0.116
-427.603	-62.962	-0.379	-0.155
-426.588	277.519	0.102	0.180
-425.573	91.238	-0.139	-0.155
-424.559	144.512	-0.139	-0.184
-423.544	-200.000	-0.043	-0.193
-422.530	-36.870	-0.170	-0.091
-421.515	-166.031	-0.193	0.008
-420.500	310.547	0.144	0.268
-419.486	-17.423	-0.404	-0.252
-418.471	-12.636	0.109	-0.071
-417.457	-200.000	0.018	-0.325
-416.442	-164.114	-0.177	0.008
-415.428	203.602	-0.200	-0.307
-414.413	-14.155	0.278	0.178
-413.398	155.556	-0.068	-0.093
-412.384	-200.000	0.052	0.421
-411.369	-200.000	-0.066	-0.312
-410.355	-186.907	-0.310	0.004
-409.340	-196.993	0.093	0.001
-408.325	800.000	-0.082	0.341
-407.311	-63.604	-0.303	0.123
-406.296	78.499	0.103	0.109
-405.282	-105.725	0.222	-0.050
-404.267	-149.256	-0.160	-0.013
-403.252	254.552	0.180	0.306
-402.238	800.000	0.035	0.105
-401.223	69.344	0.188	0.192
-400.209	-145.443	-0.112	-0.010
-399.194	-200.000	-0.013	-0.238
-398.179	-63.336	-0.127	-0.052
-397.165	-200.000	0.016	-0.467
-396.150	61.776	-0.178	0.176
-395.136	-200.000	0.046	0.305
-394.121	-163.814	0.098	0.005
-393.106	83.052	0.147	-0.158
-392.092	-30.726	0.191	0.107
-391.077	-200.000	0.008	0.103
-390.063	-135.060	-0.103	0.012
-389.048	-200.000	0.007	0.347
-388.033	800.000	-0.040	-0.139
-387.019	800.000	0.073	-0.257
-386.004	-95.034	0.102	0.027
-384.990	93.198	-0.192	-0.215
-383.975	-200.000	0.005	0.125
-382.960	193.769	-0.021	-0.031
-381.946	-181.673	0.312	-0.006
-380.931	9.673	-0.085	-0.064
-379.917	-84.489	-0.332	0.104
-378.902	15.767	0.291	-0.227
-377.888	-160.738	0.096	0.005
-376.873	-86.695	0.197	0.060
-375.858	44.265	0.115	-0.104
-374.844	-12.387	-0.236	0.153
-373.829	456.618	0.069	0.153
-372.815	800.000	0.070	0.284
-371.800	93.488	0.119	0.134
-370.785	78.173	0.106	0.112
-369.771	-21.424	0.192	0.116
-368.756	222.903	-0.019	-0.030
-367.742	800.000	-0.137	-0.475
-366.727	-130.284	0.199	-0.027
-365.712	56.893	-0.072	-0.069
-364.698	-13.654	-0.082	-0.053
-363.683	139.732	0.067	0.087
-362.669	-200.000	-0.029	0.161
-361.654	-150.177	-0.478	0.037
-360.639	-89.247	-0.276	-0.080
-359.625	519.845	0.129	-0.299
-358.610	-200.000	-0.043	-0.348
-357.596	613.947	-0.085	-0.210
-356.581	7.317	-0.390	0.289
-355.566	71.991	-0.157	0.162
-354.552	-200.000	0.039	-0.179
-353.537	87.490	0.287	-0.314
-352.523	17.632	0.089	0.070
-351.508	-197.484	0.174	-0.001
-350.493	-124.649	-0.253	-0.039
-349.479	208.937	0.014	0.021
-348.464	-152.630	-0.269	-0.019
-347.450	669.376	0.045	-0.115
-346.435	-9.156	0.024	-0.016
-345.420	-111.945	-0.159	0.032
-344.406	-148.451	0.103	0.008
-343.391	186.997	0.155	0.228
-342.377	-96.557	-0.342	-0.089
-341.362	800.000	0.031	0.089
-340.348	-11.480	0.182	-0.118
-339.333	-178.258	0.161	-0.004
-338.318	168.610	-0.127	0.179
-337.304	-74.023	0.132	-0.047
-336.289	-32.050	-0.149	-0.082
-335.275	466.617	0.090	-0.199
-334.260	246.350	-0.129	-0.216
-333.245	800.000	0.077	-0.243
-332.231	-45.470	0.144	0.071
-331.216	-200.000	0.004	-0.044
-330.202	-67.359	-0.149	0.058
-329.187	-200.000	-0.012	0.285
-328.172	153.811	-0.113	0.153
-327.158	-131.135	0.173	-0.023
-326.143	-200.000	0.032	0.168
-325.129	35.618	0.044	-0.038
-324.114	-92.252	0.218	-0.061
-323.099	-14.594	-0.117	-0.075
-322.085	-174.354	0.167	0.005
-321.070	137.596	-0.136	0.176
-320.056	28.620	0.069	0.057
-319.041	81.870	-0.174	0.187
-318.026	-200.000	-0.023	0.287
-317.012	-127.090	0.030	-0.004
-315.997	59.980	0.141	-0.137
-314.983	141.126	0.026	0.034
-313.968	-38.549	-0.287	-0.150
-312.953	94.522	0.171	0.192
-311.939	-200.000	0.005	0.204
-310.924	-200.000	0.048	0.403
-309.910	453.924	0.039	0.086
-308.895	140.468	0.063	-0.083
-307.880	-148.399	0.169	0.014
-306.866	43.243	0.274	-0.247
-305.851	75.413	-0.171	-0.178
-304.837	-25.779	0.149	-0.087
-303.822	-90.347	0.413	-0.118
-302.807	96.588	0.078	-0.088
-301.793	91.916	0.077	0.085
-300.778	-200.000	-0.029	-0.134
-299.764	-51.698	-0.556	0.256
-298.749	800.000	0.125	0.443
-297.735	-200.000	-0.016	0.221
-296.720	800.000	0.145	-0.569
-295.705	-31.184	0.196	-0.109
-294.691	-140.533	-0.067	-0.007
-293.676	67.835	-0.154	-0.156
-292.662	-200.000	0.004	0.313
-291.647	-200.000	-0.018	0.236
-290.632	-18.551	-0.134	0.082
-289.618	-105.672	-0.132	0.029
-288.603	-60.296	0.188	0.079
-287.589	-168.791	-0.327	-0.012
-286.574	601.824	-0.015	-0.037
-285.559	124.430	-0.104	-0.130
-284.545	4.022	-0.239	-0.173
-283.530	251.292	0.134	0.224
-282.516	-200.000	0.039	0.218
-281.501	-83.193	-0.259	-0.082
-280.486	161.661	-0.113	-0.156
-279.472	800.000	0.124	-0.340
-278.457	361.528	0.190	0.376
-277.443	117.835	0.176	0.213
-276.428	-20.926	-0.114	0.069
-275.413	-89.280	-0.211	-0.061
-274.399	-58.124	0.296	-0.127
-273.384	-200.000	0.004	-0.088
-272.370	-28.925	0.073	0.041
-271.355	287.590	-0.116	0.206
-270.340	156.451	-0.116	0.158
-269.326	-32.665	-0.188	-0.103
-268.311	93.198	0.095	-0.106
-267.297	-15.196	0.139	0.088
-266.282	360.056	-0.065	-0.128
-265.267	-125.745	0.219	0.033
-264.253	-200.000	0.013	-0.417
-263.238	-157.506	-0.155	-0.009
-262.224	-200.000	0.070	0.337
-261.209	-150.442	0.382	-0.029
-260.195	800.000	0.051	0.161
-259.180	167.958	-0.123	0.173
-258.165	800.000	-0.105	-0.309
-257.151	800.000	0.049	-0.201
-256.136	-58.506	0.326	0.140
-255.122	102.687	0.028	0.033
-254.107	8.002	-0.227	-0.168
-253.092	243.500	-0.172	0.284
-252.078	800.000	-0.048	0.194
-251.063	726.502	0.051	0.133
-250.049	-131.632	-0.379	-0.049
-249.034	-54.991	0.163	-0.072
-248.019	-7.368	-0.049	-0.033
-247.005	-75.224	-0.196	-0.069
-245.990	235.400	0.207	-0.337
-244.976	-116.872	0.355	0.064
-243.961	42.561	0.090	0.081
-242.946	238.450	0.215	0.352
-241.932	45.974	-0.163	-0.149
-240.917	800.000	0.041	0.117
-239.903	-88.916	0.173	-0.051
-238.888	108.441	-0.049	0.057
-237.873	-200.000	-0.005	0.274
-236.859	190.552	-0.100	0.149
-235.844	-124.122	-0.340	-0.053
-234.830	800.000	-0.081	0.228
-233.815	800.000	0.108	0.401
-232.800	-200.000	0.015	-0.214
-231.786	478.115	0.088	0.196
-230.771	269.006	0.125	0.216
-229.757	-200.000	0.002	-0.049
-228.742	-200.000	0.036	-0.331
-227.727	-58.602	0.190	0.081
-226.713	339.742	0.077	-0.147
-225.698	-62.025	0.108	0.044
-224.684	800.000	-0.114	0.362
-223.669	-67.135	0.278	-0.108
-222.655	-200.000	0.015	-0.164
-221.640	80.111	0.026	0.027
-220.625	80.478	0.087	0.093
-219.611	-162.232	-0.431	0.021
-218.596	-12.528	0.481	0.309
-217.582	-200.000	0.001	0.283
-216.567	148.975	0.074	0.098
-215.552	-50.430	0.124	-0.058
-214.538	408.953	0.130	0.270
-213.523	461.746	0.168	-0.368
-212.509	169.163	-0.082	-0.115
-211.494	-200.000	-0.009	-0.059
-210.479	222.312	-0.227	0.359
-209.465	317.875	0.094	-0.176
-208.450	148.592	-0.203	0.270
-207.436	224.998	0.278	0.443
-206.421	147.731	-0.063	-0.083
-205.406	-101.201	-0.277	-0.067
-204.392	61.110	-0.117	0.114
-203.377	57.870	0.118	0.114
-202.363	-200.000	0.018	-0.172
-201.348	123.661	0.105	-0.130
-200.333	-200.000	0.023	0.110
-199.319	-109.710	-0.379	-0.078
-198.304	217.251	-0.121	-0.190
-197.290	236.169	0.101	0.165
-196.275	772.269	0.050	0.133
-195.260	444.103	0.107	-0.230
-194.246	-31.171	-0.119	0.066
-193.231	800.000	0.104	-0.417
-192.217	29.950	-0.293	-0.245
-191.202	35.957	0.112	-0.097
-190.187	122.460	0.144	0.177
-189.173	-96.342	0.274	0.071
-188.158	31.646	-0.111	-0.094
-187.144	-200.000	0.030	0.143
-186.129	26.842	-0.158	-0.130
-185.114	800.000	0.077	-0.252
-184.100	800.000	-0.039	0.160
-183.085	-200.000	-0.041	0.303
-182.071	33.244	0.090	-0.077
-181.056	365.993	-0.150	0.297
-180.042	-14.794	-0.306	0.193
-179.027	-200.000	-0.008	-0.157
-178.012	-50.548	0.380	0.176
-176.998	800.000	0.055	-0.150
-175.983	-108.204	0.457	0.097
-174.969	-152.912	0.176	-0.012
-173.954	-13.106	-0.251	0.161
-172.939	272.432	0.111	0.192
-171.925	24.288	-0.276	0.224
-170.910	302.920	-0.233	-0.425
-169.896	-104.845	0.365	0.082
-168.881	800.000	-0.085	0.282
-167.866	293.720	-0.143	-0.256
-166.852	800.000	0.088	0.260
-165.837	305.905	-0.007	-0.014
-164.823	610.663	0.110	0.270
-163.808	800.000	-0.096	0.395
-162.793	324.974	0.117	-0.220
-161.779	-105.483	-0.266	0.059
-160.764	-133.405	-0.160	0.020
-159.750	-200.000	-0.055	-0.266
-158.735	-200.000	0.033	0.447
-157.720	-200.000	0.012	0.268
-156.706	-19.464	-0.116	-0.070
-155.691	61.056	-0.148	0.144
-154.677	-8.412	-0.222	0.147
-153.662	52.710	-0.202	0.190
-152.647	-55.193	0.074	-0.033
-151.633	39.219	0.077	-0.067
-150.618	71.540	-0.159	-0.162
-149.604	2.243	0.148	-0.105
-148.589	-58.971	0.094	-0.040
-147.574	75.078	0.118	0.122
-146.560	13.811	-0.091	0.070
-145.545	800.000	-0.079	0.269
-144.531	-2.850	0.131	-0.090
-143.516	-8.002	0.265	-0.176
-142.502	-39.807	-0.729	-0.374
-141.487	-46.110	0.208	-0.100
-140.472	-172.838	0.108	-0.003
-139.458	217.820	0.095	0.149
-138.443	295.559	0.197	-0.354
-137.429	-99.262	0.146	-0.036
-136.414	292.392	0.173	0.309
-135.399	-67.739	0.257	-0.099
-134.385	598.345	-0.064	0.156
-133.370	58.996	0.113	-0.109
-132.356	-200.000	-0.007	0.063
-131.341	-116.169	0.086	-0.016
-130.326	-115.413	0.352	-0.065
-129.312	-132.063	-0.190	-0.024
-128.297	134.626	0.121	-0.154
-127.283	-26.662	0.185	-0.106
-126.268	-42.523	-0.009	-0.004
-125.253	8.223	-0.056	-0.041
-124.239	16.732	-0.190	0.148
-123.224	-200.000	-0.014	-0.062
-122.210	-200.000	0.028	0.237
-121.195	30.780	-0.091	0.076
-120.180	657.940	-0.075	0.190
-119.166	800.000	-0.065	-0.209
-118.151	800.000	0.064	0.177
-117.137	-167.573	0.228	-0.009
-116.122	-200.000	0.019	0.171
-115.107	-148.809	-0.019	-0.001
-114.093	159.902	0.194	-0.265
-113.078	800.000	-0.013	-0.046
-112.064	-200.000	0.002	-0.023
-111.049	112.713	-0.097	0.115
-110.034	-200.000	-0.018	-0.382
-109.020	-159.567	-0.256	-0.014
-108.005	800.000	0.053	-0.158
-106.991	-200.000	0.035	0.240
-105.976	-52.025	-0.297	-0.135
-104.962	134.230	0.137	-0.173
-103.947	481.818	0.123	0.274
-102.932	74.926	0.202	-0.208
-101.918	-200.000	-0.007	-0.050
-100.903	504.525	-0.094	0.213
-99.889	800.000	0.191	0.554
-98.874	800.000	0.070	0.280
-97.859	800.000	0.068	-0.186
-96.845	-128.528	-0.321	-0.045
-95.830	800.000	-0.028	0.082
-94.816	-105.352	0.089	-0.020
-93.801	17.308	0.336	-0.261
-92.786	83.510	-0.345	0.368
-91.772	-19.218	0.253	-0.154
-90.757	800.000	0.128	-0.442
-89.743	-14.078	0.135	-0.085
-88.728	800.000	0.049	-0.206
-87.713	-79.261	-0.105	0.035
-86.699	79.291	-0.095	0.100
-85.684	-141.373	0.280	-0.028
-84.670	800.000	0.060	0.242
-83.655	292.732	-0.082	0.147
-82.640	800.000	-0.033	0.133
-81.626	282.394	0.128	0.226
-80.611	266.676	-0.276	0.472
-79.597	-42.276	0.337	-0.168
-78.582	298.758	0.035	0.064
-77.567	-200.000	0.021	0.109
-76.553	-96.347	0.383	0.099
-75.538	-75.001	-0.058	0.020
-74.524	-20.757	-0.094	0.056
-73.509	-93.320	-0.118	-0.032
-72.494	-125.154	0.282	-0.042
-71.480	-200.000	0.019	0.375
-70.465	-51.865	-0.152	0.069
-69.451	13.265	0.159	-0.121
-68.436	502.769	0.142	-0.322
-67.422	-200.000	-0.033	0.362
-66.407	103.093	0.200	0.229
-65.392	-200.000	0.030	0.204
-64.378	-200.000	0.006	-0.139
-63.363	29.490	0.064	0.053
-62.349	-55.526	-0.148	0.065
-61.334	119.799	-1.047	-1.269
-60.319	-14.324	0.684	0.431
-59.305	-200.000	-0.287	-1.572
-58.290	321.731	0.696	1.296
-57.276	299.567	0.964	1.737
-56.261	-200.000	117.938	643.052
-55.246	484.219	1551.132	3451.897
-54.232	174.211	2718.182	3841.397
-53.217	103.666	2152.235	2471.141
-52.203	37.683	1584.681	1375.718
-51.188	29.630	1328.461	1105.298
-50.173	26.578	1290.378	1055.800
-49.159	52.004	1348.893	1256.169
-48.144	50.715	1361.753	1260.420
-47.130	29.608	1316.088	1094.697
-46.115	26.378	1298.100	1060.776
-45.100	26.081	1293.064	1054.881
-44.086	25.970	1290.372	1051.996
-43.071	25.904	1288.136	1049.746
-42.057	25.924	1286.214	1048.259
-41.042	25.988	1284.542	1047.225
-40.027	26.055	1282.558	1045.953
-39.013	25.973	1281.019	1044.182
-37.998	26.026	1279.542	1043.241
-36.984	26.251	1277.158	1042.560
-35.969	26.141	1275.503	1040.534
-34.954	26.221	1273.651	1039.439
-33.940	26.067	1272.629	1037.680
-32.925	26.160	1270.802	1036.683
-31.911	26.223	1269.276	1035.758
-30.896	26.347	1267.937	1035.332
-29.881	26.330	1266.825	1034.288
-28.867	26.192	1265.648	1032.494
-27.852	26.357	1263.886	1031.958
-26.838	26.285	1262.758	1030.587
-25.823	26.224	1261.719	1029.349
-24.809	26.278	1260.092	1028.288
-23.794	26.211	1258.869	1026.870
-22.779	26.325	1257.274	1026.177
-21.765	26.335	1256.309	1025.406
-20.750	26.277	1254.952	1023.927
-19.736	26.313	1253.645	1023.024
-18.721	26.239	1252.184	1021.374
-17.706	26.106	1251.268	1019.831
-16.692	26.189	1250.228	1019.414
-15.677	26.172	1249.280	1018.502
-14.663	26.092	1248.031	1016.997
-13.648	26.151	1246.778	1016.266
-12.633	26.231	1245.801	1015.879
-11.619	26.052	1245.216	1014.358
-10.604	26.226	1244.288	1014.538
-9.590	26.249	1243.195	1013.735
-8.575	26.120	1242.593	1012.481
-7.560	26.075	1241.762	1011.510
-6.546	26.058	1241.183	1010.902
-5.531	26.097	1239.818	1009.968
-4.517	26.052	1239.337	1009.284
-3.502	26.067	1238.318	1008.500
-2.487	26.156	1236.899	1007.798
-1.473	26.129	1232.987	1004.421
-0.458	24.559	1218.362	983.830
0.556	22.613	1202.026	946.939
1.571	18.894	1207.990	931.440
2.586	18.211	1222.505	938.802
3.600	17.951	1211.081	928.534
4.615	13.998	1140.538	854.090
5.629	7.112	1069.665	767.651
6.644	4.360	1051.815	741.636
7.659	3.969	1049.826	738.302
8.673	3.915	1047.977	736.682
9.688	3.937	1046.941	735.993
10.702	4.164	1045.526	736.009
11.717	8.589	1051.187	761.020
12.731	16.362	1061.683	805.767
13.746	21.140	1067.897	833.277
14.761	22.151	1069.046	838.933
15.775	21.450	1066.741	833.706
16.790	20.417	1065.209	827.520
17.804	19.847	1063.949	823.755
18.819	19.616	1062.548	821.499
19.834	19.647	1062.165	821.277
20.848	19.564	1061.882	820.588
21.863	19.374	1060.988	818.923
22.877	19.187	1060.407	817.516
23.892	19.264	1059.582	817.173
24.907	19.130	1058.541	815.662
25.921	19.100	1057.684	814.788
26.936	19.185	1056.264	814.025
27.950	19.137	1055.063	812.799
28.965	19.295	1053.799	812.496
29.980	19.484	1051.917	811.863
30.994	19.522	1051.348	811.531
32.009	19.618	1050.373	811.160
33.023	19.520	1049.644	810.066
34.038	19.325	1048.642	808.307
35.053	19.197	1047.556	806.799
36.067	19.315	1046.364	806.359
37.082	19.383	1045.744	806.129
38.096	19.522	1044.850	806.016
39.111	19.435	1044.767	805.477
40.126	19.195	1043.195	803.075
41.140	18.993	1041.046	800.409
42.155	18.701	1040.030	798.197
43.169	18.640	1039.555	797.479
44.184	18.713	1038.181	796.695
45.199	18.647	1037.628	795.893
46.213	18.838	1037.231	796.402
47.228	19.288	1036.015	797.480
48.242	19.218	1035.126	796.401
49.257	19.287	1034.063	795.834
50.271	19.288	1033.540	795.365
51.286	19.447	1032.327	795.093
52.301	19.324	1031.529	793.845
53.315	19.060	1030.336	791.641
54.330	19.009	1029.324	790.559
55.344	18.911	1028.480	789.390
56.359	19.034	1027.674	789.268
57.374	18.876	1026.755	787.766
58.388	18.853	1025.919	786.949
59.403	18.717	1025.036	785.580
60.417	18.693	1024.221	784.775
61.432	18.694	1023.513	784.169
62.447	18.653	1022.737	783.320
63.461	18.480	1022.044	781.929
64.476	18.476	1020.936	780.992
65.490	18.462	1020.037	780.173
66.505	18.658	1019.283	780.419
67.520	18.500	1019.053	779.455
68.534	18.580	1018.068	778.996
69.549	18.469	1017.074	777.663
70.563	18.368	1016.460	776.667
71.578	18.265	1015.949	775.739
72.593	18.261	1014.532	774.571
73.607	18.121	1014.238	773.645
74.622	18.442	1012.992	774.079
75.636	18.290	1012.868	773.226
76.651	18.381	1012.225	773.079
77.666	18.342	1011.741	772.467
78.680	18.464	1011.152	772.499
79.695	18.485	1010.039	771.671
80.709	18.676	1009.588	772.119
81.724	18.779	1009.468	772.424
82.739	18.847	1008.585	771.986
83.753	19.076	1008.276	772.708
84.768	19.676	1006.911	774.283
85.782	19.653	1006.944	774.137
86.797	19.578	1005.991	772.998
87.812	19.308	1004.833	770.835
88.826	19.436	1003.563	770.361
89.841	19.467	1002.894	769.920
90.855	19.542	1002.312	769.741
91.870	19.542	1001.428	768.993
92.884	19.651	1000.022	768.331
93.899	19.453	999.839	767.243
94.914	19.596	998.790	767.004
95.928	19.642	997.897	766.452
96.943	19.389	997.193	764.724
97.957	19.429	995.999	763.915
98.972	19.486	995.370	763.620
99.987	19.477	994.696	762.996
101.001	19.488	993.508	762.065
102.016	19.344	991.924	760.149
103.030	19.441	991.987	760.558
104.045	19.509	990.888	759.948
105.060	19.273	989.976	758.139
106.074	19.072	988.442	756.014
107.089	18.786	987.224	753.764
108.103	18.658	986.605	752.661
109.118	18.646	985.065	751.368
110.133	18.581	983.989	750.195
111.147	18.571	983.589	749.784
112.162	18.726	982.716	749.726
113.176	18.817	982.627	749.989
114.191	18.910	981.412	749.400
115.206	18.843	980.618	748.438
116.220	18.837	979.912	747.804
117.235	18.911	978.615	747.074
118.249	18.682	978.130	745.639
119.264	18.574	977.755	744.819
120.279	18.584	976.725	744.012
121.293	18.411	975.802	742.495
122.308	18.326	974.551	741.108
123.322	18.366	973.647	740.530
124.337	18.200	972.878	739.159
125.352	18.278	972.053	738.804
126.366	18.433	970.603	738.305
127.381	18.298	970.163	737.324
128.395	18.407	968.989	736.838
129.410	18.452	967.849	736.096
130.424	18.605	967.491	736.416
131.439	18.850	967.127	737.124
132.454	18.741	966.052	735.772
133.468	18.754	965.709	735.503
134.483	18.885	964.239	734.877
135.497	18.926	963.660	734.548
136.512	18.871	963.114	733.832
137.527	18.853	962.064	732.891
138.541	18.815	961.519	732.246
139.556	18.899	961.109	732.231
140.570	19.091	960.325	732.382
141.585	19.259	960.157	732.904
142.600	19.402	958.773	732.392
143.614	19.486	958.143	732.201
144.629	19.577	957.852	732.298
145.643	19.421	956.701	730.693
146.658	19.215	955.204	728.614
147.673	19.077	954.166	727.176
148.687	18.955	952.989	725.702
149.702	18.850	952.302	724.668
150.716	18.834	951.711	724.091
151.731	19.025	950.993	724.284
152.746	19.046	950.296	723.775
153.760	19.165	949.647	723.718
154.775	19.135	949.550	723.454
155.789	19.338	948.558	723.488
156.804	19.094	947.702	721.747
157.819	19.332	947.348	722.411
158.833	19.507	946.388	722.348
159.848	19.656	946.051	722.651
160.862	19.360	944.734	720.342
161.877	18.942	943.499	717.591
162.892	18.847	942.420	716.313
163.906	18.946	940.857	715.473
164.921	18.868	940.602	714.891
165.935	18.912	939.939	714.509
166.950	19.097	939.180	714.636
167.964	18.934	938.091	713.068
168.979	18.891	936.997	711.993
169.994	18.926	936.225	711.489
171.008	19.101	935.711	711.759
172.023	19.309	935.486	712.388
173.037	19.487	934.950	712.652
174.052	19.364	933.647	711.087
175.067	19.011	933.007	709.082
176.081	18.812	932.011	707.440
177.096	18.815	931.547	707.040
178.110	18.863	930.915	706.694
179.125	18.929	930.659	706.710
180.140	19.151	929.846	706.941
181.154	19.335	929.620	707.463
182.169	19.475	929.395	707.800
183.183	19.427	928.792	707.084
184.198	19.387	928.088	706.321
185.213	19.315	927.570	705.571
186.227	19.621	925.963	705.534
187.242	19.667	925.839	705.566
188.256	19.766	925.480	705.633
189.271	19.753	924.955	705.118
190.286	19.347	923.392	702.212
191.300	18.900	922.461	699.622
192.315	18.647	921.880	698.092
193.329	18.804	921.508	698.383
194.344	19.050	920.951	698.901
195.359	19.267	920.366	699.276
196.373	19.289	919.892	698.942
197.388	19.439	919.681	699.330
198.402	19.659	919.334	699.895
199.417	19.914	918.334	700.102
200.432	19.957	918.366	700.239
201.446	20.030	917.876	700.098
202.461	19.985	917.819	699.813
203.475	19.996	916.608	698.870
204.490	19.631	915.330	696.362
205.504	19.718	914.309	695.876
206.519	19.546	913.871	694.787
207.534	19.408	913.413	693.822
208.548	19.618	912.340	693.789
209.563	19.550	911.902	693.121
210.577	19.588	911.442	692.865
211.592	19.778	911.456	693.575
212.607	19.974	910.215	693.356
213.621	19.715	909.443	691.669
214.636	19.837	908.894	691.678
215.650	19.858	908.383	691.311
216.665	20.009	907.354	691.072
217.680	20.044	907.144	690.989
218.694	20.004	906.309	690.130
219.709	19.873	905.993	689.309
220.723	19.886	905.232	688.722
221.738	19.797	904.613	687.833
222.753	19.906	903.792	687.582
223.767	19.973	903.294	687.407
224.782	20.072	902.935	687.466
225.796	20.161	902.579	687.489
226.811	19.965	902.073	686.267
227.826	19.779	901.022	684.669
228.840	19.767	900.287	684.003
229.855	19.827	899.286	683.420
230.869	19.812	898.172	682.453
231.884	19.716	897.373	681.405
232.899	19.701	896.702	680.777
233.913	19.386	896.273	679.153
234.928	19.343	896.000	678.714
235.942	19.459	894.962	678.324
236.957	19.304	895.113	677.771
237.972	19.473	893.999	677.530
238.986	19.551	893.469	677.374
240.001	19.599	892.812	677.006
241.015	19.584	892.256	676.466
242.030	19.738	891.858	676.707
243.045	19.855	891.096	676.525
244.059	19.850	890.497	675.992
245.074	19.890	889.981	675.696
246.088	20.131	889.199	675.983
247.103	20.125	889.273	675.955
248.117	20.429	888.814	676.730
249.132	20.671	888.432	677.324
250.147	20.834	888.079	677.630
251.161	20.983	887.347	677.588
252.176	20.918	887.072	677.066
253.190	20.940	886.333	676.527
254.205	20.950	885.896	676.172
255.220	21.003	884.885	675.548
256.234	20.879	884.687	674.854
257.249	20.963	883.329	674.085
258.263	20.980	882.790	673.679
259.278	20.743	882.648	672.597
260.293	20.883	882.326	672.832
261.307	21.110	881.661	673.139
262.322	21.059	881.006	672.385
263.336	21.125	880.023	671.827
264.351	20.984	879.619	670.918
265.366	20.981	878.756	670.190
266.380	21.004	878.289	669.863
267.395	20.941	877.297	668.805
268.409	20.695	876.422	667.135
269.424	20.893	875.646	667.245
270.439	20.807	874.811	666.221
271.453	20.570	874.445	664.975
272.468	20.665	873.928	664.887
273.482	20.604	873.211	664.048
274.497	20.487	872.785	663.219
275.512	20.512	872.156	662.780
276.526	20.583	871.775	662.702
277.541	20.797	871.280	663.082
278.555	20.969	870.845	663.347
279.570	21.175	870.555	663.850
280.585	21.167	869.294	662.801
281.599	20.988	868.195	661.224
282.614	20.747	867.791	659.945
283.628	20.882	866.912	659.729
284.643	20.824	866.801	659.368
285.657	20.705	866.185	658.390
286.672	20.840	865.313	658.176
287.687	20.865	864.674	657.728
288.701	20.926	864.230	657.561
289.716	20.912	863.766	657.098
290.730	20.899	863.418	656.726
291.745	20.792	863.067	655.998
292.760	20.994	862.378	656.175
293.774	21.246	861.852	656.665
294.789	21.113	861.326	655.707
295.803	20.887	860.117	653.882
296.818	20.897	859.495	653.389
297.833	20.883	858.946	652.858
298.847	20.993	858.230	652.668
299.862	20.991	858.026	652.450
300.876	21.030	857.920	652.456
301.891	21.296	856.879	652.602
302.906	21.331	856.768	652.590
303.920	21.525	856.403	652.977
304.935	21.613	855.672	652.692
305.949	21.586	854.792	651.861
306.964	21.390	854.459	650.822
307.979	21.152	853.980	649.511
308.993	21.247	853.641	649.550
310.008	21.434	852.775	649.527
311.022	21.276	852.403	648.602
312.037	21.219	851.300	647.492
313.052	20.893	850.380	645.530
314.066	20.784	849.727	644.573
315.081	20.881	848.992	644.316
316.095	21.021	848.703	644.557
317.110	20.816	848.316	643.451
318.125	20.864	847.753	643.142
319.139	20.919	847.086	642.783
320.154	20.881	846.918	642.459
321.168	20.968	846.427	642.350
322.183	21.127	846.108	642.636
323.197	21.117	845.459	642.051
324.212	20.984	844.660	640.898
325.227	20.927	844.276	640.338
326.241	21.106	843.240	640.153
327.256	20.941	842.919	639.250
328.270	20.957	842.433	638.882
329.285	20.906	841.716	638.094
330.300	20.772	841.478	637.366
331.314	20.997	840.922	637.714
332.329	21.143	840.425	637.814
333.343	21.266	840.087	637.949
334.358	21.220	839.512	637.289
335.373	21.326	839.239	637.411
336.387	21.340	839.100	637.301
337.402	21.520	838.927	637.769
338.416	21.660	838.425	637.839
339.431	21.723	838.363	637.965
340.446	22.010	837.984	638.667
341.460	21.980	837.293	637.972
342.475	22.039	837.190	638.052
343.489	21.963	836.997	637.572
344.504	22.234	836.453	638.088
345.519	22.137	836.036	637.361
346.533	22.004	834.876	635.936
347.548	21.740	834.328	634.509
348.562	21.537	833.823	633.332
349.577	21.432	833.227	632.446
350.592	21.403	832.113	631.439
351.606	21.385	831.545	630.887
352.621	21.383	830.819	630.271
353.635	21.505	830.293	630.256
354.650	21.489	829.727	629.716
355.665	21.592	829.201	629.631
356.679	21.790	828.459	629.720
357.694	21.708	828.243	629.207
358.708	21.762	827.248	628.589
359.723	21.758	826.808	628.187
360.738	21.578	826.440	627.206
361.752	21.867	825.898	627.775
362.767	21.948	825.435	627.654
363.781	22.052	825.391	627.938
364.796	22.126	824.685	627.612
365.810	22.348	824.528	628.229
366.825	22.265	824.483	627.842
367.840	22.258	823.419	626.951
368.854	22.048	823.021	625.845
369.869	21.980	822.585	625.215
370.883	22.095	821.944	625.082
371.898	22.357	821.567	625.673
372.913	22.253	821.035	624.843
373.927	22.176	820.705	624.262
374.942	22.286	819.933	624.008
375.956	22.401	819.793	624.256
376.971	22.478	819.820	624.494
377.986	22.572	819.121	624.239
379.000	22.563	818.518	623.693
380.015	22.368	817.978	622.534
381.029	22.364	817.427	622.048
382.044	22.526	816.783	622.075
383.059	22.683	816.111	622.061
384.073	22.392	815.604	620.594
385.088	22.202	814.612	619.117
386.102	22.033	814.323	618.244
387.117	21.970	813.887	617.639
388.132	22.011	813.150	617.169
389.146	22.175	812.638	617.302
390.161	22.464	812.284	617.993
391.175	22.489	811.837	617.685
392.190	22.234	811.374	616.384
393.205	22.093	810.664	615.297
394.219	22.080	810.128	614.789
395.234	21.981	809.622	614.007
396.248	21.952	809.178	613.514
397.263	21.914	808.693	612.957
398.278	21.677	808.556	611.973
399.292	21.787	807.758	611.697
400.307	21.846	807.224	611.446
401.321	21.862	806.805	611.129
402.336	22.033	806.477	611.423
403.350	22.197	805.818	611.440
404.365	22.358	805.858	611.976
405.380	22.432	805.257	611.721
406.394	22.715	805.082	612.517
407.409	22.815	804.493	612.360
408.423	22.814	804.817	612.552
409.438	22.770	804.105	611.801
410.453	22.934	803.628	611.952
411.467	22.962	803.165	611.643
412.482	23.007	802.874	611.524
413.496	23.093	802.781	611.696
414.511	22.995	802.530	611.111
415.526	22.722	801.601	609.408
416.540	22.731	800.895	608.846
417.555	22.838	800.793	609.087
418.569	22.653	800.445	608.128
419.584	22.905	799.789	608.445
420.599	22.937	799.379	608.190
421.613	165.063	1371.639	1797.005
422.628	143.405	1455.029	1797.106
